################################################################################
# EDF_DataBlockID                     0.Image.Psd
# EDF_BinarySize                      2105344
# EDF_HeaderSize                      2560
# ByteOrder                           LowByteFirst
# DataType                            FloatValue
# Dim_1                               512
# Dim_2                               1028
# Image                               0
# HeaderID                            EH:000000:000000:000000
# Size                                2105344
# Center_1                            304.9000
# Center_2                            588.7000
# Comment                             Xenocs_Cell_Window - front_window_open_only
# DDummy                              0.6
# Date                                2025-10-19T03:21:45
# Delta                               21.910000
# Dummy                               -1.5
# ExposureTime                        360
# Gamma                               15.360000
# Intensity1                          9.03626e-10
# PSize_1                             7.5e-05
# PSize_2                             7.5e-05
# Pressure                            0.0331831
# SampleDistance                      0.115750
# SampleEnvKind                       large
# SampleEnvPN                         ElectroChemical cell
# SampleEnvSN                         1141
# Thickness                           0
# Wavelength                          1.541891e-10
# Wavelength                          1.54189e-10
# aux                                 0
# aux_dial                            0.002375
# beamx                               588.429
# beamx_dial                          588.429
# beamz                               657.855
# beamz_dial                          657.855
# det0x                               -0.000396875
# det0x_dial                          6.36905
# det0xvd                             -0.0005
# det0xvd_dial                        -0.0005
# det0y                               450.002
# det0y_dial                          481.635
# det0z                               0
# det0z_dial                          1.2295
# det0zvd                             0
# det0zvd_dial                        0
# mag                                 1.818
# mag_dial                            1.818
# om                                  0.2499
# om_dial                             -0.610199
# phi                                 -0.0120535
# phi_dial                            0
# ry                                  0.599993
# ry_dial                             0.599993
# s1bot                               0.8
# s1bot_dial                          -1.66094
# s1hl                                0.8
# s1hl_dial                           -0.608437
# s1hr                                0.8
# s1hr_dial                           0.970938
# s1top                               0.8
# s1top_dial                          -0.461562
# s2bot                               0.45
# s2bot_dial                          1.36109
# s2hl                                0.45
# s2hl_dial                           -0.83375
# s2hr                                0.45
# s2hr_dial                           -0.118594
# s2top                               0.45
# s2top_dial                          1.44734
# w2theta                             32
# w2theta_dial                        32
# waxsch                              19.2605
# waxsch_dial                         -32.7238
# waxsh                               137.085
# waxsh_dial                          -43.5335
# waxsth                              26.0607
# waxsth_dial                         -19.4068
# waxsz                               67.0407
# waxsz_dial                          -23.7962
# wind                                65.9854
# wind_dial                           66.0041
# wpsi                                124
# wpsi_dial                           124
# wstod                               115
# wstod_dial                          115
# x                                   0
# x_dial                              1.00969
# z                                   0
# z_dial                              13.3172
# CountCutoff                         6807993
# DetectorModel                       Dectris EIGER2 Si 500K, S/N E-01-0554
# ThresholdSetting                    4023.88989258
# Saturation                          0
# FlatField                           Corrected
# BackgroundReductionExtra            0.02
# BackgroundCorrectionConstant        0.0026712
# Detector                            0
# Monitor                             0
# Pil_Roi0                            0
# SumForIntensity1                    3.25305e+08
# TransmittedFlux                     903626
# det                                 0
# mon                                 0
# pilai0                              3.25305e+08
# pilai1                              698435
# pilct0                              5.62584e+08
# pilct1                              698435
# pilroi0                             0
# pilroi1                             0
# sec                                 1
# title                               20251017__1_00302.edf
# usaxs0                              0
# Operation                           Azimuthal average I(q)
# Error_model                         ErrorModel.poisson
# Geometrical_correction              True
# Transmission_correction             True
# Thickness_correction                False
# Binning mode                        Uniform
# Binning factor                      1.0
# Psi                                 0.0
# Omega                               0.2499
# MaskInvalidPixels                   True
# DetectorEdge                        3
# MaskFiles                           ['20251017__1_00233_mask.edf']
################################################################################
    q(A⁻¹)                Intensity(a.u.)            Sigma_I(a.u.)            
       0.690460             0.00763213779             0.00801371032           
       0.693100           -2.24632708e-05                         0           
       0.695741             0.00574739651             0.00262663656           
       0.698381             0.00404406743              0.0020607237           
       0.701021             0.00473708238             0.00182024944           
       0.703662             0.00289672585             0.00131756325           
       0.706302             0.00713914676             0.00199763796           
       0.708942              0.0038395898             0.00130130761           
       0.711583             0.00297548034              0.0011453456           
       0.714223             0.00623452266              0.0014447205           
       0.716864             0.00721016468             0.00158542803           
       0.719504             0.00737413359             0.00148390571           
       0.722144             0.00630807064             0.00132551539           
       0.724785             0.00558529972             0.00122682508           
       0.727425             0.00592805263             0.00117233922           
       0.730065             0.00872865465             0.00146373509           
       0.732706             0.00785683331             0.00124879297           
       0.735346             0.00547308922             0.00112583638           
       0.737987             0.00686257399             0.00109116513           
       0.740627             0.00872945802             0.00134818161           
       0.743267             0.00686441914             0.00102835291           
       0.745908             0.00614310329              0.0010425991           
       0.748548             0.00488400925            0.000867045488           
       0.751189             0.00614584719            0.000963459685           
       0.753829             0.00760110998             0.00108113837           
       0.756469             0.00741583113             0.00100439078           
       0.759110             0.00722447908             0.00102539139           
       0.761750             0.00436841704            0.000729737428           
       0.764390             0.00806405952               0.001064293           
       0.767031             0.00683493725            0.000886634166           
       0.769671             0.00706691738            0.000956128715           
       0.772312             0.00607734447            0.000807987242           
       0.774952             0.00682710951            0.000918083801           
       0.777592             0.00616975853            0.000798275965           
       0.780233             0.00683696361            0.000885885215           
       0.782873             0.00602211021            0.000760289414           
       0.785513             0.00822014025            0.000944905999           
       0.788154             0.00597962858            0.000740237577           
       0.790794             0.00742021393            0.000853435163           
       0.793435              0.0067311358            0.000780727412           
       0.796075             0.00734637351            0.000819936543           
       0.798715             0.00678958687            0.000783752623           
       0.801356             0.00483698028            0.000643818807           
       0.803996             0.00746478663            0.000812588334           
       0.806637              0.0058028152            0.000677227168           
       0.809277             0.00731816598            0.000795638005           
       0.811917              0.0068659364            0.000729270792           
       0.814558             0.00652963156            0.000728564528           
       0.817198             0.00706062423            0.000722380997           
       0.819838             0.00663811639            0.000730627607           
       0.822479             0.00686123814            0.000684535046           
       0.825119             0.00815787518            0.000801846256           
       0.827760             0.00707723931            0.000692035012           
       0.830400             0.00672140099            0.000710579655           
       0.833040             0.00553093217            0.000601583994           
       0.835681             0.00619159912            0.000666551382           
       0.838321             0.00656998189            0.000642660391           
       0.840961             0.00593513077            0.000638457682           
       0.843602              0.0068495701            0.000646072479           
       0.846242             0.00661773625            0.000657465922           
       0.848883             0.00787669199            0.000697755112           
       0.851523              0.0061706536            0.000622213273           
       0.854163             0.00719913437            0.000664261076           
       0.856804             0.00765211628            0.000667317469           
       0.859444             0.00610932441            0.000600550649           
       0.862085             0.00640360017            0.000605900536           
       0.864725             0.00723262808            0.000641563899           
       0.867365             0.00697376067            0.000625466413           
       0.870006             0.00705162775            0.000637723795           
       0.872646             0.00623873118            0.000573735349           
       0.875286             0.00716649254            0.000635869608           
       0.877927             0.00759749859            0.000626859441           
       0.880567             0.00678858865            0.000604125349           
       0.883208              0.0059946357            0.000551304559           
       0.885848             0.00673347258            0.000599444308           
       0.888488             0.00730629789            0.000593712881           
       0.891129             0.00655770212            0.000591262336           
       0.893769             0.00672324582            0.000565900207           
       0.896410             0.00558313511            0.000531575876           
       0.899050             0.00684649611            0.000567578125           
       0.901690             0.00756343321            0.000609007942           
       0.904331             0.00662255613            0.000549974826           
       0.906971             0.00640321868            0.000558418071           
       0.909611              0.0076359388            0.000585311005           
       0.912252             0.00715282908            0.000576309048           
       0.914892             0.00815944604            0.000599936084           
       0.917533             0.00711278126            0.000572776094           
       0.920173             0.00667619845            0.000532305534           
       0.922813             0.00700525375            0.000569812546           
       0.925454             0.00664987797            0.000526890489           
       0.928094             0.00649094493            0.000531729638           
       0.930734             0.00709708858            0.000542733461           
       0.933375              0.0074914194            0.000569494133           
       0.936015             0.00763700201            0.000550170618           
       0.938656              0.0075821949            0.000571187184           
       0.941296             0.00629857708            0.000501854597           
       0.943936             0.00771751816            0.000565519324           
       0.946577             0.00772066817            0.000544741203           
       0.949217              0.0077497602             0.00056504096           
       0.951858             0.00752143997            0.000526252109           
       0.954498             0.00656259128            0.000517147831           
       0.957138             0.00735207357            0.000526104939           
       0.959779             0.00669280517            0.000512942175           
       0.962419             0.00804710767            0.000541468533           
       0.965059             0.00741689523            0.000534599231           
       0.967700             0.00696487367            0.000501299896           
       0.970340             0.00706379428             0.00051903332           
       0.972981             0.00771535221            0.000523744295           
       0.975621             0.00753538116             0.00052843735           
       0.978261             0.00708510351            0.000488899334           
       0.980902             0.00754304836            0.000528471497           
       0.983542             0.00709500662            0.000497612568           
       0.986182             0.00753866153            0.000519689646           
       0.988823             0.00744399554            0.000499753886           
       0.991463             0.00650482502            0.000478323931           
       0.994104             0.00719894507            0.000486236328           
       0.996744             0.00721113463            0.000502429217           
       0.999384             0.00743452893              0.0004928375           
       1.002025             0.00756223805            0.000510891793           
       1.004665             0.00766283796            0.000493212845           
       1.007306             0.00637684104            0.000465003495           
       1.009946             0.00712358665            0.000472570168           
       1.012586             0.00809664446            0.000518305559           
       1.015227             0.00896143523            0.000528777775           
       1.017867             0.00749640188             0.00049748648           
       1.020507             0.00698383702            0.000462101023           
       1.023148             0.00734196759            0.000479523946           
       1.025788              0.0070651237             0.00046557962           
       1.028429             0.00772995996            0.000497639011           
       1.031069             0.00723269864            0.000463772909           
       1.033709              0.0083038229            0.000506471356           
       1.036350             0.00829665124            0.000492977663           
       1.038990             0.00852044021            0.000511915653           
       1.041630             0.00798988828            0.000486184541           
       1.044271             0.00695844853            0.000453769984           
       1.046911             0.00810293959            0.000480569097           
       1.049552             0.00821081107            0.000501190811           
       1.052192             0.00753367681            0.000458491447           
       1.054832             0.00734165824            0.000461412663           
       1.057473             0.00799738774            0.000475481231           
       1.060113              0.0089252631            0.000507747015           
       1.062754              0.0074919746            0.000460049881           
       1.065394             0.00776852268            0.000463534894           
       1.068034              0.0081106176            0.000471797393           
       1.070675             0.00703270551            0.000447056198           
       1.073315             0.00841972701             0.00047420686           
       1.075955             0.00770814809            0.000461335807           
       1.078596              0.0078717539            0.000465284528           
       1.081236             0.00828129398             0.00047015625           
       1.083877             0.00774982463             0.00046902748           
       1.086517             0.00704327408            0.000437021186           
       1.089157             0.00803284161            0.000470134704           
       1.091798             0.00806063349            0.000460969191           
       1.094438             0.00811043878             0.00046973993           
       1.097078             0.00769744651            0.000445864047           
       1.099719             0.00825274546            0.000473498514           
       1.102359              0.0080824833            0.000443903128           
       1.105000             0.00822197747            0.000465350119           
       1.107640             0.00901764414            0.000471460609           
       1.110280             0.00781549273            0.000447700138           
       1.112921             0.00820604147            0.000450449047           
       1.115561             0.00789146544            0.000447336617           
       1.118202             0.00853726461            0.000451700601           
       1.120842             0.00938388642            0.000488489399           
       1.123482             0.00793347952            0.000436554829           
       1.126123             0.00848112947            0.000454188086           
       1.128763             0.00873188365            0.000458567662           
       1.131403             0.00906393837            0.000466479192           
       1.134044             0.00820999543            0.000443190876           
       1.136684             0.00880258885            0.000462355633           
       1.139325              0.0090019999            0.000454389518           
       1.141965             0.00898564589            0.000459913891           
       1.144605             0.00921775213            0.000468552122           
       1.147246             0.00925078421            0.000460501194           
       1.149886             0.00839178953            0.000441719424           
       1.152527             0.00922179094            0.000463512869           
       1.155167             0.00869321236            0.000443705472           
       1.157807             0.00868520808             0.00044380669           
       1.160448             0.00913907261            0.000461484014           
       1.163088             0.00814063142             0.00041938797           
       1.165728             0.00863963055            0.000449858801           
       1.168369             0.00809482438            0.000419898915           
       1.171009             0.00917930772            0.000450849749           
       1.173650             0.00878904429            0.000437980319           
       1.176290             0.00810332404            0.000425482385           
       1.178930             0.00894371102            0.000434435658           
       1.181571             0.00836509044            0.000433870293           
       1.184211             0.00877243432            0.000430889717           
       1.186851             0.00838111288            0.000425052912           
       1.189492             0.00905051886            0.000444154285           
       1.192132             0.00883149886            0.000432249221           
       1.194773             0.00864614599            0.000425108933           
       1.197413             0.00941155447            0.000447144579           
       1.200053              0.0090644162            0.000436059857           
       1.202694             0.00937764106            0.000440187674           
       1.205334             0.00908648743            0.000438037034           
       1.207975              0.0102798237            0.000456784926           
       1.210615             0.00896118296            0.000435501353           
       1.213255             0.00876041711            0.000419203727           
       1.215896             0.00937817477            0.000441953869           
       1.218536             0.00931121511            0.000427689474           
       1.221176             0.00948200301            0.000441895659           
       1.223817              0.0096735295            0.000437035694           
       1.226457             0.00906051831            0.000428333923           
       1.229098             0.00957599824            0.000433669497           
       1.231738             0.00837884469            0.000411369223           
       1.234378             0.00943899786            0.000428135378           
       1.237019             0.00910426311              0.0004238669           
       1.239659             0.00894410947            0.000419894916           
       1.242299             0.00959390852            0.000432657163           
       1.244940             0.00938558982            0.000423314858           
       1.247580              0.0105008467             0.00044973664           
       1.250221             0.00976193424            0.000440702971           
       1.252861             0.00921439846            0.000412213432           
       1.255501              0.0103002299            0.000448130107           
       1.258142                0.01044058            0.000442253215           
       1.260782             0.00931107117             0.00042236377           
       1.263423             0.00936240472            0.000415135632           
       1.266063              0.0095217243            0.000426456027           
       1.268703             0.00978160415            0.000421346354           
       1.271344              0.0101699394            0.000438986117           
       1.273984                0.01013985            0.000431493469           
       1.276624              0.0108077364            0.000442759502           
       1.279265             0.00939783029            0.000413772372           
       1.281905             0.00949885189            0.000418554427           
       1.284546             0.00949103183            0.000413811519           
       1.287186             0.00978162004            0.000420502205           
       1.289826              0.0103250587            0.000434265612           
       1.292467              0.0101495993            0.000422875269           
       1.295107              0.0100808959            0.000428870112           
       1.297747              0.0108103188              0.0004324661           
       1.300388              0.0101008284            0.000428768505           
       1.303028             0.00970398251             0.00040957438           
       1.305669              0.0103641091            0.000428744839           
       1.308309              0.0105392277            0.000425850981           
       1.310949              0.0107047643            0.000434531622           
       1.313590             0.00976506445            0.000408598517           
       1.316230              0.0103070082            0.000427339796           
       1.318871              0.0101770937            0.000415477107           
       1.321511              0.0101454962            0.000416910476           
       1.324151              0.0108303229            0.000432453657           
       1.326792               0.010757176            0.000427499544           
       1.329432              0.0103469455            0.000421455884           
       1.332072              0.0102810516            0.000412907838           
       1.334713              0.0102633282            0.000417668199           
       1.337353              0.0103296836            0.000412570748           
       1.339994              0.0107263326            0.000426405513           
       1.342634              0.0107099289            0.000416487254           
       1.345274              0.0120846038            0.000448193435           
       1.347915              0.0110249476            0.000429230542           
       1.350555              0.0105554237            0.000418350377           
       1.353195              0.0107199689            0.000413533186           
       1.355836             0.00989931881            0.000404887279           
       1.358476             0.00996017416             0.00040498765           
       1.361117              0.0102927188            0.000401365193           
       1.363757              0.0106294743            0.000421395628           
       1.366397              0.0106277981            0.000408240822           
       1.369038              0.0110662228            0.000425356482           
       1.371678              0.0111192456             0.00041776488           
       1.374319              0.0104465838            0.000408142915           
       1.376959             0.00999166974              0.0003936622           
       1.379599              0.0109760742            0.000420641394           
       1.382240              0.0101452104             0.00039672619           
       1.384880              0.0107728351             0.00041383301           
       1.387520              0.0103288295            0.000400477447           
       1.390161              0.0101195681            0.000395322468           
       1.392801              0.0106327584            0.000407637637           
       1.395442              0.0104225371            0.000399406065           
       1.398082              0.0107367361            0.000406768893           
       1.400722              0.0104770548            0.000400004422           
       1.403363              0.0108046523            0.000409979518           
       1.406003              0.0106201294            0.000396482829           
       1.408644              0.0105298329            0.000403081896           
       1.411284             0.00999777055            0.000390612223           
       1.413924             0.00979151336            0.000381794273           
       1.416565              0.0104852014            0.000394622692           
       1.419205             0.00992615965             0.00038774069           
       1.421845              0.0105525114            0.000394760975           
       1.424486              0.0107383898            0.000399980627           
       1.427126              0.0112836291            0.000409750674           
       1.429767              0.0109016525            0.000396549061           
       1.432407             0.00974845202            0.000384435557           
       1.435047              0.0107875619            0.000392253156           
       1.437688              0.0106991332            0.000399292865           
       1.440328              0.0112421666            0.000401368762           
       1.442968              0.0112405637             0.00040689588           
       1.445609               0.011114393            0.000397950829           
       1.448249             0.00987960666            0.000377620373           
       1.450890              0.0105969936             0.00038830034           
       1.453530              0.0095377383            0.000371111278           
       1.456170              0.0107739718            0.000393541479           
       1.458811              0.0105027144            0.000385464512           
       1.461451              0.0104711862            0.000387714764           
       1.464092              0.0104685992            0.000384287708           
       1.466732              0.0101017002            0.000375178093           
       1.469372              0.0108086709            0.000386891642           
       1.472013              0.0104778797            0.000387740478           
       1.474653              0.0107020721            0.000382190837           
       1.477293              0.0104932491            0.000384813819           
       1.479934              0.0106367833            0.000383381668           
       1.482574              0.0103444239            0.000377143123           
       1.485215              0.0115345122            0.000399272613           
       1.487855              0.0118023921            0.000403798965           
       1.490495              0.0103640007            0.000377579265           
       1.493136              0.0100252074            0.000366486543           
       1.495776              0.0102482698            0.000377001551           
       1.498416              0.0107433582            0.000378501625           
       1.501057             0.00978255785            0.000364286823           
       1.503697              0.0107360494            0.000377958123           
       1.506338              0.0108837764            0.000383348167           
       1.508978              0.0101704254            0.000368384476           
       1.511618              0.0104048334            0.000372417253           
       1.514259              0.0109713879            0.000383112801           
       1.516899              0.0107903825              0.0003801163           
       1.519540              0.0100355244            0.000364545149           
       1.522180             0.00984910206            0.000356633264           
       1.524820             0.00977814308            0.000362523362           
       1.527461               0.010499734            0.000367351383           
       1.530101              0.0105090337            0.000371313871           
       1.532741             0.00995525091            0.000359685864           
       1.535382              0.0103285284            0.000367173943           
       1.538022             0.00996143182            0.000357399523           
       1.540663              0.0105298242            0.000370927377           
       1.543303             0.00997748427            0.000356574645           
       1.545943              0.0103672303            0.000365509311           
       1.548584              0.0101172344            0.000362998207           
       1.551224              0.0102953082            0.000356791079           
       1.553864              0.0101353865            0.000363257057           
       1.556505              0.0101746911            0.000358361916           
       1.559145              0.0100748603            0.000357423903           
       1.561786              0.0101075033            0.000356380624           
       1.564426             0.00993103785             0.00035293685           
       1.567066              0.0095614699            0.000343604622           
       1.569707             0.00948655594            0.000347210903           
       1.572347              0.0096721219            0.000346041709           
       1.574988             0.00928830194            0.000337764685           
       1.577628             0.00942002856            0.000347809777           
       1.580268             0.00960638604            0.000339112317           
       1.582909             0.00878913729            0.000330433987           
       1.585549             0.00932834327             0.00033723772           
       1.588189             0.00948645813            0.000343882186           
       1.590830             0.00957562922            0.000339563995           
       1.593470             0.00943683755            0.000339846955           
       1.596111             0.00994416636            0.000345848105           
       1.598751             0.00897765153            0.000331970679           
       1.601391             0.00873080866            0.000325281969           
       1.604032             0.00857290483            0.000319635347           
       1.606672             0.00906116801            0.000335225491           
       1.609312             0.00857538197            0.000316412051           
       1.611953              0.0092713036            0.000333768588           
       1.614593             0.00900324523            0.000326406538           
       1.617234             0.00869106761            0.000322515559           
       1.619874             0.00828261285            0.000311141797           
       1.622514             0.00939293756            0.000334271594           
       1.625155             0.00904387527            0.000327190494           
       1.627795             0.00922706361             0.00032714796           
       1.630436             0.00938072965            0.000333176417           
       1.633076             0.00919167713             0.00032812642           
       1.635716               0.008986099            0.000323870508           
       1.638357             0.00913542394            0.000325162937           
       1.640997             0.00853637085            0.000316779052           
       1.643637             0.00861397553            0.000312306765           
       1.646278             0.00912774648            0.000326297593           
       1.648918             0.00865905631            0.000313712639           
       1.651559             0.00867486041            0.000317946768           
       1.654199             0.00818042747            0.000304520817           
       1.656839             0.00870715597            0.000314087173           
       1.659480             0.00815511121            0.000306644495           
       1.662120             0.00865339206            0.000311640843           
       1.664761             0.00838450826            0.000310082232           
       1.667401             0.00855964691            0.000310385348           
       1.670041             0.00874017924            0.000314000375           
       1.672682              0.0088496242            0.000312987088           
       1.675322             0.00885958666            0.000318700231           
       1.677962             0.00820664958            0.000300639957           
       1.680603              0.0082464254            0.000304042267           
       1.683243             0.00885753622            0.000312775575           
       1.685884             0.00803345878            0.000299004108           
       1.688524             0.00899519108            0.000315505883           
       1.691164              0.0083121894            0.000302511774           
       1.693805             0.00834875033            0.000305628013           
       1.696445             0.00765499126            0.000288592353           
       1.699085             0.00797332005            0.000295707602           
       1.701726             0.00825899542            0.000297043697           
       1.704366             0.00855903883            0.000309749115           
       1.707007             0.00844514695            0.000301115627           
       1.709647             0.00860740311            0.000307771673           
       1.712287             0.00801809541            0.000292084794           
       1.714928             0.00860467245            0.000305622746           
       1.717568             0.00850517368            0.000301056506           
       1.720209             0.00833784105            0.000299920948           
       1.722849             0.00776136858            0.000289831064           
       1.725489              0.0085144504            0.000298728167           
       1.728130             0.00847193861            0.000304047449           
       1.730770             0.00859685169            0.000299806712           
       1.733410             0.00776867527            0.000288741555           
       1.736051              0.0087550876            0.000301767251           
       1.738691              0.0088932278            0.000307243006           
       1.741332             0.00846116256             0.00029784178           
       1.743972             0.00823060746             0.00029386482           
       1.746612             0.00773649322            0.000284972944           
       1.749253             0.00856801197            0.000301192666           
       1.751893             0.00869386257              0.0003015764           
       1.754533             0.00854383424            0.000294859742           
       1.757174               0.008310166            0.000296236658           
       1.759814             0.00842176532            0.000293672629           
       1.762455             0.00796798649            0.000288083172           
       1.765095             0.00817433414             0.00028769191           
       1.767735             0.00803857489             0.00029014071           
       1.770376             0.00844277515            0.000292836443           
       1.773016             0.00839088989            0.000292395977           
       1.775657             0.00815021491            0.000288762485           
       1.778297             0.00825015212            0.000291948748           
       1.780937             0.00824740632            0.000290538023           
       1.783578             0.00830074921            0.000290107398           
       1.786218             0.00833520704             0.00029534791           
       1.788858              0.0085255524            0.000291279895           
       1.791499             0.00862465243             0.00029836735           
       1.794139             0.00885417716            0.000296728981           
       1.796780             0.00882717763            0.000298036648           
       1.799420             0.00897914111            0.000300208413           
       1.802060             0.00869191999            0.000291735072           
       1.804701             0.00927534333            0.000305410148           
       1.807341             0.00848349343            0.000289260413           
       1.809981             0.00885498642             0.00029748859           
       1.812622             0.00906354204            0.000299331706           
       1.815262             0.00919568328            0.000302580893           
       1.817903             0.00855383157            0.000288224519           
       1.820543             0.00908779847            0.000300756431           
       1.823183             0.00845493729            0.000285625551           
       1.825824             0.00810327184             0.00028382752           
       1.828464             0.00854543575            0.000290574074           
       1.831105             0.00867077036            0.000293830388           
       1.833745             0.00819707693            0.000285513213           
       1.836385             0.00824025677             0.00028515085           
       1.839026             0.00828182685              0.0002901665           
       1.841666             0.00838819459            0.000288232088           
       1.844306             0.00842047396            0.000292431967           
       1.846947             0.00856071274            0.000291067922           
       1.849587             0.00860698274            0.000295811826           
       1.852228             0.00837331613            0.000288665571           
       1.854868             0.00878151922            0.000301039979           
       1.857508             0.00793023032            0.000280794185           
       1.860149             0.00844726833            0.000292126229           
       1.862789             0.00847100565            0.000293830839           
       1.865429               0.008327303            0.000292206214           
       1.868070             0.00793272606            0.000284213836           
       1.870710             0.00842895022            0.000293766218           
       1.873351             0.00807305194            0.000289332849           
       1.875991             0.00843942994             0.00029742559           
       1.878631             0.00803751123            0.000287559096           
       1.881272             0.00881139262            0.000300379353           
       1.883912             0.00840756428            0.000296856517           
       1.886553             0.00824338555            0.000290417796           
       1.889193             0.00813725031            0.000291875277           
       1.891833             0.00785337601            0.000283475879           
       1.894474             0.00793461327            0.000287193419           
       1.897114             0.00769952192            0.000280712439           
       1.899754             0.00747292442            0.000279652376           
       1.902395              0.0081298319             0.00029174712           
       1.905035             0.00814516944            0.000290877781           
       1.907676             0.00798086547            0.000288263782           
       1.910316             0.00796148745            0.000289749391           
       1.912956               0.008412953             0.00029783957           
       1.915597             0.00822597368             0.00029144081           
       1.918237             0.00813241189            0.000294177435           
       1.920878             0.00806936871            0.000287848963           
       1.923518              0.0079777137            0.000293813732           
       1.926158             0.00829333043            0.000292685524           
       1.928799             0.00803169943            0.000291859332           
       1.931439             0.00786555115            0.000286510149           
       1.934079             0.00841520242            0.000299353015           
       1.936720             0.00830163499            0.000295576207           
       1.939360             0.00829155461            0.000298243678           
       1.942001             0.00843540267            0.000299662382           
       1.944641             0.00800045013            0.000290576881           
       1.947281             0.00771158595            0.000286661172           
       1.949922             0.00811913974            0.000294506754           
       1.952562             0.00836891465            0.000301575435           
       1.955202             0.00806245019            0.000288565204           
       1.957843             0.00805130792             0.00029752617           
       1.960483             0.00861266141            0.000302815062           
       1.963124             0.00750989683            0.000282555391           
       1.965764             0.00759161693            0.000284190135           
       1.968404             0.00761569105            0.000289730364           
       1.971045             0.00776314438             0.00028518907           
       1.973685             0.00767957448            0.000288943166           
       1.976326             0.00821947875            0.000297624296           
       1.978966             0.00776158842            0.000290584053           
       1.981606             0.00771269101            0.000286603884           
       1.984247             0.00778271837            0.000290412469           
       1.986887             0.00762482134             0.00029013976           
       1.989527              0.0077560775             0.00028652998           
       1.992168             0.00731047237            0.000284888907           
       1.994808              0.0081407399            0.000297134884           
       1.997449             0.00737322535            0.000282366457           
       2.000089             0.00805144436            0.000293329954           
       2.002729             0.00737642155            0.000287198181           
       2.005370             0.00759918432            0.000285961213           
       2.008010             0.00777111207            0.000293017306           
       2.010650             0.00785455583            0.000293743546           
       2.013291             0.00753713725            0.000289384782           
       2.015931             0.00770827718            0.000290557214           
       2.018572             0.00782111713            0.000296563259           
       2.021212             0.00755927268            0.000288940017           
       2.023852              0.0075920629            0.000291087165           
       2.026493             0.00784219578            0.000294546991           
       2.029133             0.00748207631            0.000285509866           
       2.031774             0.00778728664            0.000294099636           
       2.034414              0.0076306124            0.000289388686           
       2.037054             0.00772103732            0.000294768831           
       2.039695             0.00723993436            0.000279815137           
       2.042335             0.00719735778            0.000283739976           
       2.044975             0.00769011391            0.000290948073           
       2.047616              0.0070471856             0.00027971384           
       2.050256             0.00758775064             0.00028682946           
       2.052897             0.00784608975            0.000300309863           
       2.055537             0.00782924523            0.000291808506           
       2.058177             0.00720180912            0.000282343762           
       2.060818             0.00706571554            0.000280502884           
       2.063458             0.00743378291              0.0002881124           
       2.066098             0.00768526623            0.000291645234           
       2.068739             0.00727110601            0.000286635824           
       2.071379             0.00793180216            0.000294954358           
       2.074020             0.00801684175            0.000300591951           
       2.076660             0.00830088714            0.000303797411           
       2.079300             0.00728370718            0.000284534628           
       2.081941             0.00716387382            0.000283899835           
       2.084581              0.0075656258            0.000291967953           
       2.087222             0.00735286944             0.00028802948           
       2.089862             0.00774078881            0.000291846207           
       2.092502             0.00750664104            0.000292620364           
       2.095143             0.00744306517            0.000287214243           
       2.097783             0.00685830047            0.000279896272           
       2.100423             0.00798588232            0.000296238852           
       2.103064             0.00732394332            0.000288594116           
       2.105704             0.00769220512            0.000294629195           
       2.108345             0.00730682087            0.000288472129           
       2.110985             0.00697367684            0.000277860762           
       2.113625              0.0074678591            0.000292067777           
       2.116266             0.00749339084            0.000290401197           
       2.118906             0.00725763538            0.000285588617           
       2.121546             0.00808229454            0.000301138089           
       2.124187             0.00767254892            0.000297463738           
       2.126827             0.00732268838            0.000286045115           
       2.129468             0.00769055332            0.000296201137           
       2.132108             0.00701317085            0.000282270531           
       2.134748             0.00741770378            0.000289203318           
       2.137389             0.00745044602            0.000292268498           
       2.140029             0.00702271192            0.000283065769           
       2.142670             0.00718531146            0.000286791829           
       2.145310             0.00746823705            0.000293500656           
       2.147950             0.00798139877            0.000304589697           
       2.150591              0.0072191414            0.000287023351           
       2.153231             0.00714379946            0.000289742909           
       2.155871              0.0069656797            0.000281975924           
       2.158512             0.00707397865            0.000289279822           
       2.161152             0.00735442374            0.000287590275           
       2.163793             0.00727386159            0.000290664561           
       2.166433             0.00729089274            0.000285958347           
       2.169073             0.00689751973            0.000284630939           
       2.171714             0.00729551328            0.000286768002           
       2.174354             0.00734538463            0.000292143542           
       2.176995             0.00731229562            0.000289066873           
       2.179635             0.00701660509            0.000288520892           
       2.182275             0.00775347819            0.000297272138           
       2.184916             0.00776314806            0.000303744177           
       2.187556             0.00737601634            0.000291307266           
       2.190196             0.00722887238            0.000292919825           
       2.192837             0.00742919996            0.000293699029           
       2.195477             0.00715267623            0.000290961133           
       2.198118             0.00774420292            0.000297164055           
       2.200758             0.00777322837            0.000302343809           
       2.203398             0.00806371973            0.000302834666           
       2.206039              0.0070106794            0.000286685573           
       2.208679             0.00719552516            0.000287597297           
       2.211319             0.00702014811            0.000285407975           
       2.213960             0.00738679295            0.000289653383           
       2.216600              0.0076341617            0.000301401419           
       2.219241             0.00796116918            0.000303314214           
       2.221881             0.00754491618            0.000296817444           
       2.224521             0.00675734895             0.00027992483           
       2.227162             0.00720327712            0.000293553126           
       2.229802             0.00716464916            0.000288012696           
       2.232443             0.00750334929            0.000295900554           
       2.235083             0.00746087312            0.000293292543           
       2.237723             0.00737226038            0.000293779874           
       2.240364             0.00736900211            0.000292220994           
       2.243004             0.00784506312            0.000302423378           
       2.245644             0.00728830007            0.000290821299           
       2.248285             0.00707938191            0.000288483451           
       2.250925             0.00780922303            0.000301572364           
       2.253566             0.00651183322            0.000276057724           
       2.256206             0.00769368642            0.000299166283           
       2.258846             0.00695498354            0.000284444362           
       2.261487              0.0066287238            0.000278172927           
       2.264127             0.00748708245            0.000298432471           
       2.266767             0.00729346032            0.000289787565           
       2.269408              0.0068142034            0.000283431505           
       2.272048             0.00725610167            0.000290678229           
       2.274689             0.00751440363            0.000296969948           
       2.277329             0.00667633735            0.000279548333           
       2.279969             0.00725618837            0.000292318552           
       2.282610             0.00727371123            0.000289817154           
       2.285250             0.00709825759             0.00029080319           
       2.287891             0.00721763612            0.000290279263           
       2.290531             0.00692316763            0.000285698083           
       2.293171             0.00704913818            0.000288271364           
       2.295812             0.00671976692            0.000279962207           
       2.298452             0.00725085443            0.000292677653           
       2.301092             0.00679066397            0.000285036904           
       2.303733             0.00734215224            0.000290522958           
       2.306373             0.00712802705            0.000293256787           
       2.309014             0.00758440541            0.000296669949           
       2.311654              0.0071456158             0.00029069318           
       2.314294             0.00770239501            0.000301147142           
       2.316935             0.00734130744            0.000295165526           
       2.319575             0.00732869016             0.00029380744           
       2.322215             0.00694895217            0.000290171124           
       2.324856             0.00703955625            0.000284722462           
       2.327496             0.00751620777            0.000301414228           
       2.330137             0.00668987892            0.000279118895           
       2.332777             0.00679187809            0.000284314639           
       2.335417             0.00729046336            0.000293681174           
       2.338058             0.00706921311            0.000290347967           
       2.340698             0.00655572887            0.000276851296           
       2.343339             0.00675006026            0.000286285495           
       2.345979             0.00729146737            0.000291607796           
       2.348619             0.00679762977            0.000286876827           
       2.351260             0.00773656053            0.000299543058           
       2.353900             0.00808414013            0.000312683948           
       2.356540             0.00688178693            0.000284527906           
       2.359181             0.00718864832            0.000294690978           
       2.361821             0.00692518213            0.000285716122           
       2.364462             0.00727763165            0.000297791633           
       2.367102             0.00716862331             0.00028700628           
       2.369742             0.00718466912            0.000297624216           
       2.372383              0.0068242258            0.000281606907           
       2.375023              0.0065255485            0.000282550065           
       2.377663             0.00712252313            0.000288918505           
       2.380304             0.00744231975            0.000299430198           
       2.382944              0.0067486611            0.000282345902           
       2.385585             0.00696686327            0.000289586102           
       2.388225               0.006977257            0.000288492642           
       2.390865             0.00707420322            0.000291233836           
       2.393506             0.00709614557            0.000290340933           
       2.396146             0.00656409934            0.000280170027           
       2.398787             0.00702475108            0.000290087676           
       2.401427             0.00694218372            0.000286626802           
       2.404067             0.00686137851            0.000289303047           
       2.406708             0.00714247443            0.000291459635           
       2.409348             0.00651595016             0.00028047735           
       2.411988             0.00683907655            0.000286429933           
       2.414629             0.00725025573            0.000295879581           
       2.417269             0.00706236652            0.000289368616           
       2.419910             0.00684134056            0.000288396146           
       2.422550             0.00655240692            0.000277956113           
       2.425190             0.00672357682            0.000290428253           
       2.427831             0.00706395662            0.000286493231           
       2.430471             0.00634690853            0.000279501735           
       2.433112             0.00685720262            0.000283665386           
       2.435752             0.00646955157            0.000282506043           
       2.438392             0.00715352007            0.000292071266           
       2.441033             0.00678708466            0.000285795985           
       2.443673             0.00736484903            0.000298507054           
       2.446313             0.00703588221            0.000290209663           
       2.448954             0.00668848922            0.000285437332           
       2.451594             0.00713030484            0.000292945691           
       2.454235             0.00758467244            0.000301195193           
       2.456875             0.00742525641            0.000299522632           
       2.459515             0.00727400791            0.000296913483           
       2.462156             0.00765592857            0.000303038245           
       2.464796             0.00779849775            0.000311241755           
       2.467436             0.00768440824            0.000302478358           
       2.470077             0.00825702601            0.000317869412           
       2.472717             0.00818495349             0.00031251912           
       2.475358             0.00772373769            0.000307025834           
       2.477998               0.007922786            0.000309297856           
       2.480638             0.00731102507            0.000297838639           
       2.483279             0.00778035432            0.000308569726           
       2.485919             0.00701304593            0.000290907801           
       2.488560             0.00749638368            0.000302012992           
       2.491200             0.00742236885            0.000300106324           
       2.493840             0.00682627707            0.000286236379           
       2.496481             0.00729453251            0.000299760216           
       2.499121             0.00710762409            0.000291955201           
       2.501761             0.00714165854            0.000297622788           
       2.504402             0.00697188151            0.000288428394           
       2.507042             0.00693708467            0.000292490364           
       2.509683             0.00668836743            0.000284583648           
       2.512323             0.00702842196            0.000292870748           
       2.514963              0.0128515698            0.000396814961           
       2.517604              0.0275684408            0.000578911911           
       2.520244              0.0383851807            0.000683255479           
       2.522884             0.00945957473            0.000338443425           
       2.525525             0.00952211729            0.000342349574           
       2.528165              0.0176056759            0.000463384366           
       2.530806              0.0249446724            0.000549503716           
       2.533446              0.0120955831            0.000386044664           
       2.536086              0.0115147433            0.000373500322           
       2.538727              0.0114670995             0.00037511632           
       2.541367              0.0105422225            0.000358642403           
       2.544008             0.00835624631            0.000319572138           
       2.546648             0.00687450406            0.000290186263           
       2.549288              0.0072615686            0.000298286706           
       2.551929              0.0073236138            0.000300547815           
       2.554569             0.00656773491            0.000282014696           
       2.557209              0.0073051146            0.000300785522           
       2.559850             0.00685645324             0.00028805155           
       2.562490             0.00700704619             0.00029331797           
       2.565131              0.0071370736            0.000296542014           
       2.567771             0.00718703606            0.000296000991           
       2.570411             0.00690412164            0.000293646935           
       2.573052             0.00731973027            0.000298826767           
       2.575692             0.00666967213            0.000286005735           
       2.578332             0.00727473816            0.000297814853           
       2.580973             0.00686364058            0.000291623158           
       2.583613             0.00674036088            0.000286358791           
       2.586254              0.0071361766            0.000297253523           
       2.588894             0.00748061646            0.000302719251           
       2.591534              0.0068556522            0.000290331283           
       2.594175             0.00735910951             0.00030254903           
       2.596815             0.00709295568            0.000294265943           
       2.599456             0.00750354239             0.00030513946           
       2.602096             0.00714786508            0.000296705153           
       2.604736             0.00723778887            0.000299348708           
       2.607377             0.00697833793            0.000292810369           
       2.610017             0.00713364588            0.000295947358           
       2.612657             0.00711635457            0.000297676485           
       2.615298             0.00703096462            0.000292990899           
       2.617938             0.00708099177            0.000296603627           
       2.620579             0.00659820937            0.000283975123           
       2.623219             0.00663555388             0.00028933287           
       2.625859             0.00677966926             0.00028752893           
       2.628500             0.00725290869             0.00030214781           
       2.631140              0.0072145442            0.000296033514           
       2.633780             0.00724312998            0.000300429213           
       2.636421             0.00741329778            0.000301172082           
       2.639061             0.00689251011            0.000293872871           
       2.641702             0.00694857099             0.00029191132           
       2.644342             0.00672459177            0.000289523736           
       2.646982              0.0075368313            0.000306250458           
       2.649623             0.00682190818            0.000293110278           
       2.652263             0.00681684668            0.000290670025           
       2.654904             0.00727986731            0.000302010434           
       2.657544             0.00731013075            0.000300508291           
       2.660184             0.00761000462            0.000307002211           
       2.662825             0.00791390627            0.000313822602           
       2.665465             0.00674310817            0.000290215976           
       2.668105             0.00626321044               0.000279809           
       2.670746             0.00656989283             0.00028415281           
       2.673386             0.00723573489            0.000301818568           
       2.676027             0.00732973916            0.000301190421           
       2.678667             0.00740124503            0.000304229419           
       2.681307             0.00710056389            0.000295642369           
       2.683948             0.00745951215            0.000306032316           
       2.686588             0.00732727456            0.000300524277           
       2.689229             0.00732792492             0.00030323489           
       2.691869             0.00790709161             0.00031184612           
       2.694509             0.00737913176            0.000305386593           
       2.697150             0.00768353141            0.000306648155           
       2.699790             0.00742813205            0.000307771628           
       2.702430             0.00664588817            0.000285533942           
       2.705071             0.00641938729              0.0002844667           
       2.707711             0.00682662233            0.000290442057           
       2.710352             0.00666013717            0.000288511468           
       2.712992             0.00652615342            0.000286523241           
       2.715632             0.00698937248             0.00029483081           
       2.718273             0.00677476165            0.000291232721           
       2.720913             0.00707105032            0.000298029736           
       2.723553             0.00615812121            0.000277159651           
       2.726194             0.00680861932            0.000292836298           
       2.728834             0.00673811448            0.000288726561           
       2.731475             0.00686838788            0.000294051957           
       2.734115             0.00704758039            0.000296088198           
       2.736755             0.00713909532            0.000299974339           
       2.739396             0.00672984676             0.00028970932           
       2.742036              0.0069609439            0.000296652609           
       2.744677              0.0069768393            0.000297425337           
       2.747317             0.00751645048             0.00030721327           
       2.749957             0.00749881341            0.000309078703           
       2.752598             0.00685542806            0.000296412122           
       2.755238             0.00700036187            0.000299394032           
       2.757878             0.00696481376            0.000297782626           
       2.760519             0.00716490121            0.000298840742           
       2.763159             0.00703109855            0.000300850722           
       2.765800             0.00752868273            0.000306040635           
       2.768440             0.00695358964            0.000297994282           
       2.771080              0.0070832333            0.000298224867           
       2.773721             0.00664316709            0.000292355409           
       2.776361             0.00645064748             0.00028499386           
       2.779001             0.00688007507            0.000297421075           
       2.781642             0.00633724325            0.000283499164           
       2.784282             0.00704350233            0.000298983627           
       2.786923             0.00639530574            0.000282727561           
       2.789563             0.00667011358            0.000289318131           
       2.792203              0.0069064889            0.000296273917           
       2.794844             0.00673427121            0.000291225524           
       2.797484             0.00661774293             0.00028910165           
       2.800125             0.00706863747            0.000298402109           
       2.802765             0.00712138364            0.000305065779           
       2.805405             0.00659396603            0.000289314314           
       2.808046             0.00646872097            0.000290947416           
       2.810686             0.00691042503            0.000297512504           
       2.813326             0.00674865071            0.000297647009           
       2.815967              0.0070179745            0.000301615283           
       2.818607             0.00699561734            0.000304144717           
       2.821248             0.00657559894            0.000291196189           
       2.823888              0.0062396196            0.000288228176           
       2.826528             0.00632684397            0.000288504165           
       2.829169             0.00655936542            0.000292460916           
       2.831809             0.00614843198            0.000283399743           
       2.834449              0.0068115159            0.000293083705           
       2.837090             0.00640981606            0.000286021259           
       2.839730              0.0071133758            0.000299170156           
       2.842371             0.00733425568            0.000305896033           
       2.845011             0.00660299552            0.000289598722           
       2.847651             0.00687939175            0.000296140631           
       2.850292             0.00661006584            0.000288636489           
       2.852932             0.00623598813            0.000280853003           
       2.855573             0.00726005953            0.000305699056           
       2.858213             0.00672124465            0.000290836168           
       2.860853             0.00679214798            0.000294554513           
       2.863494             0.00707988755            0.000301453105           
       2.866134             0.00697135559            0.000303329448           
       2.868774             0.00686538804            0.000296407441           
       2.871415             0.00686434809            0.000299318445           
       2.874055             0.00684902715            0.000300465229           
       2.876696             0.00629907562            0.000285555036           
       2.879336             0.00667551097            0.000295915019           
       2.881976             0.00694463446            0.000301572587           
       2.884617             0.00684682129            0.000297777831           
       2.887257             0.00691930953            0.000297262766           
       2.889897             0.00697490792             0.00030187558           
       2.892538             0.00635546398             0.00028616118           
       2.895178             0.00675665023            0.000292045993           
       2.897819             0.00642813469            0.000287787478           
       2.900459             0.00664858278            0.000290257344           
       2.903099             0.00707295273            0.000300940597           
       2.905740             0.00686816159            0.000293241629           
       2.908380             0.00686657721            0.000297116499           
       2.911021             0.00710958324            0.000302902945           
       2.913661             0.00676897648            0.000292305581           
       2.916301             0.00764448593            0.000315053605           
       2.918942             0.00700229767             0.00029698107           
       2.921582             0.00648094919            0.000288709147           
       2.924222             0.00651591699            0.000287807889           
       2.926863             0.00699264422            0.000298942514           
       2.929503             0.00675557608            0.000297093176           
       2.932144             0.00692889459            0.000295945365           
       2.934784              0.0075351555            0.000309932713           
       2.937424             0.00729060808            0.000305425797           
       2.940065             0.00691982819            0.000297800083           
       2.942705             0.00669647938            0.000293844827           
       2.945346             0.00723184284            0.000303561384           
       2.947986             0.00672580328            0.000293771862           
       2.950626             0.00790164701             0.00031939655           
       2.953267             0.00958047583            0.000347957807           
       2.955907              0.0098171836            0.000356886935           
       2.958547             0.00818465022            0.000322523304           
       2.961188             0.00735296443            0.000308366453           
       2.963828             0.00748204396            0.000309298526           
       2.966469              0.0065777016            0.000290076775           
       2.969109             0.00632029255            0.000285798484           
       2.971749             0.00774929635            0.000315531836           
       2.974390             0.00832908924            0.000328020424           
       2.977030              0.0101003842            0.000360531953           
       2.979670             0.00931874185            0.000344068113           
       2.982311              0.0078729073             0.00031853441           
       2.984951             0.00736546879            0.000308894701           
       2.987592             0.00766105263            0.000313968558           
       2.990232             0.00710354838            0.000303100863           
       2.992872             0.00758878265            0.000310831054           
       2.995513             0.00873083263            0.000336019336           
       2.998153             0.00869802641            0.000337551221           
       3.000794              0.0140534304             0.00042281893           
       3.003434              0.0366067828            0.000689643812           
       3.006074              0.0420780136            0.000741769683           
       3.008715              0.0228214774            0.000550437277           
       3.011355              0.0204597411             0.00052659802           
       3.013995              0.0186082776            0.000499750504           
       3.016636              0.0296428206              0.0006319365           
       3.019276               0.131900374             0.00136487584           
       3.021917               0.361676207             0.00222178135           
       3.024557                0.13514681             0.00136898174           
       3.027197              0.0975105952             0.00118235883           
       3.029838              0.0906033247             0.00113426289           
       3.032478              0.0742066499             0.00103264359           
       3.035118               0.047346247            0.000829089798           
       3.037759              0.0910887568             0.00115200774           
       3.040399               0.105647371             0.00125485525           
       3.043040              0.0490892293            0.000863684567           
       3.045680              0.0607473733            0.000945987011           
       3.048320              0.0740718639             0.00106135765           
       3.050961               0.120360036             0.00136649939           
       3.053601               0.132650391              0.0014282285           
       3.056242               0.062711472            0.000988320171           
       3.058882               0.133767737             0.00146491607           
       3.061522               0.292933003             0.00215279037           
       3.064163              0.0541412222            0.000927195152           
       3.066803               0.018462197            0.000551907929           
       3.069443              0.0255471339            0.000644902231           
       3.072084              0.0905076341             0.00122465644           
       3.074724               0.057882473            0.000985149514           
       3.077365              0.0125133669             0.00045772502           
       3.080005             0.00869414682            0.000385762985           
       3.082645             0.00887482897            0.000391735324           
       3.085286             0.00833409151            0.000379682931           
       3.087926             0.00786981572            0.000371303179           
       3.090566             0.00707485122             0.00035567691           
       3.093207             0.00817610618            0.000378227031           
       3.095847             0.00770485713             0.00037486148           
       3.098488             0.00796469563            0.000380438906           
       3.101128             0.00764209414            0.000374684625           
       3.103768             0.00845317514            0.000396286667           
       3.106409             0.00943381339            0.000421446403           
       3.109049             0.00952190833            0.000426701141           
       3.111690              0.0129347823            0.000495368058           
       3.114330              0.0137366869            0.000515034811           
       3.116970              0.0156367973            0.000557146633           
       3.119611              0.0170392949            0.000577811656           
       3.122251              0.0120210041            0.000489297598           
       3.124891             0.00957648836            0.000438842985           
       3.127532             0.00811513426            0.000411251544           
       3.130172             0.00822192705            0.000405433079           
       3.132813             0.00868083958            0.000425072915           
       3.135453             0.00797276306            0.000415961232           
       3.138093             0.00713169348            0.000384074905           
       3.140734             0.00636344358            0.000369550731           
       3.143374             0.00596208621            0.000363174871           
       3.146014             0.00594137414            0.000359911789           
       3.148655             0.00574735363              0.0003567734           
       3.151295             0.00626941095            0.000375574316           
       3.153936              0.0068122927            0.000397277172           
       3.156576             0.00741973337             0.00040985177           
       3.159216             0.00634464385            0.000382097196           
       3.161857              0.0060724194            0.000378395802           
       3.164497             0.00567911034            0.000373652262           
       3.167138             0.00596656626            0.000373803401           
       3.169778             0.00588682616            0.000378001624           
       3.172418             0.00605226845            0.000385516094           
       3.175059             0.00627695125            0.000397744763           
       3.177699             0.00571893674            0.000378154234           
       3.180339             0.00554895477             0.00037582149           
       3.182980             0.00621593593             0.00040313728           
       3.185620             0.00629980622            0.000410282865           
       3.188261             0.00566512168            0.000383969697           
       3.190901             0.00646147139            0.000416388795           
       3.193541             0.00563912803            0.000390272573           
       3.196182             0.00526028545            0.000384777911           
       3.198822             0.00595633431             0.00040448099           
       3.201463              0.0065291934            0.000428961693           
       3.204103             0.00596195861            0.000415363389           
       3.206743             0.00573152587            0.000410700509           
       3.209384             0.00577222346             0.00041031875           
       3.212024             0.00554133859            0.000403456956           
       3.214664             0.00576442968            0.000419341585           
       3.217305             0.00584171819            0.000431992248           
       3.219945             0.00599791356            0.000434069127           
       3.222586             0.00549553654             0.00041784452           
       3.225226             0.00575114495            0.000437081251           
       3.227866             0.00670931014            0.000475741262           
       3.230507             0.00655791872            0.000475955747           
       3.233147             0.00573669964            0.000438574059           
       3.235787             0.00567035854              0.0004361493           
       3.238428             0.00538895631            0.000432698568           
       3.241068             0.00531297528            0.000438349389           
       3.243709             0.00586033135            0.000457820629           
       3.246349             0.00546641866            0.000439692438           
       3.248989             0.00592170723            0.000468097079           
       3.251630              0.0053765011            0.000448001523           
       3.254270             0.00565120624            0.000473422383           
       3.256911             0.00617707884            0.000482557971           
       3.259551             0.00558869878            0.000469143291           
       3.262191             0.00661354731            0.000515044279           
       3.264832             0.00555058275            0.000476269348           
       3.267472             0.00517901602            0.000466576266           
       3.270112             0.00541372541            0.000478389566           
       3.272753             0.00661454598             0.00053528883           
       3.275393             0.00425697074             0.00043163653           
       3.278034             0.00497288841            0.000476025631           
       3.280674             0.00485991135            0.000471953017           
       3.283314             0.00544279391            0.000502213779           
       3.285955             0.00615903479            0.000544271675           
       3.288595             0.00542071223             0.00051630434           
       3.291235             0.00562870105            0.000529206783           
       3.293876             0.00515084419            0.000509242275           
       3.296516             0.00639110448            0.000578818126           
       3.299157             0.00611425734            0.000574699763           
       3.301797             0.00557339989            0.000548925976           
       3.304437             0.00456172334            0.000505921886           
       3.307078              0.0053797936             0.00055475398           
       3.309718             0.00485512314             0.00053226936           
       3.312359             0.00529765091            0.000567232017           
       3.314999             0.00645408191            0.000632657318           
       3.317639             0.00547435096            0.000588937344           
       3.320280             0.00543872713            0.000595590253           
       3.322920             0.00494768142            0.000576566652           
       3.325560             0.00483117283            0.000580739149           
       3.328201             0.00460373111            0.000569300793           
       3.330841             0.00512822773            0.000615469392           
       3.333482             0.00586157855            0.000666361142           
       3.336122             0.00562806854            0.000667144863           
       3.338762              0.0053381263            0.000655675621           
       3.341403             0.00471871156             0.00062218091           
       3.344043             0.00465079432             0.00064126253           
       3.346683             0.00536506429            0.000695732686           
       3.349324             0.00569720545            0.000728043409           
       3.351964             0.00490456879            0.000697218518           
       3.354605             0.00482205865            0.000699157454           
       3.357245             0.00550703213            0.000773429427           
       3.359885             0.00528719945             0.00075810752           
       3.362526             0.00545460376            0.000809387461           
       3.365166             0.00521555164            0.000781681307           
       3.367807             0.00597331795            0.000895488128           
       3.370447             0.00547126982            0.000857362392           
       3.373087             0.00489379061            0.000855774789           
       3.375728             0.00626360462            0.000960845456           
       3.378368              0.0047583228            0.000904947065           
       3.381008             0.00619672091             0.00102370254           
       3.383649              0.0052747291             0.00102214256           
       3.386289             0.00447673277            0.000942043702           
       3.388930             0.00303873133            0.000852386633           
       3.391570             0.00448884575             0.00103642979           
       3.394210             0.00321289389            0.000939515721           
       3.396851             0.00410736654             0.00115069618           
       3.399491             0.00652708101             0.00147689583           
       3.402131             0.00412988744             0.00139061616           
       3.404772             0.00407860006             0.00138254672           
       3.407412             0.00558662238              0.0020078285           
       3.410053              0.0030224509             0.00153779475           
       3.412693             0.00144219417             0.00150289156           
       3.415333             0.00430126341             0.00318006516           
