################################################################################
# EDF_DataBlockID                     0.Image.Psd
# EDF_BinarySize                      2105344
# EDF_HeaderSize                      2560
# ByteOrder                           LowByteFirst
# DataType                            FloatValue
# Dim_1                               512
# Dim_2                               1028
# Image                               0
# HeaderID                            EH:000000:000000:000000
# Size                                2105344
# Center_1                            304.9000
# Center_2                            588.7000
# Comment                             Xenocs_Cell_Window - front_window_open_only
# DDummy                              0.6
# Date                                2025-10-19T09:57:55
# Delta                               21.910000
# Dummy                               -1.5
# ExposureTime                        360
# Gamma                               15.360000
# Intensity1                          8.95799e-10
# PSize_1                             7.5e-05
# PSize_2                             7.5e-05
# Pressure                            0.0330496
# SampleDistance                      0.115750
# SampleEnvKind                       large
# SampleEnvPN                         ElectroChemical cell
# SampleEnvSN                         1141
# Thickness                           0
# Wavelength                          1.541891e-10
# Wavelength                          1.54189e-10
# aux                                 0
# aux_dial                            0.002375
# beamx                               588.429
# beamx_dial                          588.429
# beamz                               657.855
# beamz_dial                          657.855
# det0x                               -0.000396875
# det0x_dial                          6.36905
# det0xvd                             -0.0005
# det0xvd_dial                        -0.0005
# det0y                               450.002
# det0y_dial                          481.635
# det0z                               0
# det0z_dial                          1.2295
# det0zvd                             0
# det0zvd_dial                        0
# mag                                 1.818
# mag_dial                            1.818
# om                                  0.2499
# om_dial                             -0.610199
# phi                                 -0.0120535
# phi_dial                            0
# ry                                  0.599993
# ry_dial                             0.599993
# s1bot                               0.8
# s1bot_dial                          -1.66094
# s1hl                                0.8
# s1hl_dial                           -0.608437
# s1hr                                0.8
# s1hr_dial                           0.970938
# s1top                               0.8
# s1top_dial                          -0.461562
# s2bot                               0.45
# s2bot_dial                          1.36109
# s2hl                                0.45
# s2hl_dial                           -0.83375
# s2hr                                0.45
# s2hr_dial                           -0.118594
# s2top                               0.45
# s2top_dial                          1.44734
# w2theta                             32
# w2theta_dial                        32
# waxsch                              19.2605
# waxsch_dial                         -32.7238
# waxsh                               137.085
# waxsh_dial                          -43.5335
# waxsth                              26.0607
# waxsth_dial                         -19.4068
# waxsz                               67.0407
# waxsz_dial                          -23.7962
# wind                                65.9854
# wind_dial                           66.0041
# wpsi                                124
# wpsi_dial                           124
# wstod                               115
# wstod_dial                          115
# x                                   0
# x_dial                              1.00969
# z                                   0
# z_dial                              13.3172
# CountCutoff                         6807993
# DetectorModel                       Dectris EIGER2 Si 500K, S/N E-01-0554
# ThresholdSetting                    4023.88989258
# Saturation                          0
# FlatField                           Corrected
# BackgroundReductionExtra            0.02
# BackgroundCorrectionConstant        0.0026712
# Detector                            0
# Monitor                             0
# Pil_Roi0                            0
# SumForIntensity1                    3.22488e+08
# TransmittedFlux                     895799
# det                                 0
# mon                                 0
# pilai0                              3.22488e+08
# pilai1                              699379
# pilct0                              5.57971e+08
# pilct1                              699379
# pilroi0                             0
# pilroi1                             0
# sec                                 1
# title                               20251017__1_00362.edf
# usaxs0                              0
# Operation                           Azimuthal average I(q)
# Error_model                         ErrorModel.poisson
# Geometrical_correction              True
# Transmission_correction             True
# Thickness_correction                False
# Binning mode                        Uniform
# Binning factor                      1.0
# Psi                                 0.0
# Omega                               0.2499
# MaskInvalidPixels                   True
# DetectorEdge                        3
# MaskFiles                           ['20251017__1_00233_mask.edf']
################################################################################
    q(A⁻¹)                Intensity(a.u.)            Sigma_I(a.u.)            
       0.690460           -2.26728252e-05                         0           
       0.693100             0.00784235111             0.00364762764           
       0.695741             0.00688542434             0.00288747899           
       0.698381              0.0121961715             0.00359427586           
       0.701021             0.00621135034             0.00209342556           
       0.703662             0.00469215779             0.00168419802           
       0.706302             0.00439321045             0.00157388757           
       0.708942             0.00607303428             0.00164372626           
       0.711583             0.00789402084             0.00187368343           
       0.714223             0.00696773828             0.00153397125           
       0.716864             0.00755107682             0.00162954912           
       0.719504             0.00507949768             0.00123694464           
       0.722144             0.00772768157             0.00147350014           
       0.724785             0.00700259104             0.00137967838           
       0.727425             0.00693266776               0.001273317           
       0.730065             0.00584908721              0.0012034331           
       0.732706             0.00714923819             0.00119642542           
       0.735346             0.00600098662             0.00118402103           
       0.737987             0.00536518834            0.000969010579           
       0.740627             0.00563006043             0.00108742762           
       0.743267              0.0074216943             0.00107394215           
       0.745908              0.0113369264             0.00142252587           
       0.748548             0.00708589804             0.00104891469           
       0.751189              0.0061933756            0.000971394074           
       0.753829              0.0066287851             0.00101402536           
       0.756469             0.00748180894             0.00101324666           
       0.759110             0.00479987001            0.000839441058           
       0.761750             0.00693748396            0.000923622798           
       0.764390             0.00557751606            0.000888983768           
       0.767031              0.0062104346            0.000848842793           
       0.769671             0.00661029194            0.000928754107           
       0.772312             0.00766002224            0.000911069829           
       0.774952             0.00518336475            0.000803449987           
       0.777592             0.00495337461            0.000718387272           
       0.780233             0.00599216192            0.000832964825           
       0.782873             0.00604534896            0.000765075605           
       0.785513             0.00574603259            0.000793454646           
       0.788154             0.00699051554            0.000803854964           
       0.790794             0.00647746037            0.000800854784           
       0.793435             0.00618479543            0.000751634999           
       0.796075             0.00779886902            0.000848493707           
       0.798715             0.00733297266            0.000818062412           
       0.801356             0.00566528673            0.000699804162           
       0.803996             0.00718472526            0.000800674577           
       0.806637             0.00639817118            0.000714219992           
       0.809277             0.00588947698            0.000716872348           
       0.811917             0.00643147858            0.000708897456           
       0.814558             0.00596150794            0.000699182936           
       0.817198             0.00727412529            0.000736417711           
       0.819838             0.00701817666            0.000754527143           
       0.822479             0.00760718669            0.000723928294           
       0.825119             0.00702914442             0.00074755454           
       0.827760             0.00665001087            0.000673746275           
       0.830400             0.00709214509            0.000733095822           
       0.833040             0.00531242098            0.000592150937           
       0.835681             0.00699067261            0.000711345802           
       0.838321             0.00738000651             0.00068409575           
       0.840961             0.00778754215            0.000734524436           
       0.843602             0.00585922333            0.000600148442           
       0.846242             0.00700443864            0.000679351064           
       0.848883             0.00583115862            0.000602972625           
       0.851523             0.00747987228            0.000688033924           
       0.854163             0.00615231252            0.000616746838           
       0.856804             0.00665295608              0.0006249397           
       0.859444             0.00686961342            0.000639599726           
       0.862085             0.00764234267            0.000664800839           
       0.864725             0.00620938585            0.000597042501           
       0.867365             0.00664585271            0.000613246252           
       0.870006             0.00735790338            0.000654265539           
       0.872646             0.00592392023            0.000561509548           
       0.875286             0.00655973972            0.000611008311           
       0.877927             0.00705300194            0.000606611908           
       0.880567             0.00640358442            0.000589302053           
       0.883208             0.00651164037            0.000577091213           
       0.885848             0.00673590261            0.000602166048           
       0.888488             0.00703267437            0.000585028618           
       0.891129             0.00753960337            0.000636748154           
       0.893769             0.00669705028            0.000567258758           
       0.896410             0.00717573331            0.000605268973           
       0.899050             0.00685049819            0.000570218912           
       0.901690             0.00722045471            0.000597633337           
       0.904331             0.00687682547            0.000562876427           
       0.906971             0.00596190747            0.000541180309           
       0.909611             0.00841840413            0.000617247626           
       0.912252             0.00726136719            0.000583196335           
       0.914892             0.00591227544            0.000512909861           
       0.917533             0.00582354183            0.000520532475           
       0.920173             0.00699428478            0.000547213862           
       0.922813             0.00626552542            0.000541237516           
       0.925454              0.0076677617            0.000568246667           
       0.928094             0.00707128268            0.000557410413           
       0.930734             0.00635086571            0.000515646438           
       0.933375             0.00672202032            0.000541808958           
       0.936015             0.00894700531            0.000598086308           
       0.938656             0.00703386947            0.000552544433           
       0.941296             0.00678944519            0.000523314657           
       0.943936             0.00664648178             0.00052710071           
       0.946577             0.00693894247            0.000518678801           
       0.949217             0.00637096361            0.000514549824           
       0.951858             0.00680744643             0.00050283389           
       0.954498             0.00666691307            0.000523514238           
       0.957138             0.00669078943             0.00050407506           
       0.959779             0.00790170413            0.000559775352           
       0.962419             0.00635477817            0.000483273061           
       0.965059             0.00735227523            0.000534585541           
       0.967700             0.00763422454            0.000527123684           
       0.970340             0.00830744755            0.000565326175           
       0.972981             0.00738131322            0.000514514143           
       0.975621             0.00662088827            0.000497494284           
       0.978261             0.00762804836            0.000509497594           
       0.980902             0.00769229795             0.00053600056           
       0.983542             0.00715192283            0.000501782395           
       0.986182             0.00730924729            0.000513951742           
       0.988823             0.00724023173            0.000495015085           
       0.991463              0.0074229815            0.000513195172           
       0.994104             0.00834894877            0.000525917889           
       0.996744             0.00851231356            0.000548259245           
       0.999384             0.00742444069            0.000494649941           
       1.002025             0.00766006178            0.000516427027           
       1.004665             0.00762213243            0.000494045417           
       1.007306             0.00734883711             0.00050136245           
       1.009946             0.00781220202            0.000497041615           
       1.012586             0.00705625575            0.000485970113           
       1.015227             0.00721283543             0.00047646005           
       1.017867             0.00717264209            0.000488746326           
       1.020507             0.00782899111            0.000491396268           
       1.023148              0.0071750648             0.00047610863           
       1.025788             0.00802661695            0.000498413065           
       1.028429             0.00832199665            0.000518595372           
       1.031069             0.00813770638            0.000494077721           
       1.033709             0.00781520604            0.000493486342           
       1.036350             0.00795364179            0.000484783591           
       1.038990             0.00728472767            0.000475404322           
       1.041630             0.00810875217            0.000491922717           
       1.044271             0.00731660484            0.000467329749           
       1.046911              0.0075989447            0.000467412426           
       1.049552             0.00714156027            0.000469456866           
       1.052192             0.00714377446            0.000448415572           
       1.054832             0.00758322746             0.00047098659           
       1.057473             0.00844368702             0.00049069817           
       1.060113             0.00749019526            0.000467167377           
       1.062754             0.00752657283            0.000463121007           
       1.065394             0.00785838979            0.000468240602           
       1.068034              0.0084953728            0.000484963292           
       1.070675             0.00651193155            0.000432060825           
       1.073315             0.00722070946            0.000441060164           
       1.075955             0.00802799495            0.000472862373           
       1.078596             0.00817427572            0.000476207873           
       1.081236             0.00751017836            0.000449683871           
       1.083877             0.00808108234             0.00048103446           
       1.086517             0.00784827897            0.000463331135           
       1.089157             0.00807092007            0.000473301962           
       1.091798             0.00792248562            0.000458994113           
       1.094438             0.00802412688            0.000469270517           
       1.097078             0.00821193744            0.000462531167           
       1.099719             0.00786729737            0.000464324127           
       1.102359             0.00860859993            0.000460120022           
       1.105000             0.00826523114             0.00046860645           
       1.107640             0.00815542863            0.000450309734           
       1.110280             0.00834669733            0.000464681574           
       1.112921             0.00870151498            0.000465870625           
       1.115561             0.00739696375            0.000434982152           
       1.118202             0.00856025214            0.000454280032           
       1.120842             0.00807797523            0.000455201939           
       1.123482             0.00814079953            0.000444149877           
       1.126123             0.00832863128            0.000452048239           
       1.128763             0.00845062806            0.000453088481           
       1.131403             0.00822202636            0.000446223367           
       1.134044             0.00786574955            0.000435690894           
       1.136684                  0.007889            0.000439613474           
       1.139325             0.00841367365            0.000441205285           
       1.141965             0.00825317431             0.00044269178           
       1.144605             0.00886114689            0.000461401962           
       1.147246             0.00826801314            0.000437251328           
       1.149886             0.00813783217            0.000436880482           
       1.152527             0.00805793865            0.000435166256           
       1.155167             0.00816684745            0.000431937524           
       1.157807              0.0082726319            0.000435025438           
       1.160448             0.00880684408            0.000454993114           
       1.163088             0.00801939068            0.000418067764           
       1.165728             0.00897564153            0.000460522081           
       1.168369             0.00826973583            0.000426261323           
       1.171009             0.00901586166            0.000448765601           
       1.173650             0.00802589847            0.000420358344           
       1.176290             0.00883627782            0.000446245383           
       1.178930             0.00865442527            0.000429214885           
       1.181571             0.00903801592            0.000452949952           
       1.184211             0.00968493163            0.000454719333           
       1.186851             0.00923254214            0.000448065878           
       1.189492             0.00921430511             0.00045010878           
       1.192132             0.00909830745            0.000440642505           
       1.194773             0.00916515069            0.000439590022           
       1.197413             0.00893587276            0.000437597518           
       1.200053             0.00897308044            0.000435748642           
       1.202694              0.0119144857            0.000498330876           
       1.205334             0.00962967376            0.000452905582           
       1.207975             0.00911434879            0.000431987147           
       1.210615             0.00856679017            0.000427666246           
       1.213255             0.00837245779            0.000411602779           
       1.215896             0.00957328939            0.000448474182           
       1.218536             0.00909467873            0.000424529755           
       1.221176             0.00917189366            0.000436504041           
       1.223817             0.00865480344            0.000415185431           
       1.226457             0.00967286093            0.000444500746           
       1.229098             0.00992402475            0.000443404238           
       1.231738             0.00949900274            0.000439914022           
       1.234378             0.00934566401            0.000427870482           
       1.237019             0.00801142766            0.000399347651           
       1.239659              0.0091458586            0.000426455163           
       1.242299             0.00941328548            0.000430433237           
       1.244940             0.00974605704            0.000433247708           
       1.247580             0.00916048434            0.000421885309           
       1.250221             0.00896176521            0.000424095723           
       1.252861             0.00946726169            0.000419652591           
       1.255501              0.0104751917            0.000453890117           
       1.258142             0.00967502275            0.000427586274           
       1.260782             0.00867955275            0.000409566645           
       1.263423             0.00962157784            0.000422676914           
       1.266063             0.00982202504            0.000435016817           
       1.268703             0.00983360602            0.000424306489           
       1.271344             0.00949011474            0.000425908598           
       1.273984              0.0107002491            0.000445189056           
       1.276624              0.0109399349            0.000447401011           
       1.279265             0.00988586341             0.00042623005           
       1.281905             0.00924020745            0.000414616246           
       1.284546              0.0108849246            0.000445089805           
       1.287186              0.0102531444            0.000432394831           
       1.289826              0.0101402937            0.000432238568           
       1.292467              0.0109173776            0.000440490025           
       1.295107             0.00994342396              0.0004277926           
       1.297747             0.00993096325            0.000416310706           
       1.300388              0.0100799827            0.000430193006           
       1.303028             0.00966554001            0.000410544193           
       1.305669             0.00996976376            0.000422342146           
       1.308309             0.00960210317            0.000408249363           
       1.310949              0.0103322576             0.00042876519           
       1.313590              0.0100396412            0.000416109277           
       1.316230              0.0105340833            0.000433904821           
       1.318871             0.00989548259            0.000411474355           
       1.321511              0.0103047328            0.000422001119           
       1.324151              0.0103028044             0.00042362899           
       1.326792             0.00977844377            0.000409364769           
       1.329432              0.0103505085            0.000423365979           
       1.332072              0.0100225533            0.000409461071           
       1.334713              0.0102597737            0.000419416261           
       1.337353              0.0102416288            0.000412599324           
       1.339994              0.0101347541            0.000416287011           
       1.342634              0.0110581672             0.00042504907           
       1.345274              0.0109342898            0.000428187166           
       1.347915              0.0108975513            0.000428603667           
       1.350555             0.00998196286            0.000408600955           
       1.353195              0.0105985394             0.00041297683           
       1.355836               0.010537477            0.000419554969           
       1.358476              0.0113957472            0.000435079669           
       1.361117              0.0103586442            0.000404403759           
       1.363757               0.010292352            0.000416466928           
       1.366397              0.0105500979             0.00040851885           
       1.369038              0.0102149384            0.000410450036           
       1.371678              0.0105348953            0.000408411961           
       1.374319              0.0109805845            0.000420268576           
       1.376959              0.0112164482            0.000418910677           
       1.379599              0.0106230131            0.000415624771           
       1.382240              0.0112550442            0.000419684584           
       1.384880              0.0107865602            0.000415901686           
       1.387520              0.0106208773            0.000407870015           
       1.390161              0.0103095418            0.000400755289           
       1.392801              0.0107410575            0.000411494368           
       1.395442              0.0101613969            0.000396089847           
       1.398082              0.0112326526            0.000417870614           
       1.400722              0.0105060011            0.000402302729           
       1.403363              0.0106513268            0.000408834644           
       1.406003               0.011036175            0.000405936255           
       1.408644              0.0102072971            0.000398590555           
       1.411284              0.0111484545            0.000414276838           
       1.413924              0.0106858269            0.000400587727           
       1.416565              0.0103140771            0.000393095368           
       1.419205               0.010133727            0.000393481595           
       1.421845              0.0103205806            0.000392100537           
       1.424486              0.0112093761            0.000410439518           
       1.427126              0.0107378631            0.000401460923           
       1.429767              0.0103486306             0.00038804427           
       1.432407              0.0104451469            0.000399670477           
       1.435047              0.0105424627            0.000389461833           
       1.437688              0.0105464253            0.000398161228           
       1.440328              0.0106361005            0.000392101813           
       1.442968              0.0103171551             0.00039152392           
       1.445609              0.0104031747            0.000386686098           
       1.448249               0.010408405            0.000389284179           
       1.450890              0.0106035262            0.000390113217           
       1.453530              0.0108956517            0.000398379637           
       1.456170              0.0104512817            0.000389292868           
       1.458811              0.0103778451            0.000384836529           
       1.461451              0.0106634287            0.000392963221           
       1.464092              0.0095874007            0.000369361579           
       1.466732              0.0097959942            0.000371068053           
       1.469372              0.0105115023            0.000383199265           
       1.472013              0.0106684188             0.00039295565           
       1.474653              0.0109364131             0.00038803675           
       1.477293              0.0109933027            0.000395593213           
       1.479934              0.0104663245            0.000381955139           
       1.482574              0.0101826352            0.000375813349           
       1.485215             0.00969195021            0.000367590742           
       1.487855             0.00960321881            0.000365828609           
       1.490495              0.0109740494            0.000390226669           
       1.493136              0.0108311346            0.000382593334           
       1.495776             0.00994389524            0.000372979708           
       1.498416             0.00983320079            0.000363692417           
       1.501057              0.0111381824            0.000390403304           
       1.503697              0.0103809952            0.000373275942           
       1.506338             0.00999595614            0.000368981701           
       1.508978              0.0102019391            0.000370563123           
       1.511618              0.0100586421            0.000367765493           
       1.514259             0.00981303399             0.00036390381           
       1.516899               0.010209991            0.000371364022           
       1.519540              0.0100722667            0.000366803921           
       1.522180             0.00983461459            0.000357924375           
       1.524820             0.00989691244            0.000366308285           
       1.527461              0.0105251612            0.000369399226           
       1.530101             0.00987229683            0.000361458095           
       1.532741              0.0100828743            0.000363562025           
       1.535382             0.00961801576            0.000355864318           
       1.538022              0.0102217056            0.000363616716           
       1.540663             0.00940765101            0.000352134032           
       1.543303              0.0101591126            0.000361373991           
       1.545943             0.00988883381            0.000358532628           
       1.548584             0.00969182418            0.000356833327           
       1.551224              0.0105977604               0.000363572           
       1.553864             0.00983857663            0.000359458793           
       1.556505              0.0106029782            0.000367421224           
       1.559145             0.00961277116            0.000350652913           
       1.561786              0.0100361577             0.00035666866           
       1.564426             0.00936057426            0.000344143844           
       1.567066              0.0097514658             0.00034851437           
       1.569707             0.00975007095            0.000353534686           
       1.572347             0.00933273259            0.000341398062           
       1.574988             0.00955926439            0.000344149693           
       1.577628                0.01017713            0.000363092609           
       1.580268             0.00963839195             0.00034115749           
       1.582909             0.00979627348            0.000350373386           
       1.585549             0.00891613521            0.000331139722           
       1.588189             0.00959839651            0.000347412986           
       1.590830             0.00908206349            0.000332138571           
       1.593470             0.00896211833            0.000332632403           
       1.596111             0.00957035707            0.000340764506           
       1.598751             0.00892209807            0.000332384623           
       1.601391             0.00922692541            0.000335853851           
       1.604032             0.00918952647            0.000332373537           
       1.606672              0.0090627557             0.00033671631           
       1.609312             0.00897568975            0.000325124179           
       1.611953             0.00866961356            0.000324163417           
       1.614593             0.00923643286            0.000332047734           
       1.617234             0.00858602647            0.000321958052           
       1.619874             0.00870075948            0.000320289226           
       1.622514             0.00872068808            0.000323491745           
       1.625155             0.00857312851            0.000319950015           
       1.627795             0.00832239013            0.000312050992           
       1.630436             0.00860160213            0.000320431123           
       1.633076             0.00877576163            0.000322014406           
       1.635716              0.0090085355            0.000325688162           
       1.638357             0.00784609943            0.000302658351           
       1.640997             0.00879083138            0.000322867154           
       1.643637             0.00876567244            0.000316418062           
       1.646278             0.00884308681            0.000322569352           
       1.648918             0.00862114883            0.000314389749           
       1.651559             0.00836269417            0.000313534508           
       1.654199             0.00883637657            0.000317874117           
       1.656839             0.00827404431            0.000307510559           
       1.659480             0.00817508084            0.000308358077           
       1.662120             0.00881156897            0.000315847086           
       1.664761             0.00893282449            0.000321456015           
       1.667401             0.00815409034            0.000304263683           
       1.670041             0.00855393458            0.000311990976           
       1.672682             0.00807579316            0.000300293321           
       1.675322             0.00783409288            0.000300994859           
       1.677962             0.00889414528            0.000314343828           
       1.680603             0.00921073654             0.00032272852           
       1.683243             0.00761797219            0.000291329945           
       1.685884              0.0083579156            0.000306311946           
       1.688524             0.00845733342            0.000307261442           
       1.691164             0.00838319867             0.00030512551           
       1.693805             0.00846344249            0.000309061578           
       1.696445             0.00823557322            0.000300641174           
       1.699085             0.00875644666            0.000311240365           
       1.701726             0.00852580388            0.000303119217           
       1.704366             0.00807929761             0.00030225497           
       1.707007              0.0078265606            0.000291141582           
       1.709647             0.00833341316              0.0003041537           
       1.712287              0.0081850196            0.000296395955           
       1.714928               0.008366365            0.000302674601           
       1.717568             0.00844754246            0.000301342708           
       1.720209             0.00858539956            0.000305667541           
       1.722849             0.00893833723            0.000312387191           
       1.725489             0.00823036171            0.000294982599           
       1.728130             0.00849223188            0.000305738378           
       1.730770             0.00904971342            0.000308942829           
       1.733410             0.00827463313            0.000299294856           
       1.736051             0.00811740724            0.000291836494           
       1.738691             0.00832301199            0.000298525635           
       1.741332             0.00862463074            0.000302015983           
       1.743972             0.00838652942            0.000297928372           
       1.746612             0.00882816705             0.00030574256           
       1.749253              0.0080262419            0.000292785493           
       1.751893             0.00816813646            0.000293590185           
       1.754533             0.00831912434            0.000292224722           
       1.757174             0.00882593547            0.000306622059           
       1.759814             0.00794048176            0.000286400916           
       1.762455             0.00865418323            0.000301540542           
       1.765095             0.00803150827            0.000286410598           
       1.767735             0.00818507239            0.000294048842           
       1.770376             0.00857105253            0.000296338899           
       1.773016             0.00818324426            0.000290014166           
       1.775657             0.00837492973            0.000293992262           
       1.778297             0.00826874103            0.000293551569           
       1.780937             0.00822065659            0.000291330938           
       1.783578             0.00854690404             0.00029566073           
       1.786218             0.00840743107            0.000297917789           
       1.788858             0.00827932452            0.000288294111           
       1.791499             0.00892456328            0.000304833755           
       1.794139             0.00835149194            0.000289438945           
       1.796780              0.0094310313            0.000309405054           
       1.799420             0.00924989305            0.000306029215           
       1.802060             0.00902439992            0.000298558212           
       1.804701             0.00880917244             0.00029893385           
       1.807341             0.00859027097            0.000292343972           
       1.809981              0.0089796567            0.000300881374           
       1.812622             0.00872500307             0.00029496848           
       1.815262             0.00888272043            0.000298683731           
       1.817903             0.00868900261            0.000291759235           
       1.820543             0.00866128616            0.000294893938           
       1.823183             0.00809221979             0.00028064982           
       1.825824              0.0084921228            0.000291824334           
       1.828464              0.0086760737            0.000294063042           
       1.831105             0.00832771009            0.000289214284           
       1.833745             0.00864832724            0.000294545122           
       1.836385              0.0083341169            0.000288020344           
       1.839026             0.00843140994            0.000294051483           
       1.841666             0.00875853417             0.00029581001           
       1.844306             0.00854559241            0.000295880768           
       1.846947             0.00811106524            0.000284555774           
       1.849587             0.00852041264            0.000295603419           
       1.852228             0.00794756386            0.000282456992           
       1.854868             0.00865831638            0.000300223819           
       1.857508             0.00831422301            0.000288765375           
       1.860149             0.00829764987            0.000290789709           
       1.862789             0.00857402095            0.000296900707           
       1.865429             0.00869255368             0.00029984722           
       1.868070             0.00828245765            0.000291677328           
       1.870710             0.00813722631            0.000289896103           
       1.873351             0.00863769752            0.000300584747           
       1.875991             0.00834133796            0.000296981029           
       1.878631             0.00873631882            0.000301106148           
       1.881272             0.00846885843            0.000295766723           
       1.883912             0.00856764723            0.000300975642           
       1.886553             0.00855976662            0.000297228502           
       1.889193             0.00829577653            0.000295989338           
       1.891833             0.00867919481            0.000299306884           
       1.894474             0.00854808457            0.000299388476           
       1.897114             0.00831732905            0.000293029128           
       1.899754             0.00785630699            0.000287986092           
       1.902395              0.0083875891            0.000297627763           
       1.905035             0.00831645179            0.000295201525           
       1.907676             0.00857848927            0.000300164664           
       1.910316             0.00879993465            0.000305952651           
       1.912956             0.00881842534            0.000306261749           
       1.915597             0.00819835349            0.000292219438           
       1.918237             0.00873350373            0.000306184359           
       1.920878             0.00877645277            0.000301504273           
       1.923518             0.00804083529            0.000296259661           
       1.926158             0.00871823327            0.000301397797           
       1.928799             0.00784972262            0.000289791797           
       1.931439             0.00814456698            0.000292818494           
       1.934079             0.00848330909            0.000301872166           
       1.936720             0.00823592644            0.000295687494           
       1.939360             0.00845032665            0.000302398119           
       1.942001             0.00822460031            0.000297184252           
       1.944641             0.00800928095            0.000292004594           
       1.947281              0.0078467847            0.000290423638           
       1.949922             0.00859198427            0.000304281859           
       1.952562             0.00755662488            0.000287815646           
       1.955202             0.00813603929            0.000291142784           
       1.957843             0.00795518951            0.000297034087           
       1.960483             0.00833678734            0.000299224549           
       1.963124             0.00766883885            0.000286774473           
       1.965764             0.00771495611             0.00028773829           
       1.968404             0.00828403432            0.000303493483           
       1.971045             0.00791173334            0.000289160481           
       1.973685             0.00779126918            0.000292305526           
       1.976326             0.00760381697            0.000287508801           
       1.978966              0.0077596102            0.000291813579           
       1.981606             0.00823321497            0.000297408178           
       1.984247             0.00766654622            0.000289493324           
       1.986887             0.00844659331            0.000306706003           
       1.989527             0.00841772536            0.000299802637           
       1.992168             0.00857926647            0.000309968078           
       1.994808             0.00790591047            0.000294094377           
       1.997449             0.00773682122            0.000290505731           
       2.000089              0.0078900084            0.000291640156           
       2.002729             0.00796214884            0.000299683643           
       2.005370             0.00797431604            0.000294211359           
       2.008010             0.00766752115            0.000292326541           
       2.010650             0.00806735064            0.000298993714           
       2.013291             0.00772837172             0.00029431036           
       2.015931             0.00804056892            0.000298047487           
       2.018572             0.00841828959            0.000309018126           
       2.021212             0.00788986385            0.000296477347           
       2.023852             0.00764865394            0.000293443663           
       2.026493             0.00787386665            0.000296427745           
       2.029133             0.00796469108            0.000295858189           
       2.031774             0.00795339301            0.000298515373           
       2.034414             0.00760569323            0.000290175222           
       2.037054             0.00751385983            0.000292054802           
       2.039695             0.00791542924            0.000293853047           
       2.042335             0.00780545024            0.000296771392           
       2.044975             0.00788219603            0.000295843333           
       2.047616             0.00772782984            0.000294187319           
       2.050256             0.00744088186            0.000285278149           
       2.052897             0.00769963114            0.000298790643           
       2.055537             0.00769207035            0.000290501711           
       2.058177             0.00784974437            0.000296056243           
       2.060818             0.00750264203            0.000290305619           
       2.063458             0.00743971372            0.000289483756           
       2.066098             0.00765255014            0.000292292445           
       2.068739             0.00771176102            0.000296480465           
       2.071379             0.00702255571            0.000278744014           
       2.074020             0.00786180485            0.000298968818           
       2.076660             0.00735234943            0.000287160007           
       2.079300             0.00715415191            0.000283222036           
       2.081941             0.00775962894            0.000296756832           
       2.084581             0.00720748872            0.000286215938           
       2.087222             0.00774440754            0.000296887344           
       2.089862             0.00770850974             0.00029250664           
       2.092502             0.00752979917             0.00029434895           
       2.095143             0.00770039008            0.000293410395           
       2.097783             0.00796465645            0.000302943372           
       2.100423             0.00720174852            0.000282545641           
       2.103064             0.00742541575            0.000291853191           
       2.105704             0.00766750404            0.000295438052           
       2.108345             0.00713833426            0.000286369751           
       2.110985             0.00738957028            0.000287273111           
       2.113625             0.00791622424             0.00030201861           
       2.116266             0.00701843619            0.000282272429           
       2.118906             0.00753642973            0.000292290849           
       2.121546             0.00733082269            0.000288047284           
       2.124187             0.00720336701            0.000289481652           
       2.126827             0.00737891652            0.000288392943           
       2.129468             0.00722995903            0.000288446264           
       2.132108             0.00782743525            0.000299507116           
       2.134748             0.00731834433            0.000288512092           
       2.137389             0.00752480023            0.000295003678           
       2.140029             0.00783904029            0.000300369235           
       2.142670             0.00718515649            0.000288038913           
       2.145310             0.00738231342            0.000293079432           
       2.147950             0.00729610976            0.000292489619           
       2.150591             0.00709930062            0.000285871798           
       2.153231             0.00760167399            0.000300187001           
       2.155871             0.00733510793            0.000290618063           
       2.158512             0.00700473734            0.000289115429           
       2.161152             0.00752731401            0.000292219343           
       2.163793             0.00733427368            0.000293141426           
       2.166433             0.00729711787            0.000287327488           
       2.169073             0.00777145662            0.000303442157           
       2.171714             0.00714404772            0.000285012567           
       2.174354             0.00769866061            0.000300390144           
       2.176995             0.00755466687            0.000295099304           
       2.179635             0.00687497722            0.000286839167           
       2.182275             0.00732157425            0.000290133068           
       2.184916             0.00706607903            0.000291049826           
       2.187556             0.00722606041            0.000289587791           
       2.190196             0.00800068467            0.000309503908           
       2.192837             0.00705050916            0.000287362968           
       2.195477             0.00731244081            0.000295475142           
       2.198118             0.00763172318            0.000296284062           
       2.200758             0.00791320193            0.000306383634           
       2.203398             0.00732232364            0.000289835386           
       2.206039             0.00813378532            0.000310142448           
       2.208679             0.00704501046            0.000285813966           
       2.211319             0.00765316667            0.000299297181           
       2.213960             0.00733254916             0.00028984593           
       2.216600              0.0067752262            0.000285177717           
       2.219241             0.00803228088            0.000305993959           
       2.221881             0.00722549522            0.000291732688           
       2.224521             0.00745963344            0.000295393589           
       2.227162             0.00751164788            0.000301077521           
       2.229802             0.00741640447            0.000294306561           
       2.232443             0.00724871574            0.000292104201           
       2.235083             0.00763418542            0.000297972797           
       2.237723             0.00722808152            0.000292161039           
       2.240364             0.00687937707            0.000283576803           
       2.243004             0.00695774815            0.000286049085           
       2.245644             0.00701530605            0.000286566535           
       2.248285              0.0069318842            0.000286706775           
       2.250925              0.0078306944            0.000303303092           
       2.253566             0.00713823475            0.000290290454           
       2.256206             0.00680609972            0.000282607466           
       2.258846             0.00664274294            0.000279197852           
       2.261487             0.00737846978            0.000294762426           
       2.264127             0.00718256146            0.000293574625           
       2.266767             0.00702957855            0.000285737112           
       2.269408             0.00720121387            0.000292639202           
       2.272048             0.00769445689            0.000300634546           
       2.274689             0.00718999661            0.000291755236           
       2.277329             0.00729844355            0.000293556682           
       2.279969             0.00733695821            0.000295222327           
       2.282610             0.00749747268            0.000295523878           
       2.285250             0.00716147937            0.000293368671           
       2.287891             0.00691240306            0.000285313368           
       2.290531             0.00720933984            0.000292813924           
       2.293171             0.00686605851             0.00028574347           
       2.295812              0.0072400919            0.000291865939           
       2.298452             0.00706364619            0.000290133924           
       2.301092             0.00755049181            0.000301871189           
       2.303733              0.0073008924             0.00029096839           
       2.306373             0.00698868623             0.00029164212           
       2.309014             0.00728016787            0.000291925852           
       2.311654             0.00704688697            0.000289936397           
       2.314294             0.00741731136            0.000296809761           
       2.316935             0.00700586983            0.000289600316           
       2.319575             0.00695702926            0.000287508438           
       2.322215             0.00737595708             0.00030025676           
       2.324856             0.00732893222            0.000291782011           
       2.327496             0.00694780284            0.000291056415           
       2.330137             0.00683814179             0.00028342505           
       2.332777              0.0073113575            0.000296273196           
       2.335417             0.00727860092             0.00029472133           
       2.338058             0.00634917709             0.00027636373           
       2.340698             0.00699411404            0.000287204669           
       2.343339             0.00645778403            0.000281239521           
       2.345979             0.00719788643             0.00029099346           
       2.348619             0.00762127795             0.00030508418           
       2.351260             0.00754460193            0.000297093077           
       2.353900             0.00724273504            0.000297254913           
       2.356540             0.00741786521            0.000296689925           
       2.359181              0.0075719134            0.000303763167           
       2.361821             0.00679908021            0.000284336951           
       2.364462             0.00701393646            0.000293621222           
       2.367102             0.00707996344            0.000286469309           
       2.369742               0.007029975            0.000295686054           
       2.372383             0.00722685014            0.000291058446           
       2.375023             0.00706951176            0.000295372926           
       2.377663             0.00704408681            0.000288575759           
       2.380304             0.00682149086            0.000287918889           
       2.382944              0.0073261683            0.000295461023           
       2.385585             0.00736691624            0.000299082505           
       2.388225             0.00686833276            0.000287479657           
       2.390865             0.00717436408            0.000294566832           
       2.393506             0.00731915639            0.000296153313           
       2.396146             0.00715522334            0.000293788485           
       2.398787             0.00685722713            0.000287857235           
       2.401427             0.00696990379            0.000288450444           
       2.404067             0.00673273089            0.000287827324           
       2.406708             0.00705879061            0.000291010253           
       2.409348              0.0068285354            0.000288377767           
       2.411988             0.00679991224             0.00028685366           
       2.414629             0.00714900224            0.000295087031           
       2.417269             0.00692829288            0.000287858126           
       2.419910             0.00716113764            0.000296345905           
       2.422550             0.00750826512            0.000298837209           
       2.425190             0.00679591368            0.000293259221           
       2.427831             0.00686458108            0.000283652389           
       2.430471             0.00694528493            0.000293655064           
       2.433112             0.00722595579            0.000292462087           
       2.435752             0.00703969081            0.000295976014           
       2.438392             0.00727030084            0.000295729192           
       2.441033             0.00712420213            0.000294084191           
       2.443673             0.00725778285            0.000297621109           
       2.446313             0.00725853758            0.000296050791           
       2.448954                0.00715802             0.00029657346           
       2.451594              0.0073739717            0.000299207773           
       2.454235             0.00664338035            0.000283115244           
       2.456875             0.00725085298            0.000297274419           
       2.459515             0.00797081179            0.000312164408           
       2.462156             0.00799986995            0.000311120797           
       2.464796             0.00748672347            0.000306286143           
       2.467436             0.00737587857            0.000297635715           
       2.470077             0.00761115473            0.000306514667           
       2.472717             0.00731095217             0.00029665012           
       2.475358              0.0076677766            0.000307245096           
       2.477998             0.00754083453            0.000303065656           
       2.480638             0.00737014507            0.000300344023           
       2.483279             0.00743869381            0.000303033779           
       2.485919             0.00749351383            0.000302018715           
       2.488560             0.00693442292            0.000291738642           
       2.491200             0.00696127753             0.00029190224           
       2.493840             0.00724518422            0.000296173817           
       2.496481              0.0075001551            0.000305280775           
       2.499121             0.00708420489            0.000292744416           
       2.501761             0.00722374475            0.000300633178           
       2.504402               0.006436425            0.000278339243           
       2.507042             0.00763399069            0.000308168292           
       2.509683             0.00732271468            0.000299071486           
       2.512323             0.00753026341            0.000304467709           
       2.514963              0.0137440168            0.000412150526           
       2.517604              0.0315449244            0.000621956772           
       2.520244              0.0227321768            0.000528093611           
       2.522884              0.0085479691            0.000323125193           
       2.525525             0.00957659542            0.000344824147           
       2.528165              0.0167597885            0.000454086264           
       2.530806              0.0182006226            0.000471426429           
       2.533446               0.012374114            0.000392166307           
       2.536086              0.0107276412            0.000362080422           
       2.538727              0.0101715655            0.000354831479           
       2.541367              0.0095260475            0.000342405703           
       2.544008              0.0078958667            0.000311998329           
       2.546648             0.00663488754            0.000286326813           
       2.549288             0.00718674747            0.000298039579           
       2.551929             0.00776357581            0.000310792714           
       2.554569             0.00712482885            0.000295012367           
       2.557209             0.00703102121            0.000296375082           
       2.559850             0.00630641545            0.000277460279           
       2.562490             0.00707954937            0.000296116809           
       2.565131             0.00738889172            0.000303043427           
       2.567771             0.00732594851            0.000300150628           
       2.570411             0.00706221669             0.00029828461           
       2.573052             0.00690240334            0.000291448078           
       2.575692             0.00723071373            0.000299090181           
       2.578332             0.00686442403            0.000290555295           
       2.580973             0.00718942309            0.000299764939           
       2.583613             0.00696213667            0.000292300319           
       2.586254              0.0071359815            0.000298545237           
       2.588894             0.00722810559            0.000298863352           
       2.591534             0.00700286169            0.000294710963           
       2.594175             0.00717916632            0.000300129865           
       2.596815             0.00672387489             0.00028775658           
       2.599456             0.00733767222            0.000303063357           
       2.602096             0.00752155928            0.000305689084           
       2.604736             0.00689529936            0.000293454024           
       2.607377             0.00691575806            0.000292765179           
       2.610017             0.00728061158            0.000300283657           
       2.612657             0.00739778839            0.000304828637           
       2.615298             0.00723815548            0.000298572429           
       2.617938               0.007516514            0.000306921082           
       2.620579             0.00734337628            0.000300887547           
       2.623219             0.00702839868             0.00029907248           
       2.625859             0.00677717775            0.000288729265           
       2.628500             0.00727190699            0.000303862129           
       2.631140             0.00703083764            0.000293514147           
       2.633780             0.00730618704             0.00030304944           
       2.636421             0.00738917608            0.000301992439           
       2.639061             0.00724317225            0.000302568888           
       2.641702             0.00706868691            0.000295707019           
       2.644342             0.00744015258            0.000305866001           
       2.646982             0.00751430029            0.000307125372           
       2.649623             0.00750088937            0.000308690714           
       2.652263              0.0068806653             0.00029330048           
       2.654904             0.00686327711            0.000294520179           
       2.657544             0.00712313382            0.000297932932           
       2.660184             0.00719449608             0.00029980461           
       2.662825              0.0067859844            0.000291866512           
       2.665465             0.00711026173            0.000299311304           
       2.668105             0.00712364801            0.000299711548           
       2.670746             0.00659448499             0.00028592513           
       2.673386             0.00697276989             0.00029757495           
       2.676027              0.0070812537            0.000297331585           
       2.678667             0.00709877756            0.000299246909           
       2.681307             0.00717687236            0.000298522409           
       2.683948              0.0080458183            0.000319217182           
       2.686588              0.0071355662            0.000297859613           
       2.689229             0.00759200704            0.000309995962           
       2.691869             0.00775048749            0.000310088415           
       2.694509              0.0073055465            0.000305184703           
       2.697150             0.00760457968            0.000306398476           
       2.699790             0.00728862707            0.000306196845           
       2.702430              0.0070601159            0.000295580796           
       2.705071              0.0075502834            0.000309852743           
       2.707711             0.00706558583            0.000296769815           
       2.710352             0.00701031767            0.000297289394           
       2.712992             0.00696449709            0.000297279642           
       2.715632             0.00657471556            0.000287197946           
       2.718273             0.00719805495             0.00030150173           
       2.720913             0.00692312722            0.000296181455           
       2.723553             0.00702350881            0.000297284336           
       2.726194             0.00619684849            0.000280588516           
       2.728834             0.00690313713            0.000293514707           
       2.731475               0.006646891            0.000290532699           
       2.734115             0.00696522004            0.000295636173           
       2.736755              0.0070762204            0.000299952346           
       2.739396             0.00767291987            0.000310691437           
       2.742036              0.0071795124             0.00030258727           
       2.744677             0.00726291225            0.000304784638           
       2.747317             0.00722982734             0.00030261232           
       2.749957             0.00753573875            0.000311189401           
       2.752598             0.00699449909            0.000300708742           
       2.755238             0.00675378727            0.000295355903           
       2.757878             0.00665198882            0.000292286953           
       2.760519              0.0067075721            0.000290406579           
       2.763159             0.00718250384            0.000305398199           
       2.765800              0.0075577828            0.000307968198           
       2.768440             0.00653612716            0.000290170141           
       2.771080             0.00616313378            0.000279394563           
       2.773721             0.00632330186             0.00028647358           
       2.776361             0.00689304549            0.000295888777           
       2.779001             0.00678222596            0.000296585797           
       2.781642             0.00699605096            0.000299169385           
       2.784282             0.00663616018            0.000291474508           
       2.786923             0.00696821189            0.000296406169           
       2.789563              0.0069371159            0.000296338162           
       2.792203             0.00628851904            0.000283940945           
       2.794844             0.00723093534            0.000303089189           
       2.797484             0.00663802151            0.000290806443           
       2.800125             0.00677084881            0.000293322018           
       2.802765             0.00696922221            0.000303104602           
       2.805405              0.0072085371            0.000303814999           
       2.808046             0.00723625468            0.000309066041           
       2.810686              0.0069464821            0.000299587974           
       2.813326             0.00717426167            0.000308227034           
       2.815967             0.00707305139            0.000304116463           
       2.818607             0.00720850334            0.000310083658           
       2.821248             0.00726249744            0.000307361946           
       2.823888              0.0066075696            0.000297897818           
       2.826528             0.00689068009             0.00030239781           
       2.829169             0.00749669283            0.000314022563           
       2.831809             0.00655574584             0.00029391205           
       2.834449             0.00698436894            0.000298072866           
       2.837090             0.00704293205            0.000301121213           
       2.839730             0.00707173187             0.00029959348           
       2.842371             0.00655863864             0.00029053051           
       2.845011             0.00698995727            0.000299262619           
       2.847651             0.00698065003            0.000299612538           
       2.850292              0.0062641306            0.000282207021           
       2.852932             0.00677150949            0.000293939702           
       2.855573              0.0065189987            0.000290940061           
       2.858213             0.00686451326            0.000295200785           
       2.860853             0.00692885383            0.000298800888           
       2.863494             0.00725754831            0.000306542449           
       2.866134             0.00687619751            0.000302565357           
       2.868774             0.00747787597            0.000310695354           
       2.871415             0.00710597353             0.00030586846           
       2.874055             0.00706329583            0.000306459118           
       2.876696             0.00686787983            0.000299468969           
       2.879336             0.00674246959            0.000298691815           
       2.881976             0.00710043745            0.000306266004           
       2.884617             0.00648716062            0.000291114786           
       2.887257             0.00690229746            0.000298191352           
       2.889897             0.00719095341            0.000307851343           
       2.892538             0.00692227426             0.00029995117           
       2.895178             0.00711395514            0.000300974823           
       2.897819             0.00653744191            0.000291489156           
       2.900459             0.00707064219            0.000300633366           
       2.903099             0.00700175609            0.000300727374           
       2.905740             0.00667317456            0.000290309125           
       2.908380             0.00683369342            0.000297696297           
       2.911021             0.00697265736            0.000301279554           
       2.913661              0.0072400065            0.000303622642           
       2.916301             0.00663972871             0.00029489985           
       2.918942             0.00708220241            0.000299972694           
       2.921582             0.00657646057            0.000292096544           
       2.924222             0.00696492101            0.000298856078           
       2.926863             0.00691056475            0.000298478333           
       2.929503             0.00682169267            0.000299844874           
       2.932144             0.00749942324            0.000309230676           
       2.934784             0.00704770154            0.000301046882           
       2.937424             0.00710479585              0.0003028229           
       2.940065             0.00688597304            0.000298365697           
       2.942705             0.00651462523            0.000291090862           
       2.945346             0.00680737967            0.000295801992           
       2.947986             0.00804501789            0.000322693855           
       2.950626             0.00870084148            0.000336620925           
       2.953267              0.0105005923            0.000365871867           
       2.955907             0.00945331605            0.000351737242           
       2.958547             0.00871999733            0.000334355358           
       2.961188             0.00738630427            0.000310412043           
       2.963828             0.00649855558            0.000289511096           
       2.966469             0.00653059842            0.000290296258           
       2.969109             0.00770699059            0.000316973399           
       2.971749             0.00818661824            0.000325726724           
       2.974390             0.00940225423            0.000350031553           
       2.977030             0.00879402073            0.000337876222           
       2.979670             0.00843306254             0.00032873619           
       2.982311             0.00721813003            0.000306330478           
       2.984951             0.00765986537            0.000316380642           
       2.987592             0.00758374474            0.000313742145           
       2.990232             0.00753618615            0.000313555471           
       2.992872             0.00800074753            0.000320547725           
       2.995513             0.00899396323            0.000342531932           
       2.998153              0.0111777733            0.000384322706           
       3.000794              0.0209827393            0.000518899694           
       3.003434               0.036568503            0.000692287876           
       3.006074               0.027935998            0.000607033463           
       3.008715              0.0171693497            0.000479514734           
       3.011355              0.0195044278            0.000516398337           
       3.013995              0.0167320702            0.000475952995           
       3.016636              0.0282789413            0.000619918109           
       3.019276               0.139146195             0.00140797478           
       3.021917               0.439169511             0.00245893195           
       3.024557               0.157553385              0.0014845598           
       3.027197              0.0843360188             0.00110438123           
       3.029838               0.103838283             0.00121957771           
       3.032478              0.0884317424             0.00113219754           
       3.035118                0.05528495            0.000899811055           
       3.037759               0.093401929             0.00117162871           
       3.040399               0.076072513             0.00106946663           
       3.043040              0.0552718733             0.00092045639           
       3.045680              0.0544386261            0.000899423171           
       3.048320              0.0775556354             0.00109076419           
       3.050961               0.134062299             0.00144847396           
       3.053601               0.123084478             0.00138176486           
       3.056242               0.055314601            0.000932251576           
       3.058882               0.156752625             0.00159269837           
       3.061522                0.27885537             0.00210958083           
       3.064163              0.0459436311             0.00085784506           
       3.066803              0.0174001575            0.000538134215           
       3.069443              0.0303037111            0.000705439492           
       3.072084               0.095177077             0.00126132475           
       3.074724              0.0511850129            0.000930441536           
       3.077365              0.0119648644            0.000449531909           
       3.080005             0.00929061367             0.00040051459           
       3.082645             0.00919962341            0.000400577763           
       3.085286             0.00809648547            0.000375862747           
       3.087926             0.00736520809            0.000360767968           
       3.090566             0.00720597272            0.000360522518           
       3.093207             0.00761399256            0.000366584923           
       3.095847             0.00772484796            0.000376983692           
       3.098488             0.00779262467            0.000377947333           
       3.101128             0.00815311221             0.00038869635           
       3.103768             0.00828036461            0.000393924806           
       3.106409             0.00924377633            0.000418998528           
       3.109049             0.00899917693            0.000416631665           
       3.111690              0.0123447472            0.000486047384           
       3.114330              0.0151837064            0.000543843016           
       3.116970              0.0179554197            0.000599628766           
       3.119611              0.0151606393            0.000547404445           
       3.122251              0.0113590172            0.000477707612           
       3.124891             0.00818544956            0.000407489441           
       3.127532             0.00835535215            0.000419113007           
       3.130172             0.00950209959            0.000437755118           
       3.132813             0.00826221908            0.000416504783           
       3.135453              0.0073546203            0.000401252385           
       3.138093             0.00666103784             0.00037280319           
       3.140734             0.00644286795            0.000373470802           
       3.143374             0.00605209919            0.000367501196           
       3.146014             0.00627803317            0.000371580998           
       3.148655             0.00655235485            0.000382601162           
       3.151295             0.00684321389            0.000394095655           
       3.153936              0.0061553598            0.000379282457           
       3.156576             0.00642958081             0.00038318903           
       3.159216             0.00664964384            0.000392878706           
       3.161857             0.00649603939            0.000393078081           
       3.164497             0.00771601939            0.000437434659           
       3.167138             0.00631580146            0.000386264078           
       3.169778             0.00615124483            0.000388082125           
       3.172418              0.0063815532            0.000397590218           
       3.175059             0.00670005623            0.000412722731           
       3.177699             0.00511786408              0.0003592897           
       3.180339             0.00567505934            0.000381724728           
       3.182980             0.00592536354            0.000395317709           
       3.185620             0.00581759769            0.000395986791           
       3.188261             0.00628638923            0.000406239395           
       3.190901             0.00580639725            0.000396438448           
       3.193541              0.0057905601            0.000397201988           
       3.196182             0.00532577742            0.000388853539           
       3.198822             0.00580998268             0.00040122231           
       3.201463              0.0058998463            0.000409541735           
       3.204103             0.00519977796            0.000389596644           
       3.206743             0.00599254606            0.000421778925           
       3.209384             0.00567657715            0.000408678829           
       3.212024             0.00559206429            0.000407066173           
       3.214664             0.00688009658            0.000460125285           
       3.217305             0.00514983231            0.000407372088           
       3.219945             0.00567299142            0.000423988359           
       3.222586             0.00588407156            0.000434247879           
       3.225226             0.00646299989            0.000465362268           
       3.227866             0.00622615568            0.000460289371           
       3.230507             0.00620404047            0.000464953953           
       3.233147              0.0050763983            0.000414360932           
       3.235787             0.00527750659            0.000422603787           
       3.238428             0.00497619078            0.000417609828           
       3.241068             0.00543864396            0.000445436596           
       3.243709             0.00653924913            0.000485721453           
       3.246349             0.00610366668            0.000466640069           
       3.248989             0.00553174517            0.000454394033           
       3.251630              0.0062018145            0.000483256917           
       3.254270             0.00557149506            0.000472120823           
       3.256911             0.00516599743            0.000443224835           
       3.259551              0.0059971118            0.000488101682           
       3.262191             0.00578023292            0.000483603101           
       3.264832             0.00548288931            0.000475419677           
       3.267472             0.00475863894            0.000449189365           
       3.270112             0.00461305353            0.000443523777           
       3.272753             0.00606938769            0.000514991041           
       3.275393             0.00565618866            0.000499710961           
       3.278034             0.00516428328            0.000487214362           
       3.280674              0.0055555377            0.000506800126           
       3.283314             0.00571351523             0.00051679517           
       3.285955             0.00569593424            0.000525691506           
       3.288595             0.00531537609            0.000513491987           
       3.291235             0.00487380314            0.000494588911           
       3.293876              0.0063781122            0.000569141683           
       3.296516             0.00639873943            0.000581688461           
       3.299157             0.00611668577            0.000577319623           
       3.301797              0.0059556149             0.00056990971           
       3.304437              0.0058071461            0.000573309905           
       3.307078             0.00542725747            0.000559624739           
       3.309718             0.00601213642            0.000594887479           
       3.312359             0.00657028388            0.000634454099           
       3.314999             0.00559005251            0.000591355058           
       3.317639             0.00544842785            0.000590102494           
       3.320280             0.00644783737            0.000651320963           
       3.322920             0.00529913623            0.000599294471           
       3.325560             0.00503242521            0.000595295437           
       3.328201             0.00627588735            0.000667595585           
       3.330841             0.00643121103            0.000692242504           
       3.333482             0.00475179321            0.000602587624           
       3.336122             0.00545925477            0.000659927477           
       3.338762             0.00539141033            0.000661812368           
       3.341403             0.00360953877            0.000546537409           
       3.344043              0.0063696201             0.00075373405           
       3.346683              0.0049447679            0.000670836942           
       3.349324             0.00465085096            0.000660665484           
       3.351964             0.00464342721            0.000681360405           
       3.354605             0.00424866073            0.000659134201           
       3.357245             0.00586921017            0.000801937994           
       3.359885             0.00874609265            0.000979296196           
       3.362526             0.00598252827            0.000851346433           
       3.365166             0.00632585344            0.000864625892           
       3.367807             0.00548935478            0.000862187534           
       3.370447             0.00546237534             0.00086039961           
       3.373087             0.00539445163            0.000902400901           
       3.375728             0.00647986384            0.000981552165           
       3.378368             0.00567254816            0.000992371752           
       3.381008             0.00524265877            0.000945709344           
       3.383649             0.00474299828            0.000973479813           
       3.386289             0.00333700304            0.000816879202           
       3.388930             0.00404647451            0.000987911308           
       3.391570             0.00500677991             0.00109936237           
       3.394210              0.0054629356             0.00123043301           
       3.396851              0.0057491404             0.00136731781           
       3.399491             0.00921417364             0.00176241278           
       3.402131             0.00549192756             0.00161060721           
       3.404772              0.0059681446             0.00167970493           
       3.407412             0.00700851784             0.00225867696           
       3.410053             0.00526921502             0.00203929841           
       3.412693             0.00442409771             0.00264373063           
       3.415333             0.00215717113             0.00226187901           
