################################################################################
# EDF_DataBlockID                     0.Image.Psd
# EDF_BinarySize                      2105344
# EDF_HeaderSize                      2560
# ByteOrder                           LowByteFirst
# DataType                            FloatValue
# Dim_1                               512
# Dim_2                               1028
# Image                               0
# HeaderID                            EH:000000:000000:000000
# Size                                2105344
# Center_1                            304.9000
# Center_2                            588.7000
# Comment                             Xenocs_Cell_Window - front_window_open_only
# DDummy                              0.6
# Date                                2025-10-18T19:33:02
# Delta                               21.910000
# Dummy                               -1.5
# ExposureTime                        360
# Gamma                               15.360000
# Intensity1                          9.01713e-10
# PSize_1                             7.5e-05
# PSize_2                             7.5e-05
# Pressure                            0.0333195
# SampleDistance                      0.115750
# SampleEnvKind                       large
# SampleEnvPN                         ElectroChemical cell
# SampleEnvSN                         1141
# Thickness                           0
# Wavelength                          1.541891e-10
# Wavelength                          1.54189e-10
# aux                                 0
# aux_dial                            0.002375
# beamx                               588.429
# beamx_dial                          588.429
# beamz                               657.855
# beamz_dial                          657.855
# det0x                               -0.000396875
# det0x_dial                          6.36905
# det0xvd                             -0.0005
# det0xvd_dial                        -0.0005
# det0y                               450.002
# det0y_dial                          481.635
# det0z                               0
# det0z_dial                          1.2295
# det0zvd                             0
# det0zvd_dial                        0
# mag                                 1.818
# mag_dial                            1.818
# om                                  0.2499
# om_dial                             -0.610199
# phi                                 -0.0120535
# phi_dial                            0
# ry                                  0.599993
# ry_dial                             0.599993
# s1bot                               0.8
# s1bot_dial                          -1.66094
# s1hl                                0.8
# s1hl_dial                           -0.608437
# s1hr                                0.8
# s1hr_dial                           0.970938
# s1top                               0.8
# s1top_dial                          -0.461562
# s2bot                               0.45
# s2bot_dial                          1.36109
# s2hl                                0.45
# s2hl_dial                           -0.83375
# s2hr                                0.45
# s2hr_dial                           -0.118594
# s2top                               0.45
# s2top_dial                          1.44734
# w2theta                             32
# w2theta_dial                        32
# waxsch                              19.2605
# waxsch_dial                         -32.7238
# waxsh                               137.085
# waxsh_dial                          -43.5335
# waxsth                              26.0607
# waxsth_dial                         -19.4068
# waxsz                               67.0407
# waxsz_dial                          -23.7962
# wind                                65.9854
# wind_dial                           66.0041
# wpsi                                124
# wpsi_dial                           124
# wstod                               115
# wstod_dial                          115
# x                                   0
# x_dial                              1.00969
# z                                   0
# z_dial                              13.3172
# CountCutoff                         6807993
# DetectorModel                       Dectris EIGER2 Si 500K, S/N E-01-0554
# ThresholdSetting                    4023.88989258
# Saturation                          0
# FlatField                           Corrected
# BackgroundReductionExtra            0.02
# BackgroundCorrectionConstant        0.0026712
# Detector                            0
# Monitor                             0
# Pil_Roi0                            0
# SumForIntensity1                    3.24617e+08
# TransmittedFlux                     901713
# det                                 0
# mon                                 0
# pilai0                              3.24617e+08
# pilai1                              710061
# pilct0                              5.61471e+08
# pilct1                              710061
# pilroi0                             0
# pilroi1                             0
# sec                                 1
# title                               20251017__1_00231.edf
# usaxs0                              0
# Operation                           Azimuthal average I(q)
# Error_model                         ErrorModel.poisson
# Geometrical_correction              True
# Transmission_correction             True
# Thickness_correction                False
# Binning mode                        Uniform
# Binning factor                      1.0
# Psi                                 0.0
# Omega                               0.2499
# MaskInvalidPixels                   True
# DetectorEdge                        3
# MaskFiles                           ['20251017__1_00233_mask.edf']
################################################################################
    q(A⁻¹)                Intensity(a.u.)            Sigma_I(a.u.)            
       0.690460           -2.25241226e-05                         0           
       0.693100             0.00777631248             0.00362030641           
       0.695741             0.00579458651             0.00264019391           
       0.698381             0.00305653001             0.00179343275           
       0.701021             0.00477234297             0.00182894841           
       0.703662             0.00349201712             0.00144815868           
       0.706302             0.00601505634              0.0018355815           
       0.708942             0.00645804123             0.00168946094           
       0.711583             0.00435238436             0.00138669779           
       0.714223             0.00725519546             0.00156015226           
       0.716864             0.00819294707             0.00169182021           
       0.719504             0.00766892578             0.00151488012           
       0.722144               0.006307377             0.00132684774           
       0.724785              0.0055622749             0.00122559173           
       0.727425             0.00620654897             0.00120083284           
       0.730065             0.00509958963             0.00111999643           
       0.732706             0.00846268341             0.00129742098           
       0.735346             0.00850655584             0.00140506393           
       0.737987              0.0055006854            0.000977947537           
       0.740627             0.00703096051              0.0012112179           
       0.743267             0.00688051097             0.00103064909           
       0.745908              0.0059769661             0.00102949449           
       0.748548             0.00781309476             0.00109780545           
       0.751189              0.0067315774             0.00100939531           
       0.753829              0.0079787844             0.00110884625           
       0.756469             0.00758714775             0.00101700308           
       0.759110             0.00577226604            0.000917528916           
       0.761750             0.00729736651            0.000944164895           
       0.764390             0.00584869007            0.000907347906           
       0.767031             0.00903979048             0.00102074338           
       0.769671             0.00592607389            0.000876486193           
       0.772312             0.00663022259            0.000844834859           
       0.774952             0.00709958205            0.000937217685           
       0.777592             0.00710354794            0.000857465828           
       0.780233             0.00627215196            0.000849403995           
       0.782873             0.00669748722            0.000802639881           
       0.785513             0.00650010589            0.000841142162           
       0.788154             0.00775591302            0.000843938271           
       0.790794             0.00643200804             0.00079541871           
       0.793435             0.00857401155             0.00088207899           
       0.796075             0.00812304495            0.000863104462           
       0.798715             0.00630501905            0.000756067775           
       0.801356             0.00663764434            0.000754994319           
       0.803996             0.00633731861            0.000749505542           
       0.806637             0.00691633208            0.000740138702           
       0.809277             0.00682121185            0.000768962843           
       0.811917             0.00678934012            0.000725960361           
       0.814558             0.00735711256            0.000774172212           
       0.817198             0.00640667564            0.000688844707           
       0.819838             0.00656037865            0.000727106947           
       0.822479             0.00728710461            0.000706207193           
       0.825119             0.00728917292             0.00075875558           
       0.827760             0.00777202716            0.000725978026           
       0.830400              0.0068895057            0.000720173426           
       0.833040             0.00670250727             0.00066294263           
       0.835681             0.00563380503            0.000636492541           
       0.838321             0.00614157239            0.000622012954           
       0.840961             0.00641138474            0.000664282917           
       0.843602             0.00551613638            0.000580399829           
       0.846242             0.00669251333            0.000661870974           
       0.848883             0.00720775065            0.000668176452           
       0.851523             0.00582674546            0.000605266873           
       0.854163             0.00663955584            0.000638599204           
       0.856804             0.00648287933            0.000614873642           
       0.859444             0.00622832334            0.000607014152           
       0.862085             0.00644554201            0.000608526014           
       0.864725             0.00707877406            0.000635376386           
       0.867365             0.00734663481            0.000642650565           
       0.870006             0.00592802413            0.000585333133           
       0.872646             0.00648431603              0.0005855389           
       0.875286             0.00677794287            0.000619047376           
       0.877927              0.0065438786            0.000582388335           
       0.880567             0.00685207749            0.000607587232           
       0.883208             0.00722574732            0.000605915085           
       0.885848             0.00649470967            0.000589344666           
       0.888488             0.00716351961             0.00058850642           
       0.891129             0.00615741398             0.00057354004           
       0.893769             0.00712283393            0.000583091835           
       0.896410             0.00751747059            0.000617479093           
       0.899050             0.00732176433            0.000587569891           
       0.901690             0.00775733421            0.000617418891           
       0.904331             0.00768184651            0.000592956717           
       0.906971             0.00680069907            0.000576099197           
       0.909611             0.00643897022            0.000538051532           
       0.912252             0.00745539162            0.000588995448           
       0.914892             0.00755929389            0.000578063377           
       0.917533              0.0060581784            0.000529171419           
       0.920173             0.00711186201            0.000549981671           
       0.922813             0.00673728149            0.000559400193           
       0.925454             0.00682166925            0.000534218648           
       0.928094             0.00697371927            0.000551733469           
       0.930734             0.00656187579            0.000522421066           
       0.933375              0.0069037136            0.000547278989           
       0.936015             0.00723565389            0.000536086692           
       0.938656               0.005925158            0.000505465064           
       0.941296              0.0075479929            0.000549961918           
       0.943936             0.00780243387            0.000569224863           
       0.946577              0.0069362189            0.000516873625           
       0.949217             0.00712019683            0.000542178126           
       0.951858              0.0066474005            0.000495255684           
       0.954498             0.00834041048            0.000583621034           
       0.957138             0.00705336622             0.00051585289           
       0.959779             0.00697926181            0.000524359639           
       0.962419             0.00726048304            0.000514868436           
       0.965059             0.00789994132            0.000552318238           
       0.967700             0.00730733781            0.000514020902           
       0.970340               0.007004832            0.000517410542           
       0.972981             0.00662982549            0.000486018353           
       0.975621             0.00713412477            0.000514720467           
       0.978261             0.00730446966            0.000496936486           
       0.980902             0.00719820476            0.000516797512           
       0.983542             0.00789984543            0.000525635185           
       0.986182             0.00671616826            0.000491041186           
       0.988823             0.00756667098            0.000504389163           
       0.991463             0.00719297204            0.000503522266           
       0.994104             0.00668268332            0.000468973829           
       0.996744             0.00694807906            0.000493702873           
       0.999384              0.0077678737            0.000504299212           
       1.002025             0.00691688279            0.000489124206           
       1.004665             0.00706820903            0.000474192241           
       1.007306             0.00774851668            0.000513124677           
       1.009946             0.00713251113            0.000473367426           
       1.012586             0.00748845145            0.000498987349           
       1.015227             0.00745219838            0.000482710566           
       1.017867             0.00754544433            0.000499640295           
       1.020507             0.00765711977              0.0004843762           
       1.023148              0.0081551583            0.000505918382           
       1.025788             0.00809638005            0.000498930109           
       1.028429             0.00773799384            0.000498425415           
       1.031069             0.00703726117             0.00045794911           
       1.033709             0.00724192681            0.000473481602           
       1.036350             0.00751498784            0.000469677937           
       1.038990              0.0091676398            0.000531564975           
       1.041630             0.00782761787             0.00048173233           
       1.044271             0.00815467542            0.000491748551           
       1.046911             0.00789185673            0.000474771159           
       1.049552             0.00764649426            0.000484173981           
       1.052192             0.00825351569            0.000480404902           
       1.054832              0.0072113504            0.000457784328           
       1.057473             0.00759308132            0.000463797626           
       1.060113             0.00772738376            0.000472947898           
       1.062754             0.00808072721            0.000478290981           
       1.065394             0.00748263616            0.000455408069           
       1.068034              0.0078759792             0.00046541572           
       1.070675             0.00678382969            0.000439540165           
       1.073315             0.00794747356            0.000461204533           
       1.075955             0.00739414844             0.00045232065           
       1.078596              0.0083784756            0.000480535587           
       1.081236             0.00753567056            0.000448966832           
       1.083877             0.00836681254            0.000487857026           
       1.086517             0.00839966481             0.00047775624           
       1.089157             0.00799217009            0.000469440184           
       1.091798             0.00831034772            0.000468551254           
       1.094438             0.00810085725            0.000469960099           
       1.097078             0.00860159232            0.000471822595           
       1.099719             0.00794432684            0.000465059093           
       1.102359             0.00819165551            0.000447364822           
       1.105000             0.00801942669            0.000460069605           
       1.107640             0.00831887639            0.000453305925           
       1.110280              0.0080729068            0.000455495624           
       1.112921              0.0089491693            0.000470901826           
       1.115561              0.0076854555            0.000441927086           
       1.118202             0.00752224619            0.000424448753           
       1.120842             0.00873819455            0.000471883531           
       1.123482             0.00853014856            0.000453153601           
       1.126123             0.00772228258            0.000433852326           
       1.128763             0.00846445614            0.000451969552           
       1.131403             0.00879980276            0.000460119318           
       1.134044             0.00785545572            0.000433975527           
       1.136684             0.00934566222            0.000476909725           
       1.139325             0.00801042513            0.000429088405           
       1.141965             0.00795977037            0.000433323597           
       1.144605             0.00808137263            0.000439185665           
       1.147246             0.00843727756             0.00044025353           
       1.149886             0.00847755721            0.000444441663           
       1.152527             0.00814650048            0.000436113869           
       1.155167             0.00785242066            0.000422149824           
       1.157807             0.00786898234            0.000422885904           
       1.160448             0.00851590124            0.000445944795           
       1.163088             0.00854451027            0.000430121058           
       1.165728             0.00836819636            0.000443205112           
       1.168369              0.0100371885             0.00046806619           
       1.171009             0.00960254379            0.000461615316           
       1.173650             0.00880637166            0.000438876642           
       1.176290             0.00921537932            0.000454220556           
       1.178930             0.00839587713            0.000421366317           
       1.181571             0.00880524065            0.000445610487           
       1.184211             0.00909064069            0.000439100071           
       1.186851             0.00966666879            0.000456973234           
       1.189492             0.00919649958            0.000448196632           
       1.192132             0.00912711278            0.000439889821           
       1.194773             0.00880947104            0.000429560223           
       1.197413             0.00879878288            0.000432801527           
       1.200053              0.0084975042            0.000422651171           
       1.202694             0.00976616678             0.00044969011           
       1.205334             0.00874443184            0.000430168699           
       1.207975             0.00901610527            0.000428241361           
       1.210615             0.00949132664            0.000448673573           
       1.213255              0.0101060249            0.000450726528           
       1.215896             0.00926904999            0.000439840874           
       1.218536             0.00938049456            0.000429732741           
       1.221176             0.00977021383            0.000449036784           
       1.223817             0.00931917264            0.000429411134           
       1.226457              0.0092836968            0.000434036864           
       1.229098             0.00917258737            0.000424886537           
       1.231738             0.00938108165            0.000435738945           
       1.234378              0.0101358209            0.000444127668           
       1.237019             0.00943615847            0.000431981264           
       1.239659             0.00982848656             0.00044063154           
       1.242299             0.00914917981            0.000422958139           
       1.244940             0.00878842098            0.000410060887           
       1.247580             0.00940808104            0.000426144443           
       1.250221             0.00993832219            0.000445138102           
       1.252861             0.00913265276            0.000410815964           
       1.255501              0.0100919567            0.000444046598           
       1.258142               0.010180691            0.000437177203           
       1.260782             0.00897464001            0.000415102689           
       1.263423             0.00970599586            0.000423132663           
       1.266063              0.0102616828            0.000443185907           
       1.268703             0.00905625948            0.000405853057           
       1.271344                 0.0104014            0.000444424196           
       1.273984             0.00942931917            0.000416542026           
       1.276624             0.00918744625            0.000408656225           
       1.279265             0.00936164277            0.000413412797           
       1.281905              0.0104759855            0.000440021624           
       1.284546             0.00962130017             0.00041708343           
       1.287186              0.0104377173            0.000434836352           
       1.289826             0.00953422216            0.000417745715           
       1.292467             0.00966075473            0.000413003337           
       1.295107              0.0104806766            0.000437754955           
       1.297747              0.0104450709            0.000425548154           
       1.300388             0.00981524276             0.00042311176           
       1.303028              0.0101249037            0.000418806511           
       1.305669              0.0105118793            0.000432248299           
       1.308309              0.0106056899            0.000427644524           
       1.310949             0.00932310144            0.000405950641           
       1.313590               0.011064396             0.00043539484           
       1.316230              0.0102693603            0.000427010857           
       1.318871             0.00983941528            0.000408959264           
       1.321511              0.0107898644            0.000430402067           
       1.324151             0.00999005561            0.000415779449           
       1.326792              0.0105392329            0.000423595379           
       1.329432             0.00996479391            0.000414038183           
       1.332072              0.0100741778             0.00040916583           
       1.334713              0.0102513376            0.000417866699           
       1.337353              0.0105394643             0.00041718087           
       1.339994              0.0100660439             0.00041351073           
       1.342634             0.00914582017            0.000385283086           
       1.345274              0.0101485145            0.000411159864           
       1.347915              0.0105538333            0.000420404792           
       1.350555              0.0102739307             0.00041317196           
       1.353195              0.0102185836            0.000404174723           
       1.355836              0.0111514306            0.000430186683           
       1.358476              0.0106770713            0.000419753744           
       1.361117              0.0106789578            0.000409259984           
       1.363757              0.0104504656            0.000418275229           
       1.366397              0.0107096468            0.000410244295           
       1.369038              0.0109532857            0.000423629067           
       1.371678              0.0104017461             0.00040448981           
       1.374319              0.0106254905            0.000412059378           
       1.376959              0.0101462718            0.000397116672           
       1.379599              0.0111587283            0.000424576582           
       1.382240              0.0119322858            0.000430707425           
       1.384880              0.0117332357            0.000432343779           
       1.387520               0.010811705            0.000410166132           
       1.390161              0.0106607241            0.000406185162           
       1.392801              0.0101294541            0.000398294691           
       1.395442              0.0103231063             0.00039791776           
       1.398082              0.0102310911               0.000397496           
       1.400722              0.0107287742            0.000405210258           
       1.403363              0.0106916301            0.000408261963           
       1.406003               0.010457697            0.000393856213           
       1.408644              0.0103891282            0.000400804232           
       1.411284              0.0107769975            0.000405978778           
       1.413924              0.0105450322             0.00039663282           
       1.416565              0.0103387545            0.000392272597           
       1.419205              0.0109421846            0.000407533171           
       1.421845              0.0102492019            0.000389458796           
       1.424486              0.0103419234            0.000392943608           
       1.427126              0.0104339177            0.000394438385           
       1.429767              0.0104436324            0.000388540899           
       1.432407             0.00975421194            0.000384956811           
       1.435047              0.0101584908            0.000381047911           
       1.437688              0.0100382756             0.00038717473           
       1.440328             0.00998261054            0.000378617618           
       1.442968              0.0104869835            0.000393436577           
       1.445609             0.00970372957            0.000372234032           
       1.448249             0.00946193255            0.000369943761           
       1.450890              0.0105594361            0.000388022573           
       1.453530              0.0105460914            0.000390649625           
       1.456170             0.00973834014            0.000374546084           
       1.458811             0.00976285638            0.000372033688           
       1.461451               0.010240958            0.000383835274           
       1.464092              0.0104627812            0.000384588214           
       1.466732              0.0103271683            0.000379744117           
       1.469372              0.0108205587            0.000387514749           
       1.472013              0.0100631479            0.000380392161           
       1.474653              0.0102068193            0.000373638604           
       1.477293              0.0100942521            0.000377826951           
       1.479934              0.0103014197            0.000377689509           
       1.482574              0.0101205192            0.000373434664           
       1.485215              0.0101442363             0.00037483469           
       1.487855              0.0105029917            0.000381326411           
       1.490495             0.00988899826            0.000369216212           
       1.493136              0.0104301997            0.000374212124           
       1.495776               0.010064839              0.0003740085           
       1.498416             0.00980709315            0.000362016249           
       1.501057              0.0102288831            0.000372899285           
       1.503697              0.0103469218             0.00037143875           
       1.506338              0.0103171659            0.000373631932           
       1.508978             0.00966849791            0.000359560073           
       1.511618             0.00977839538            0.000361415036           
       1.514259             0.00998652021            0.000365900636           
       1.516899              0.0103067498            0.000371893968           
       1.519540             0.00968418001            0.000358486586           
       1.522180             0.00924429019            0.000345876064           
       1.524820               0.010450828            0.000375183171           
       1.527461              0.0102485942            0.000363316292           
       1.530101             0.00924238268            0.000348587611           
       1.532741             0.00954193035            0.000352513359           
       1.535382              0.0102126372            0.000365495282           
       1.538022             0.00942842782            0.000348075069           
       1.540663              0.0104531056            0.000369965469           
       1.543303             0.00993351383            0.000356165277           
       1.545943              0.0099847573            0.000359083974           
       1.548584             0.00993981305            0.000360182721           
       1.551224             0.00977935333            0.000348104447           
       1.553864             0.00956718996            0.000353302162           
       1.556505             0.00952165697            0.000347038528           
       1.559145             0.00945963459            0.000346706074           
       1.561786             0.00952896037            0.000346397774           
       1.564426             0.00983017048            0.000351512202           
       1.567066             0.00972977739            0.000346983091           
       1.569707             0.00941897842            0.000346338812           
       1.572347             0.00905557715            0.000335185968           
       1.574988             0.00984923491            0.000348182964           
       1.577628             0.00908426402            0.000341917038           
       1.580268             0.00878661272             0.00032466426           
       1.582909             0.00931905032            0.000340610168           
       1.585549              0.0086514664            0.000325116448           
       1.588189             0.00903060523            0.000335873898           
       1.590830             0.00895579397            0.000328738231           
       1.593470             0.00843233108            0.000321591205           
       1.596111             0.00962725656            0.000340653359           
       1.598751             0.00900808198            0.000332885374           
       1.601391              0.0085980396             0.00032314145           
       1.604032             0.00860914143            0.000320649756           
       1.606672               0.008369353            0.000322515863           
       1.609312             0.00904895652            0.000325376156           
       1.611953              0.0087029961            0.000323720087           
       1.614593             0.00821614323            0.000312142931           
       1.617234             0.00863252427            0.000321768262           
       1.619874             0.00840496121             0.00031376372           
       1.622514             0.00904089485            0.000328295294           
       1.625155             0.00892061311            0.000325297661           
       1.627795             0.00869895832             0.00031798474           
       1.630436             0.00813506525            0.000310596572           
       1.633076             0.00814463512            0.000309200245           
       1.635716             0.00880506315            0.000320931418           
       1.638357             0.00813983996            0.000307259141           
       1.640997             0.00824617917            0.000311678177           
       1.643637             0.00817593821             0.00030458504           
       1.646278             0.00904075389            0.000325083257           
       1.648918             0.00910439783            0.000322019774           
       1.651559             0.00878814416            0.000320355325           
       1.654199             0.00853572761            0.000311393437           
       1.656839             0.00834110272            0.000307740012           
       1.659480             0.00873187068            0.000317639182           
       1.662120             0.00863918008            0.000311714954           
       1.664761             0.00836577997            0.000310064107           
       1.667401             0.00806913652            0.000301680342           
       1.670041             0.00819229169            0.000304321681           
       1.672682             0.00833742374            0.000304116608           
       1.675322             0.00837282069            0.000310149965           
       1.677962             0.00845541595            0.000305486088           
       1.680603             0.00779570286            0.000295929954           
       1.683243             0.00861250579            0.000308745986           
       1.685884             0.00836717794            0.000305474925           
       1.688524              0.0084094879            0.000305384672           
       1.691164             0.00849739003            0.000306187557           
       1.693805             0.00843318878            0.000307495331           
       1.696445             0.00849799152            0.000304390301           
       1.699085             0.00799336497            0.000296392975           
       1.701726             0.00804120365            0.000293411717           
       1.704366             0.00830381239            0.000305419339           
       1.707007             0.00803700158            0.000294060648           
       1.709647             0.00798146795             0.00029668402           
       1.712287             0.00835367464              0.0002984505           
       1.714928              0.0079957911            0.000294923525           
       1.717568             0.00835938083            0.000298781479           
       1.720209             0.00818615253            0.000297495297           
       1.722849               0.008850022             0.00030981907           
       1.725489             0.00870038984            0.000302292529           
       1.728130              0.0079344043            0.000294555625           
       1.730770             0.00870968185            0.000302087651           
       1.733410             0.00795078075            0.000292415837           
       1.736051             0.00847708977            0.000297252451           
       1.738691             0.00795296223            0.000290855279           
       1.741332             0.00762622509            0.000283064628           
       1.743972             0.00807073811            0.000291305359           
       1.746612             0.00816722464            0.000293108895           
       1.749253             0.00795196358            0.000290470308           
       1.751893              0.0080914162            0.000291248321           
       1.754533             0.00821364933            0.000289412541           
       1.757174             0.00769444696            0.000285353267           
       1.759814             0.00781098541            0.000283122908           
       1.762455             0.00827588356            0.000293907707           
       1.765095             0.00850005384            0.000293678726           
       1.767735             0.00852790209            0.000299157872           
       1.770376              0.0083872907            0.000292182064           
       1.773016             0.00868495955            0.000297790937           
       1.775657             0.00831941474            0.000292053774           
       1.778297             0.00836938636            0.000294362607           
       1.780937             0.00834769197            0.000292609002           
       1.783578             0.00838111021            0.000291817362           
       1.786218             0.00841164519            0.000297013625           
       1.788858             0.00828152064            0.000287385256           
       1.791499              0.0081614166            0.000290551728           
       1.794139             0.00895614483            0.000298749102           
       1.796780             0.00885878976            0.000298886383           
       1.799420              0.0087553364            0.000296757752           
       1.802060             0.00889875325            0.000295498689           
       1.804701             0.00880113099            0.000297815915           
       1.807341             0.00899082408             0.00029809973           
       1.809981             0.00922058665            0.000303889598           
       1.812622              0.0094752078            0.000306378516           
       1.815262             0.00935529997            0.000305519229           
       1.817903             0.00902533478            0.000296375589           
       1.820543             0.00882758787            0.000296733649           
       1.823183             0.00890883989            0.000293503058           
       1.825824             0.00892380073            0.000298166895           
       1.828464             0.00853363629            0.000290681247           
       1.831105             0.00838293001            0.000289218441           
       1.833745             0.00827708256            0.000287207345           
       1.836385             0.00866349745            0.000292692179           
       1.839026             0.00835039383            0.000291674103           
       1.841666              0.0087491827            0.000294680919           
       1.844306             0.00836726963              0.0002918157           
       1.846947             0.00855612025            0.000291298344           
       1.849587             0.00898047418             0.00030248225           
       1.852228               0.009160113            0.000302243419           
       1.854868             0.00857864013            0.000297857655           
       1.857508             0.00827629078            0.000287159557           
       1.860149              0.0090713689            0.000303046321           
       1.862789             0.00859015088              0.0002962037           
       1.865429             0.00888548561            0.000302160744           
       1.868070             0.00878921562            0.000299480977           
       1.870710             0.00851185862            0.000295520425           
       1.873351             0.00883013595             0.00030291638           
       1.875991             0.00847824347              0.0002984248           
       1.878631             0.00909445228            0.000306206765           
       1.881272             0.00876181907            0.000299850747           
       1.883912             0.00881338307            0.000304258701           
       1.886553             0.00900389428            0.000303840601           
       1.889193             0.00893986897            0.000306255744           
       1.891833             0.00817138535             0.00028946493           
       1.894474             0.00875197351             0.00030194288           
       1.897114             0.00939332731            0.000310384267           
       1.899754             0.00910140011            0.000308949514           
       1.902395             0.00857237378             0.00029990005           
       1.905035             0.00886910783            0.000303850984           
       1.907676             0.00917846927            0.000309464195           
       1.910316             0.00939039443            0.000315012318           
       1.912956             0.00894117423            0.000307372945           
       1.915597             0.00853756636             0.00029722405           
       1.918237             0.00885038754            0.000307214006           
       1.920878             0.00921443152            0.000307921034           
       1.923518             0.00905712845            0.000313392301           
       1.926158             0.00880076887            0.000301826425           
       1.928799             0.00887635051            0.000307147705           
       1.931439             0.00848054496            0.000297815642           
       1.934079             0.00878348946            0.000306157632           
       1.936720             0.00832423816            0.000296292117           
       1.939360             0.00859087188            0.000303900965           
       1.942001             0.00879773558            0.000306354994           
       1.944641             0.00866477577            0.000302721109           
       1.947281             0.00888893469            0.000308093171           
       1.949922             0.00798730373            0.000292415605           
       1.952562             0.00828773749            0.000300427429           
       1.955202             0.00875813495            0.000301076216           
       1.957843             0.00791303333            0.000295272937           
       1.960483               0.008534846            0.000301763581           
       1.963124             0.00847807878            0.000300535327           
       1.965764             0.00834382092            0.000298252805           
       1.968404             0.00825004313            0.000301875353           
       1.971045             0.00854580252            0.000299537131           
       1.973685             0.00830343058            0.000300768827           
       1.976326              0.0083489252             0.00030027676           
       1.978966             0.00786691021            0.000292859126           
       1.981606             0.00801357802            0.000292450612           
       1.984247             0.00866674641            0.000306787627           
       1.986887             0.00827052678             0.00030249569           
       1.989527             0.00836221726            0.000297831012           
       1.992168             0.00847226267            0.000307017209           
       1.994808             0.00800998606            0.000295051466           
       1.997449             0.00854603099            0.000304317394           
       2.000089             0.00775705381            0.000288222654           
       2.002729             0.00812709798            0.000301777434           
       2.005370             0.00829775632            0.000299132895           
       2.008010             0.00775401201            0.000293005055           
       2.010650              0.0080462022            0.000297620733           
       2.013291             0.00775142021            0.000293780733           
       2.015931             0.00808265798            0.000297844988           
       2.018572             0.00809531488            0.000302036909           
       2.021212             0.00813993924             0.00030015008           
       2.023852             0.00855381831            0.000309302451           
       2.026493             0.00792128478            0.000296342375           
       2.029133             0.00833171898            0.000301604318           
       2.031774              0.0075027474            0.000288982646           
       2.034414             0.00816505227              0.0002996688           
       2.037054             0.00824703231             0.00030496695           
       2.039695             0.00801058043            0.000294642965           
       2.042335             0.00792230907            0.000298002609           
       2.044975             0.00773554692            0.000292115636           
       2.047616             0.00860730619            0.000309456721           
       2.050256             0.00831362401             0.00030055407           
       2.052897             0.00775869201             0.00029894921           
       2.055537             0.00762531106            0.000288288272           
       2.058177              0.0081888503             0.00030139015           
       2.060818             0.00808445033            0.000300361801           
       2.063458             0.00744293836            0.000288595409           
       2.066098             0.00738294035            0.000286154315           
       2.068739             0.00775583704            0.000296349883           
       2.071379             0.00765556661            0.000290079972           
       2.074020             0.00716209284            0.000284417202           
       2.076660             0.00802609812            0.000299043412           
       2.079300             0.00773304982            0.000293490797           
       2.081941             0.00728488173            0.000286591049           
       2.084581             0.00754105751            0.000291802545           
       2.087222             0.00769827929            0.000295029564           
       2.089862             0.00738638181            0.000285389187           
       2.092502             0.00695915895            0.000282046226           
       2.095143              0.0080864375            0.000299687668           
       2.097783              0.0075760186            0.000294489334           
       2.100423             0.00786899202            0.000294374583           
       2.103064             0.00733280113            0.000289074733           
       2.105704             0.00723553841            0.000286052648           
       2.108345              0.0075739971            0.000294010195           
       2.110985             0.00780349957            0.000294239662           
       2.113625             0.00778721621            0.000298563627           
       2.116266             0.00761091808            0.000292979968           
       2.118906             0.00680100596            0.000276751569           
       2.121546             0.00706521384            0.000281852053           
       2.124187             0.00748188894            0.000294055983           
       2.126827              0.0072179826            0.000284293786           
       2.129468             0.00706020975            0.000284103721           
       2.132108             0.00774637232            0.000296973508           
       2.134748             0.00711464661            0.000283534159           
       2.137389              0.0076388996             0.00029625553           
       2.140029             0.00704976396            0.000283911124           
       2.142670             0.00752732648            0.000293849222           
       2.145310               0.007198739            0.000288461885           
       2.147950              0.0071226899            0.000288043392           
       2.150591             0.00742774053            0.000291449298           
       2.153231             0.00713072851            0.000289784621           
       2.155871             0.00734755047            0.000289909042           
       2.158512             0.00687425093            0.000285469131           
       2.161152             0.00693226498            0.000279510188           
       2.163793             0.00741516346            0.000293785343           
       2.166433             0.00735506864            0.000287518624           
       2.169073             0.00751771746            0.000297467021           
       2.171714             0.00703532533            0.000281906475           
       2.174354             0.00754606518            0.000296421356           
       2.176995             0.00727348621            0.000288604406           
       2.179635             0.00731775307            0.000294959791           
       2.182275             0.00736428197            0.000290022252           
       2.184916             0.00733793519            0.000295621595           
       2.187556             0.00769644166            0.000297882895           
       2.190196             0.00726393107            0.000293940574           
       2.192837             0.00728842548            0.000291211512           
       2.195477              0.0072502557            0.000293249683           
       2.198118             0.00756188204            0.000293956492           
       2.200758             0.00702557781            0.000287740891           
       2.203398             0.00696035567            0.000281652613           
       2.206039             0.00735951691            0.000294042856           
       2.208679             0.00732746853            0.000290529828           
       2.211319              0.0070123569            0.000285551974           
       2.213960             0.00753921845            0.000292936845           
       2.216600             0.00680867125            0.000284941687           
       2.219241             0.00732654724            0.000291282375           
       2.221881             0.00748287089            0.000295907881           
       2.224521             0.00730892011            0.000291433888           
       2.227162             0.00720573534            0.000293914488           
       2.229802             0.00731744811            0.000291376276           
       2.232443             0.00792388027            0.000304401888           
       2.235083             0.00717570816            0.000287937859           
       2.237723             0.00732356028            0.000293118366           
       2.240364             0.00682968647            0.000281622695           
       2.243004             0.00711407494            0.000288294628           
       2.245644             0.00736321778            0.000292622088           
       2.248285             0.00788228766            0.000304726039           
       2.250925             0.00750082307             0.00029587092           
       2.253566             0.00707193873            0.000287990198           
       2.256206             0.00712861476             0.00028827579           
       2.258846             0.00708962865            0.000287488988           
       2.261487             0.00691591242            0.000284436179           
       2.264127             0.00733914247            0.000295782599           
       2.266767             0.00704666367            0.000285144434           
       2.269408             0.00699893667            0.000287552271           
       2.272048             0.00719842377             0.00028982759           
       2.274689             0.00696334673            0.000286176816           
       2.277329             0.00754033854            0.000297401659           
       2.279969             0.00729361807            0.000293382231           
       2.282610             0.00724410464             0.00028953336           
       2.285250             0.00730261575              0.0002952723           
       2.287891             0.00689890036             0.00028409831           
       2.290531             0.00685519035            0.000284593421           
       2.293171             0.00720897192             0.00029183028           
       2.295812             0.00752529212            0.000296581583           
       2.298452             0.00688221991            0.000285443026           
       2.301092             0.00720017595            0.000293816865           
       2.303733             0.00677342489            0.000279339993           
       2.306373             0.00680927036             0.00028692863           
       2.309014             0.00726480301            0.000290659755           
       2.311654             0.00719190782            0.000291942459           
       2.314294             0.00730718113            0.000293630376           
       2.316935             0.00745728532            0.000297803296           
       2.319575             0.00739752655            0.000295496995           
       2.322215              0.0072344294            0.000296385441           
       2.324856              0.0072805691            0.000289862442           
       2.327496             0.00698533036            0.000290882791           
       2.330137             0.00682345072            0.000282190463           
       2.332777             0.00710795891            0.000291163498           
       2.335417             0.00706698342            0.000289451478           
       2.338058             0.00658479097            0.000280520396           
       2.340698             0.00758943005            0.000298195334           
       2.343339             0.00760298623            0.000304156999           
       2.345979             0.00728098989            0.000291707147           
       2.348619             0.00704744741            0.000292410411           
       2.351260             0.00726974981            0.000290673353           
       2.353900             0.00691666953            0.000289532538           
       2.356540             0.00758738516            0.000299075279           
       2.359181             0.00730005349            0.000297280509           
       2.361821             0.00763426202            0.000300305213           
       2.364462             0.00707635215            0.000293956027           
       2.367102             0.00715446555            0.000287026709           
       2.369742             0.00780978975            0.000310630963           
       2.372383               0.006747897             0.00028032448           
       2.375023             0.00774357825            0.000308118618           
       2.377663             0.00677904199            0.000282164764           
       2.380304             0.00760695905            0.000303045031           
       2.382944             0.00682218112            0.000284180645           
       2.385585             0.00713442836            0.000293358621           
       2.388225             0.00722297393            0.000293839786           
       2.390865             0.00719984652            0.000294120217           
       2.393506             0.00700809697            0.000288839946           
       2.396146             0.00715643607            0.000292848289           
       2.398787             0.00689509518            0.000287702831           
       2.401427             0.00683091782            0.000284622003           
       2.404067             0.00665860742            0.000285298322           
       2.406708             0.00739101151            0.000296801575           
       2.409348             0.00758089898            0.000302851317           
       2.411988             0.00692709232            0.000288572771           
       2.414629             0.00734294344            0.000298080536           
       2.417269             0.00715972218            0.000291665177           
       2.419910             0.00660011035            0.000283566315           
       2.422550             0.00726812777            0.000293053741           
       2.425190             0.00706331596            0.000297991027           
       2.427831             0.00689649295            0.000283377063           
       2.430471             0.00697895929            0.000293399193           
       2.433112             0.00684229721            0.000283657332           
       2.435752             0.00695443751            0.000293212074           
       2.438392             0.00693457944            0.000287871844           
       2.441033             0.00704607848             0.00029150662           
       2.443673             0.00666714112             0.00028431691           
       2.446313             0.00718241968            0.000293527078           
       2.448954             0.00672037005            0.000286420135           
       2.451594             0.00653095466            0.000280660694           
       2.454235             0.00739030777            0.000297626145           
       2.456875             0.00742146668            0.000299763659           
       2.459515             0.00707743268            0.000293184564           
       2.462156             0.00772315134            0.000304688437           
       2.464796             0.00818600944            0.000319218972           
       2.467436             0.00790702297            0.000307153724           
       2.470077             0.00774671759            0.000308216559           
       2.472717             0.00789917225            0.000307340271           
       2.475358             0.00739616598            0.000300763188           
       2.477998              0.0072045746            0.000295258433           
       2.480638             0.00758304577            0.000303650454           
       2.483279             0.00767402622            0.000306778883           
       2.485919             0.00754576296            0.000302074315           
       2.488560             0.00719040314            0.000296098724           
       2.491200             0.00755655453            0.000303127952           
       2.493840             0.00716725715            0.000293609133           
       2.496481             0.00627676114             0.00027835771           
       2.499121             0.00696955159            0.000289412046           
       2.501761             0.00724360371            0.000300057284           
       2.504402               0.007244366            0.000294322455           
       2.507042             0.00705592768            0.000295297873           
       2.509683             0.00689165256            0.000289182336           
       2.512323             0.00744833757            0.000301812312           
       2.514963              0.0132493604            0.000403336568           
       2.517604              0.0299014933            0.000603549668           
       2.520244              0.0152014914            0.000430432069           
       2.522884             0.00814960854            0.000314469727           
       2.525525             0.00887252034            0.000330816166           
       2.528165              0.0141011103            0.000415146972           
       2.530806              0.0212683628            0.000507935954           
       2.533446              0.0193241888            0.000488466719           
       2.536086              0.0109729865            0.000364994622           
       2.538727               0.011250811             0.00037195575           
       2.541367              0.0115053972            0.000375065008           
       2.544008             0.00818639078            0.000316642876           
       2.546648             0.00716956444            0.000296662563           
       2.549288             0.00734289838            0.000300270473           
       2.551929             0.00723137423            0.000298965772           
       2.554569             0.00721956664            0.000295991807           
       2.557209             0.00740745631            0.000303206253           
       2.559850             0.00723114493            0.000296131212           
       2.562490             0.00718882029            0.000297413164           
       2.565131             0.00714253408            0.000296969946           
       2.567771             0.00696156529            0.000291629798           
       2.570411             0.00690478885            0.000293972462           
       2.573052             0.00712814299            0.000295202718           
       2.575692             0.00733864086            0.000300324325           
       2.578332             0.00717706864            0.000296122505           
       2.580973             0.00715708726             0.00029810763           
       2.583613              0.0069494852            0.000291075369           
       2.586254             0.00681230298            0.000290737725           
       2.588894             0.00662835351            0.000285255726           
       2.591534             0.00700580219            0.000293804588           
       2.594175             0.00737639485            0.000303225279           
       2.596815              0.0070439177            0.000293557857           
       2.599456             0.00672013543             0.00028907758           
       2.602096             0.00709284717            0.000295874414           
       2.604736             0.00683317357            0.000291169482           
       2.607377             0.00727693582            0.000299326329           
       2.610017               0.006907266            0.000291522431           
       2.612657             0.00675917595            0.000290417518           
       2.615298             0.00693041495            0.000291196726           
       2.617938             0.00738436072            0.000303211772           
       2.620579             0.00663755913            0.000285122602           
       2.623219             0.00704603411            0.000298463859           
       2.625859             0.00716624148            0.000295926057           
       2.628500             0.00666336806            0.000289914836           
       2.631140             0.00742352268            0.000300608769           
       2.633780             0.00691710664            0.000293901261           
       2.636421              0.0072892604            0.000298958506           
       2.639061              0.0071687395            0.000300021503           
       2.641702             0.00732802934            0.000300093771           
       2.644342              0.0076608677             0.00030935019           
       2.646982             0.00752129594            0.000306259016           
       2.649623             0.00696572638            0.000296497824           
       2.652263             0.00679063011            0.000290418124           
       2.654904             0.00706553263            0.000297846748           
       2.657544              0.0070729192            0.000295905767           
       2.660184             0.00720806162            0.000299101425           
       2.662825             0.00672429621            0.000289582544           
       2.665465             0.00692392019            0.000294392996           
       2.668105             0.00705098023            0.000297199531           
       2.670746             0.00697862385            0.000293168903           
       2.673386             0.00711268091             0.00029955839           
       2.676027             0.00713889444            0.000297558644           
       2.678667             0.00707669348            0.000297799664           
       2.681307             0.00722309297            0.000298498429           
       2.683948             0.00715893074            0.000300120976           
       2.686588             0.00740946482            0.000302525469           
       2.689229             0.00799508148            0.000317073761           
       2.691869             0.00768777272            0.000307816872           
       2.694509             0.00789267499            0.000316169256           
       2.697150             0.00827974182            0.000318660704           
       2.699790             0.00775976885            0.000314900507           
       2.702430              0.0068593763            0.000290391389           
       2.705071             0.00665612861            0.000289971751           
       2.707711             0.00672378716            0.000288551767           
       2.710352              0.0067499423             0.00029075803           
       2.712992             0.00679616112            0.000292700351           
       2.715632             0.00715924417            0.000298708481           
       2.718273             0.00654615359            0.000286580375           
       2.720913             0.00639684012            0.000283766142           
       2.723553             0.00665141427            0.000288352075           
       2.726194             0.00729317886            0.000303398904           
       2.728834             0.00752059548            0.000305354169           
       2.731475             0.00696997401            0.000296532597           
       2.734115             0.00672398074            0.000289517288           
       2.736755             0.00733401019            0.000304364126           
       2.739396             0.00726509779            0.000301328913           
       2.742036                0.00711819            0.000300302596           
       2.744677             0.00679922702            0.000293926381           
       2.747317             0.00749758088            0.000307152705           
       2.749957             0.00723171649            0.000303846121           
       2.752598             0.00731779469            0.000306569521           
       2.755238             0.00705240411            0.000300823447           
       2.757878             0.00694701308             0.00029771715           
       2.760519             0.00741070912            0.000304245932           
       2.763159              0.0071478053            0.000303658901           
       2.765800             0.00713476691            0.000298242606           
       2.768440             0.00683131783            0.000295675841           
       2.771080               0.006865851            0.000293924279           
       2.773721             0.00664665986            0.000292742291           
       2.776361             0.00678407491            0.000292576446           
       2.779001             0.00689752872            0.000298113815           
       2.781642             0.00686561635             0.00029539392           
       2.784282             0.00670646309            0.000292051901           
       2.786923              0.0068465787            0.000292842757           
       2.789563             0.00724738848            0.000301897836           
       2.792203             0.00652479919            0.000288276028           
       2.794844             0.00678281665            0.000292583187           
       2.797484             0.00700201608            0.000297692141           
       2.800125             0.00684365991            0.000293926293           
       2.802765             0.00686088854            0.000299751716           
       2.805405             0.00685697304            0.000295340485           
       2.808046             0.00699355111            0.000302840787           
       2.810686             0.00679925375            0.000295422563           
       2.813326             0.00645154217            0.000291329868           
       2.815967             0.00635075773            0.000287223796           
       2.818607             0.00669986967            0.000297961825           
       2.821248             0.00731290114            0.000307413597           
       2.823888             0.00661240694            0.000297027977           
       2.826528             0.00664647813            0.000296015539           
       2.829169             0.00627436602            0.000286340014           
       2.831809             0.00650317719            0.000291769743           
       2.834449             0.00670932056            0.000291185168           
       2.837090             0.00705825509            0.000300458434           
       2.839730             0.00659793847            0.000288432847           
       2.842371             0.00665172908             0.00029162402           
       2.845011             0.00681379172            0.000294496922           
       2.847651             0.00697642435            0.000298537998           
       2.850292             0.00627139313            0.000281443062           
       2.852932             0.00682960944            0.000294228379           
       2.855573             0.00700081338            0.000300509669           
       2.858213             0.00656888363             0.00028782568           
       2.860853             0.00706331302            0.000300695225           
       2.863494             0.00701593456            0.000300406649           
       2.866134             0.00722807981            0.000309191552           
       2.868774             0.00723626104            0.000304630837           
       2.871415             0.00642468311            0.000289881087           
       2.874055             0.00656576527            0.000294498202           
       2.876696             0.00643216858            0.000288861934           
       2.879336             0.00636061613            0.000289157551           
       2.881976              0.0064157311            0.000290168615           
       2.884617             0.00689788827            0.000299203133           
       2.887257             0.00674067244            0.000293711493           
       2.889897             0.00673941359            0.000297050297           
       2.892538             0.00688400062            0.000298138272           
       2.895178             0.00702133376            0.000298026948           
       2.897819             0.00737141882            0.000308507088           
       2.900459             0.00687310258            0.000295430468           
       2.903099             0.00713492875            0.000302576653           
       2.905740             0.00698453083            0.000296028949           
       2.908380             0.00696953578            0.000299653072           
       2.911021             0.00677065955            0.000295908272           
       2.913661             0.00709028427            0.000299479861           
       2.916301             0.00617839205            0.000283536018           
       2.918942             0.00656611167            0.000287887501           
       2.921582             0.00668801863            0.000293596022           
       2.924222             0.00663586703            0.000290752832           
       2.926863             0.00636600094            0.000285535762           
       2.929503             0.00687698917            0.000300068802           
       2.932144             0.00717733114            0.000301523559           
       2.934784             0.00720760592            0.000303442927           
       2.937424             0.00682066851            0.000295731445           
       2.940065             0.00696656117            0.000299120777           
       2.942705             0.00690345766            0.000298667735           
       2.945346             0.00719787708            0.000303168756           
       2.947986             0.00761363446              0.0003128919           
       2.950626             0.00900013138             0.00034123693           
       2.953267              0.0100978033             0.00035760756           
       2.955907             0.00826592241            0.000327825739           
       2.958547             0.00818616742            0.000322895166           
       2.961188             0.00775152015            0.000316949103           
       2.963828             0.00677391036            0.000294610105           
       2.966469             0.00702916868            0.000300184353           
       2.969109             0.00718165188             0.00030497462           
       2.971749             0.00834536113            0.000327789329           
       2.974390             0.00938058168            0.000348479477           
       2.977030             0.00925912904            0.000345557304           
       2.979670             0.00808091042            0.000320742215           
       2.982311             0.00760909866             0.00031348415           
       2.984951             0.00743758857            0.000310732394           
       2.987592              0.0080391212            0.000321963335           
       2.990232             0.00727313146            0.000307022649           
       2.992872             0.00798208269            0.000319121929           
       2.995513              0.0094624175            0.000350185117           
       2.998153              0.0123993109            0.000403448672           
       3.000794              0.0229865431            0.000541327731           
       3.003434              0.0331719642            0.000657188341           
       3.006074              0.0223702606            0.000541423597           
       3.008715              0.0166082819            0.000470065641           
       3.011355              0.0197856731            0.000518399726           
       3.013995              0.0154326709             0.00045559704           
       3.016636              0.0273932616            0.000608129042           
       3.019276               0.162269295             0.00151547404           
       3.021917               0.439713115             0.00245237144           
       3.024557               0.158735967             0.00148522626           
       3.027197               0.076318484             0.00104712483           
       3.029838               0.126361788             0.00134094119           
       3.032478              0.0930453313             0.00115754139           
       3.035118              0.0616883283            0.000947371872           
       3.037759              0.0880686843             0.00113395014           
       3.040399              0.0696177008             0.00101972793           
       3.043040              0.0618298592            0.000970334281           
       3.045680              0.0507827824            0.000865844417           
       3.048320              0.0766245698             0.00108063576           
       3.050961               0.185893777             0.00170004692           
       3.053601               0.128009244             0.00140450823           
       3.056242              0.0536328584            0.000914955195           
       3.058882                0.18487639             0.00172400282           
       3.061522               0.256036589             0.00201478543           
       3.064163              0.0395954482            0.000793761352           
       3.066803              0.0187163516            0.000556282931           
       3.069443              0.0347002444            0.000752400798           
       3.072084              0.0973532611              0.0012714729           
       3.074724              0.0448820239            0.000868410405           
       3.077365              0.0119592052            0.000447949354           
       3.080005              0.0088068369            0.000388666616           
       3.082645              0.0095271733            0.000406307618           
       3.085286             0.00849401033            0.000383714779           
       3.087926             0.00862661569            0.000389158755           
       3.090566             0.00730806897            0.000361874957           
       3.093207             0.00817630882            0.000378632718           
       3.095847             0.00801335691            0.000382697793           
       3.098488             0.00827623882            0.000388219221           
       3.101128             0.00788916211            0.000381096811           
       3.103768             0.00917206327            0.000413231331           
       3.106409             0.00985128691            0.000431127165           
       3.109049              0.0103246042            0.000444793779           
       3.111690              0.0139225507            0.000514479452           
       3.114330              0.0176396756            0.000584253167           
       3.116970              0.0187063576            0.000610028909           
       3.119611              0.0124138932            0.000493713138           
       3.122251             0.00959608036            0.000437632778           
       3.124891              0.0086264548            0.000416948473           
       3.127532             0.00813340007            0.000412150611           
       3.130172              0.0095076994            0.000436445767           
       3.132813             0.00756559992            0.000397250495           
       3.135453             0.00727646633            0.000397803759           
       3.138093              0.0068882674            0.000377863367           
       3.140734             0.00585763517            0.000354935403           
       3.143374             0.00653644919            0.000380669257           
       3.146014             0.00599553499            0.000361931836           
       3.148655              0.0065947946            0.000382577423           
       3.151295              0.0075644528            0.000412982329           
       3.153936             0.00681486887            0.000397773555           
       3.156576             0.00573312249            0.000360652103           
       3.159216             0.00635259566            0.000382741916           
       3.161857             0.00657968526            0.000394301277           
       3.164497             0.00602548973            0.000385286535           
       3.167138             0.00564012159            0.000363819055           
       3.169778             0.00562844942            0.000370005038           
       3.172418             0.00567932765            0.000373845431           
       3.175059             0.00595179883            0.000387716611           
       3.177699               0.005863689            0.000383316027           
       3.180339             0.00540535712            0.000371320057           
       3.182980             0.00599561639            0.000396348126           
       3.185620             0.00524712257            0.000374835385           
       3.188261               0.006063488            0.000397661719           
       3.190901             0.00566661557            0.000390351085           
       3.193541             0.00628945623            0.000412599595           
       3.196182             0.00536234205            0.000388904463           
       3.198822             0.00622179742            0.000413834515           
       3.201463             0.00657800331             0.00043101857           
       3.204103             0.00641996681            0.000431479653           
       3.206743             0.00583168172            0.000414712583           
       3.209384             0.00566490779            0.000406917541           
       3.212024             0.00582424891            0.000414066429           
       3.214664             0.00630037057            0.000438867076           
       3.217305             0.00572279124            0.000428025653           
       3.219945             0.00548145515            0.000415400413           
       3.222586              0.0063561446            0.000449848978           
       3.225226             0.00674751238            0.000473933119           
       3.227866             0.00551398052            0.000431742392           
       3.230507             0.00543474974            0.000433744049           
       3.233147             0.00611180009            0.000453165301           
       3.235787             0.00574568004            0.000439501976           
       3.238428             0.00615563684            0.000462945445           
       3.241068             0.00591637563            0.000463062457           
       3.243709              0.0059552888            0.000462004152           
       3.246349             0.00655708837            0.000482073505           
       3.248989             0.00586083363            0.000466178623           
       3.251630             0.00593291178            0.000471111559           
       3.254270             0.00569298522            0.000475672923           
       3.256911               0.005739525             0.00046564623           
       3.259551             0.00656188955            0.000508891047           
       3.262191             0.00698985944            0.000530055994           
       3.264832             0.00585026658            0.000489475956           
       3.267472             0.00569201732            0.000489657393           
       3.270112             0.00530302865            0.000473975363           
       3.272753             0.00561084926            0.000493528976           
       3.275393             0.00614874196            0.000519303425           
       3.278034             0.00557463131            0.000504538428           
       3.280674             0.00528694831            0.000492773471           
       3.283314             0.00594307095             0.00052534346           
       3.285955             0.00580075554            0.000528764001           
       3.288595             0.00582083657            0.000535587579           
       3.291235             0.00657313176            0.000572489694           
       3.293876             0.00539778461            0.000521859042           
       3.296516               0.005982812            0.000560617998           
       3.299157             0.00477244655            0.000508276337           
       3.301797             0.00521424623            0.000531507799           
       3.304437             0.00585119527            0.000573589888           
       3.307078             0.00533542724            0.000553047476           
       3.309718             0.00527556177            0.000555425599           
       3.312359             0.00644833058            0.000626473793           
       3.314999             0.00554388367            0.000586973571           
       3.317639             0.00440973415             0.00052913827           
       3.320280              0.0063253901            0.000642987896           
       3.322920             0.00529019566            0.000596821853           
       3.325560             0.00576965823            0.000635316383           
       3.328201             0.00539044916            0.000616679462           
       3.330841             0.00654248309            0.000695911971           
       3.333482             0.00570938807            0.000658350765           
       3.336122             0.00565257118            0.000669304386           
       3.338762             0.00567300054            0.000676645534           
       3.341403             0.00457611022            0.000613357102           
       3.344043             0.00544827677            0.000694803618           
       3.346683             0.00490983934            0.000666267726           
       3.349324             0.00573168435             0.00073101731           
       3.351964             0.00541602507            0.000733447488           
       3.354605             0.00653168704            0.000814576029           
       3.357245             0.00595236708            0.000804946346           
       3.359885             0.00464629674            0.000711429097           
       3.362526             0.00569562001            0.000827952774           
       3.365166             0.00533283987            0.000791259736           
       3.367807             0.00716972988            0.000982117856           
       3.370447             0.00425622609            0.000756994809           
       3.373087             0.00472845388            0.000842086236           
       3.375728             0.00583380101            0.000928276534           
       3.378368             0.00578238719            0.000998642405           
       3.381008             0.00540543546            0.000957124313           
       3.383649             0.00547017312             0.00104201057           
       3.386289              0.0068649775              0.0011678047           
       3.388930             0.00589933995             0.00118891932           
       3.391570             0.00782164143             0.00136956198           
       3.394210             0.00463186583             0.00112926025           
       3.396851             0.00444228415             0.00119795995           
       3.399491             0.00387260971             0.00113881302           
       3.402131             0.00590470355             0.00166455216           
       3.404772             0.00225681179             0.00102951368           
       3.407412             0.00349209543             0.00158911454           
       3.410053             0.00752758375             0.00242944314           
       3.412693             0.00297509305             0.00216085809           
       3.415333             0.00651992058              0.0039193978           
