################################################################################
# EDF_DataBlockID                     0.Image.Psd
# EDF_BinarySize                      2105344
# EDF_HeaderSize                      2560
# ByteOrder                           LowByteFirst
# DataType                            FloatValue
# Dim_1                               512
# Dim_2                               1028
# Image                               0
# HeaderID                            EH:000000:000000:000000
# Size                                2105344
# Center_1                            304.9000
# Center_2                            588.7000
# Comment                             Xenocs_Cell_Window - front_window_open_only
# DDummy                              0.6
# Date                                2025-10-19T17:39:58
# Delta                               21.910000
# Dummy                               -1.5
# ExposureTime                        360
# Gamma                               15.360000
# Intensity1                          8.92193e-10
# PSize_1                             7.5e-05
# PSize_2                             7.5e-05
# Pressure                            0.0327368
# SampleDistance                      0.115750
# SampleEnvKind                       large
# SampleEnvPN                         ElectroChemical cell
# SampleEnvSN                         1141
# Thickness                           0
# Wavelength                          1.541891e-10
# Wavelength                          1.54189e-10
# aux                                 0
# aux_dial                            0.002375
# beamx                               588.429
# beamx_dial                          588.429
# beamz                               657.855
# beamz_dial                          657.855
# det0x                               -0.000396875
# det0x_dial                          6.36905
# det0xvd                             -0.0005
# det0xvd_dial                        -0.0005
# det0y                               450.002
# det0y_dial                          481.635
# det0z                               0
# det0z_dial                          1.2295
# det0zvd                             0
# det0zvd_dial                        0
# mag                                 1.818
# mag_dial                            1.818
# om                                  0.2499
# om_dial                             -0.610199
# phi                                 -0.0120535
# phi_dial                            0
# ry                                  0.599993
# ry_dial                             0.599993
# s1bot                               0.8
# s1bot_dial                          -1.66094
# s1hl                                0.8
# s1hl_dial                           -0.608437
# s1hr                                0.8
# s1hr_dial                           0.970938
# s1top                               0.8
# s1top_dial                          -0.461562
# s2bot                               0.45
# s2bot_dial                          1.36109
# s2hl                                0.45
# s2hl_dial                           -0.83375
# s2hr                                0.45
# s2hr_dial                           -0.118594
# s2top                               0.45
# s2top_dial                          1.44734
# w2theta                             32
# w2theta_dial                        32
# waxsch                              19.2605
# waxsch_dial                         -32.7238
# waxsh                               137.085
# waxsh_dial                          -43.5335
# waxsth                              26.0607
# waxsth_dial                         -19.4068
# waxsz                               67.0407
# waxsz_dial                          -23.7962
# wind                                65.9854
# wind_dial                           66.0041
# wpsi                                124
# wpsi_dial                           124
# wstod                               115
# wstod_dial                          115
# x                                   0
# x_dial                              1.00969
# z                                   0
# z_dial                              13.3172
# CountCutoff                         6807993
# DetectorModel                       Dectris EIGER2 Si 500K, S/N E-01-0554
# ThresholdSetting                    4023.88989258
# Saturation                          0
# FlatField                           Corrected
# BackgroundReductionExtra            0.02
# BackgroundCorrectionConstant        0.0026712
# Detector                            0
# Monitor                             0
# Pil_Roi0                            0
# SumForIntensity1                    3.2119e+08
# TransmittedFlux                     892193
# det                                 0
# mon                                 0
# pilai0                              3.2119e+08
# pilai1                              690504
# pilct0                              5.55362e+08
# pilct1                              690504
# pilroi0                             0
# pilroi1                             0
# sec                                 1
# title                               20251017__1_00432.edf
# usaxs0                              0
# Operation                           Azimuthal average I(q)
# Error_model                         ErrorModel.poisson
# Geometrical_correction              True
# Transmission_correction             True
# Thickness_correction                False
# Binning mode                        Uniform
# Binning factor                      1.0
# Psi                                 0.0
# Omega                               0.2499
# MaskInvalidPixels                   True
# DetectorEdge                        3
# MaskFiles                           ['20251017__1_00233_mask.edf']
################################################################################
    q(A⁻¹)                Intensity(a.u.)            Sigma_I(a.u.)            
       0.690460           -2.27644626e-05                         0           
       0.693100             0.00787130913              0.0036617334           
       0.695741             0.00932918027             0.00336783729           
       0.698381             0.00706324082             0.00274080117           
       0.701021             0.00894890564             0.00251782392           
       0.703662             0.00646837182             0.00198143677           
       0.706302             0.00718627392             0.00201702121           
       0.708942             0.00916146556             0.00202294924           
       0.711583             0.00792259459              0.0018808609           
       0.714223             0.00528126252             0.00133818471           
       0.716864             0.00454445194             0.00126671715           
       0.719504              0.0071385618             0.00146933601           
       0.722144             0.00697378354             0.00140260597           
       0.724785             0.00376836732             0.00101414714           
       0.727425             0.00530552901              0.0011161603           
       0.730065             0.00540058695             0.00115870869           
       0.732706             0.00715717537              0.0011995061           
       0.735346             0.00554419223             0.00114036297           
       0.737987             0.00626631853             0.00104934464           
       0.740627             0.00499213156             0.00102603629           
       0.743267             0.00785970695             0.00110740994           
       0.745908             0.00769093866             0.00117402695           
       0.748548             0.00650001865             0.00100664397           
       0.751189             0.00681927294             0.00102135486           
       0.753829             0.00664074468             0.00101698868           
       0.756469             0.00790792156             0.00104380394           
       0.759110             0.00613525511            0.000950971854           
       0.761750             0.00773257427            0.000977083274           
       0.764390             0.00846749577             0.00109755626           
       0.767031             0.00680294923            0.000890206508           
       0.769671             0.00689222749            0.000950268011           
       0.772312             0.00593246496            0.000803396844           
       0.774952             0.00753333633            0.000970560298           
       0.777592             0.00582201098            0.000780405701           
       0.780233             0.00689783754             0.00089550343           
       0.782873             0.00589647041            0.000757121553           
       0.785513             0.00853258272            0.000968844771           
       0.788154             0.00716518113            0.000815478589           
       0.790794             0.00582078346            0.000760708019           
       0.793435             0.00749425873            0.000829057298           
       0.796075             0.00746494646            0.000831805986           
       0.798715              0.0062678475            0.000757846932           
       0.801356             0.00823852822            0.000845602525           
       0.803996             0.00749403564            0.000819378783           
       0.806637             0.00635555939            0.000713274744           
       0.809277             0.00671085312            0.000766775472           
       0.811917              0.0062375808            0.000699539073           
       0.814558             0.00752371872            0.000787054694           
       0.817198             0.00594377052            0.000667022884           
       0.819838             0.00663342073            0.000735033905           
       0.822479             0.00668162901            0.000679830388           
       0.825119             0.00666789971            0.000729561757           
       0.827760             0.00689043237            0.000687201846           
       0.830400             0.00877969901            0.000817311544           
       0.833040             0.00697848156            0.000680052635           
       0.835681             0.00751475762            0.000739017394           
       0.838321             0.00645476087            0.000641068563           
       0.840961             0.00706396579            0.000700980953           
       0.843602             0.00662185806            0.000639299657           
       0.846242             0.00578124717            0.000618435259           
       0.848883             0.00741318484             0.00068123737           
       0.851523             0.00682398886            0.000658503058           
       0.854163              0.0070231772             0.00066028348           
       0.856804             0.00738864494            0.000659916619           
       0.859444             0.00636514017            0.000616910251           
       0.862085             0.00792551014            0.000678371821           
       0.864725             0.00656091313            0.000614948786           
       0.867365               0.006155356            0.000591373712           
       0.870006             0.00552307832            0.000567993659           
       0.872646             0.00631976444             0.00058113746           
       0.875286             0.00709035042            0.000636522185           
       0.877927             0.00556139421            0.000539748757           
       0.880567             0.00775498597            0.000649819551           
       0.883208             0.00828463368            0.000652246556           
       0.885848             0.00628577955             0.00058287284           
       0.888488             0.00735513713            0.000599498532           
       0.891129             0.00638087616            0.000586961321           
       0.893769             0.00685758375            0.000575176152           
       0.896410             0.00791276521            0.000636876593           
       0.899050             0.00707186541            0.000580528323           
       0.901690             0.00716071852            0.000596357551           
       0.904331             0.00667510634            0.000555679064           
       0.906971             0.00726412234             0.00059857259           
       0.909611             0.00759563542            0.000587492707           
       0.912252             0.00676635846            0.000564103726           
       0.914892             0.00733368934            0.000572401621           
       0.917533             0.00667890665            0.000558576676           
       0.920173             0.00736663888            0.000562724736           
       0.922813             0.00690715992            0.000569422706           
       0.925454              0.0074376913            0.000560786498           
       0.928094             0.00762060997            0.000579824719           
       0.930734             0.00751953423            0.000562220799           
       0.933375             0.00858728598             0.00061362086           
       0.936015             0.00750121584            0.000548740134           
       0.938656             0.00668610316            0.000539799494           
       0.941296             0.00738993111            0.000547068654           
       0.943936             0.00650796619            0.000522632264           
       0.946577             0.00770154824             0.00054754114           
       0.949217             0.00653183851            0.000522057659           
       0.951858             0.00761227672            0.000532801685           
       0.954498              0.0077429111            0.000565319699           
       0.957138             0.00774422957             0.00054340236           
       0.959779             0.00764224689            0.000551619744           
       0.962419             0.00656056091            0.000492026797           
       0.965059             0.00727452558            0.000532824945           
       0.967700             0.00741321933            0.000520486382           
       0.970340             0.00845790555             0.00057157416           
       0.972981             0.00886187994            0.000564897056           
       0.975621             0.00774139115            0.000539032998           
       0.978261             0.00736520131            0.000501653227           
       0.980902              0.0081632885            0.000553280862           
       0.983542             0.00800748785            0.000532020094           
       0.986182             0.00749147461            0.000521369416           
       0.988823             0.00791638293            0.000518658474           
       0.991463             0.00724092751            0.000507886131           
       0.994104             0.00678715365             0.00047514019           
       0.996744             0.00606140813            0.000463580118           
       0.999384             0.00756363028             0.00050027306           
       1.002025             0.00782991949            0.000523175449           
       1.004665              0.0078152317            0.000501274301           
       1.007306             0.00773333793            0.000515349511           
       1.009946             0.00756333653             0.00049004799           
       1.012586             0.00751062376            0.000502384567           
       1.015227             0.00724213725            0.000478390709           
       1.017867             0.00762637687            0.000504985534           
       1.020507              0.0074994472            0.000481913909           
       1.023148             0.00778257249            0.000496856079           
       1.025788             0.00830691933            0.000508064706           
       1.028429             0.00769005095            0.000499522849           
       1.031069             0.00684533197            0.000454064346           
       1.033709             0.00732147028            0.000478608001           
       1.036350             0.00770058823              0.0004779723           
       1.038990             0.00804877765            0.000500722736           
       1.041630              0.0080056166            0.000489771082           
       1.044271             0.00758083115            0.000476653647           
       1.046911             0.00762919333            0.000469287302           
       1.049552             0.00852892857            0.000514070002           
       1.052192             0.00799853303            0.000475442357           
       1.054832             0.00767713984            0.000474850726           
       1.057473             0.00898797385            0.000507288662           
       1.060113             0.00749208754            0.000468169633           
       1.062754             0.00755851816            0.000465039731           
       1.065394             0.00809711492            0.000476259135           
       1.068034             0.00800753425            0.000471783698           
       1.070675             0.00829760633            0.000488699924           
       1.073315              0.0072234601            0.000442034758           
       1.075955             0.00744727588            0.000456358153           
       1.078596              0.0096283676            0.000517874041           
       1.081236             0.00816853877            0.000469926843           
       1.083877             0.00834162585            0.000489714155           
       1.086517             0.00791330926            0.000466185992           
       1.089157             0.00760326617            0.000460312491           
       1.091798             0.00902784921            0.000490958083           
       1.094438             0.00876190979            0.000491359826           
       1.097078             0.00890014892            0.000482494875           
       1.099719             0.00765171731            0.000458842679           
       1.102359             0.00887745485            0.000468193076           
       1.105000             0.00826651054            0.000469588825           
       1.107640              0.0079858783            0.000446503804           
       1.110280             0.00802264139            0.000456491494           
       1.112921             0.00811430402            0.000450784952           
       1.115561             0.00872284926            0.000473314443           
       1.118202             0.00823498219            0.000446465168           
       1.120842             0.00885233419            0.000477482684           
       1.123482              0.0077777355            0.000435009241           
       1.126123             0.00904174723            0.000471954385           
       1.128763             0.00862759643            0.000458732299           
       1.131403             0.00894585203            0.000466390411           
       1.134044             0.00904567713            0.000468171366           
       1.136684             0.00931078525            0.000478551909           
       1.139325              0.0087300698            0.000450331798           
       1.141965             0.00910162635            0.000465828796           
       1.144605             0.00824369185            0.000445934655           
       1.147246             0.00908789496            0.000459344043           
       1.149886             0.00854302162            0.000448528364           
       1.152527             0.00867738628            0.000452494786           
       1.155167             0.00885071408            0.000450566345           
       1.157807              0.0089035436            0.000452220378           
       1.160448              0.0093941136            0.000470867217           
       1.163088             0.00857280158            0.000433125011           
       1.165728             0.00865319496            0.000453087242           
       1.168369             0.00930017514            0.000452951346           
       1.171009             0.00876166553            0.000443287165           
       1.173650             0.00980613653            0.000465583617           
       1.176290             0.00936708439            0.000460380746           
       1.178930             0.00931478336            0.000446188033           
       1.181571             0.00880444056            0.000447961232           
       1.184211             0.00845110274             0.00042562557           
       1.186851             0.00878460573            0.000437943657           
       1.189492             0.00991660088            0.000467889704           
       1.192132             0.00856110651            0.000428298856           
       1.194773             0.00926111772            0.000442777562           
       1.197413             0.00892338301             0.00043817441           
       1.200053             0.00851900712            0.000425437368           
       1.202694             0.00985101933            0.000454042612           
       1.205334             0.00924278396            0.000444609941           
       1.207975             0.00935624511            0.000438565717           
       1.210615             0.00939791356            0.000448835824           
       1.213255             0.00866669732            0.000419618388           
       1.215896             0.00967265314            0.000451705668           
       1.218536              0.0093263042            0.000430769676           
       1.221176             0.00916430034            0.000437204176           
       1.223817              0.0105302996            0.000458891218           
       1.226457             0.00971605675            0.000446391508           
       1.229098             0.00953759798            0.000435563328           
       1.231738             0.00909708896            0.000431375922           
       1.234378             0.00937707081            0.000429454071           
       1.237019              0.0101930377            0.000451360836           
       1.239659             0.00932186552            0.000431408237           
       1.242299             0.00952176152             0.00043378019           
       1.244940             0.00963181696             0.00043157054           
       1.247580               0.009607311            0.000432924326           
       1.250221              0.0098373634            0.000445227878           
       1.252861             0.00946277983             0.00042040025           
       1.255501              0.0100141705            0.000444685642           
       1.258142             0.00976462796            0.000430428966           
       1.260782             0.00999975807            0.000440500631           
       1.263423             0.00941789971            0.000419023414           
       1.266063             0.00995275605             0.00043878633           
       1.268703               0.009777509            0.000423948658           
       1.271344              0.0099161414            0.000436242438           
       1.273984             0.00892889859            0.000407495073           
       1.276624             0.00905802771            0.000407926853           
       1.279265              0.0105961515            0.000442167403           
       1.281905              0.0101780017            0.000436026209           
       1.284546             0.00961427159            0.000419149553           
       1.287186               0.010661823            0.000441818169           
       1.289826              0.0101615078            0.000433563993           
       1.292467             0.00964074332            0.000414770684           
       1.295107              0.0098922292            0.000427551324           
       1.297747              0.0108243582            0.000435510722           
       1.300388              0.0101697012            0.000432975607           
       1.303028             0.00999736072              0.0004183747           
       1.305669             0.00957788436             0.00041479419           
       1.308309              0.0101746828            0.000421093611           
       1.310949             0.00993839558            0.000421362542           
       1.313590              0.0103005592            0.000422332578           
       1.316230              0.0101289669            0.000426338503           
       1.318871              0.0106358806            0.000427451544           
       1.321511              0.0108305326            0.000433506908           
       1.324151              0.0096330241            0.000410454621           
       1.326792              0.0107470268            0.000430026916           
       1.329432              0.0108564703            0.000434465522           
       1.332072              0.0104446702            0.000418838579           
       1.334713              0.0109681586             0.00043452935           
       1.337353              0.0106997925            0.000422578653           
       1.339994              0.0106166941             0.00042693011           
       1.342634              0.0110067244             0.00042491535           
       1.345274              0.0100299061              0.0004109251           
       1.347915              0.0122887552            0.000456059231           
       1.350555              0.0101579729            0.000413019741           
       1.353195              0.0108600497            0.000418884667           
       1.355836              0.0112557359            0.000434493593           
       1.358476              0.0101717211            0.000411879795           
       1.361117              0.0107960653            0.000413687462           
       1.363757              0.0106319996             0.00042413739           
       1.366397              0.0108887058            0.000415860687           
       1.369038               0.011404957            0.000434575391           
       1.371678              0.0102176057            0.000403026674           
       1.374319              0.0103372938            0.000408595425           
       1.376959              0.0105391153            0.000406885029           
       1.379599              0.0110979043             0.00042567087           
       1.382240              0.0110803993            0.000417256395           
       1.384880              0.0100141235            0.000401542528           
       1.387520               0.010505395             0.00040646547           
       1.390161              0.0107408837            0.000409878814           
       1.392801              0.0106592178            0.000410751279           
       1.395442              0.0102817535            0.000399233042           
       1.398082              0.0102284041            0.000399558604           
       1.400722              0.0105951481            0.000404821579           
       1.403363              0.0102839604            0.000402533394           
       1.406003              0.0105719129             0.00039810829           
       1.408644              0.0108873436            0.000412485295           
       1.411284              0.0102824508            0.000398664459           
       1.413924              0.0110546378            0.000408264587           
       1.416565               0.011125328            0.000409086391           
       1.419205              0.0110836162            0.000412340928           
       1.421845              0.0106177465            0.000398508353           
       1.424486               0.011357987            0.000413985388           
       1.427126              0.0107533347            0.000402561103           
       1.429767              0.0101029358            0.000384184208           
       1.432407              0.0101467098            0.000394714693           
       1.435047              0.0101890537              0.0003836513           
       1.437688              0.0103109661            0.000394486265           
       1.440328              0.0100557118            0.000382023364           
       1.442968              0.0108289524            0.000401927222           
       1.445609               0.010910901            0.000396809263           
       1.448249              0.0105581704            0.000392866391           
       1.450890              0.0103563694            0.000386318187           
       1.453530              0.0109248246            0.000399717942           
       1.456170              0.0107478497            0.000395574549           
       1.458811              0.0107503232            0.000392472595           
       1.461451              0.0110624713             0.00040105638           
       1.464092              0.0104138238            0.000385728984           
       1.466732              0.0105867371             0.00038653271           
       1.469372                 0.0103505            0.000381020918           
       1.472013             0.00999748162            0.000381166476           
       1.474653              0.0104764576             0.00038055595           
       1.477293              0.0103258692            0.000384170427           
       1.479934              0.0107037006             0.00038704202           
       1.482574              0.0106549507            0.000385206595           
       1.485215              0.0102906073            0.000379538084           
       1.487855              0.0105464742            0.000384148181           
       1.490495              0.0111420162            0.000393995502           
       1.493136               0.010296047            0.000373776128           
       1.495776               0.010320244             0.00038073938           
       1.498416              0.0103291388            0.000373503546           
       1.501057             0.00961372691            0.000363436125           
       1.503697              0.0103581493            0.000373617723           
       1.506338              0.0100522002            0.000370765319           
       1.508978             0.00959982962            0.000360187369           
       1.511618              0.0107790597             0.00038147635           
       1.514259             0.00986969392            0.000365689654           
       1.516899              0.0101462588            0.000370950529           
       1.519540             0.00982809545            0.000363062109           
       1.522180              0.0104128768            0.000369040346           
       1.524820              0.0101099004            0.000370976327           
       1.527461              0.0093165315            0.000348244778           
       1.530101             0.00955745724            0.000356365716           
       1.532741              0.0094855987            0.000353341454           
       1.535382              0.0101083934            0.000365559985           
       1.538022               0.009896713            0.000358511859           
       1.540663              0.0103439743            0.000369987454           
       1.543303              0.0104757673            0.000367703537           
       1.545943              0.0100804658            0.000362720688           
       1.548584              0.0098740057            0.000360898613           
       1.551224             0.00980858505            0.000350479358           
       1.553864              0.0100007449            0.000363140788           
       1.556505             0.00961022313            0.000350503954           
       1.559145              0.0099928071            0.000358238932           
       1.561786             0.00938242679            0.000345553013           
       1.564426             0.00964178479            0.000349980105           
       1.567066               0.010093599            0.000355291357           
       1.569707             0.00933461311            0.000346618855           
       1.572347             0.00938802016             0.00034309906           
       1.574988             0.00961218424            0.000345797679           
       1.577628             0.00911907301            0.000344394316           
       1.580268             0.00956285092             0.00034050398           
       1.582909              0.0101141646            0.000356731572           
       1.585549              0.0090105179            0.000333559808           
       1.588189              0.0097940625            0.000351644655           
       1.590830              0.0095255982            0.000340838822           
       1.593470             0.00865077027            0.000327463189           
       1.596111             0.00901532255            0.000331403276           
       1.598751             0.00903848726            0.000335220974           
       1.601391             0.00876381064            0.000327977613           
       1.604032             0.00902172514            0.000329989825           
       1.606672              0.0090841681            0.000337794426           
       1.609312             0.00883855052            0.000323282173           
       1.611953              0.0089015165            0.000329133444           
       1.614593             0.00868779767            0.000322685248           
       1.617234             0.00874362752            0.000325555386           
       1.619874             0.00919824649            0.000329983443           
       1.622514             0.00905389386            0.000330279339           
       1.625155             0.00864214121            0.000321883732           
       1.627795             0.00873430618            0.000320325579           
       1.630436             0.00947801506            0.000337038563           
       1.633076             0.00923187295            0.000330943368           
       1.635716             0.00883089095            0.000323111948           
       1.638357             0.00863288758            0.000318111728           
       1.640997             0.00864858905            0.000320890901           
       1.643637             0.00876849393            0.000317107878           
       1.646278             0.00870977921            0.000320775072           
       1.648918             0.00889228811            0.000319939933           
       1.651559              0.0083286493            0.000313527333           
       1.654199             0.00860424303            0.000314304266           
       1.656839             0.00883012644            0.000318317454           
       1.659480             0.00826786168            0.000310728997           
       1.662120             0.00870330972            0.000314534547           
       1.664761             0.00839366982            0.000312233126           
       1.667401             0.00869686925            0.000314861609           
       1.670041             0.00905719136            0.000321685676           
       1.672682             0.00853880575            0.000309405142           
       1.675322              0.0083518748            0.000311410025           
       1.677962             0.00832027192            0.000304647395           
       1.680603              0.0079150696            0.000299773623           
       1.683243             0.00808422742            0.000300718798           
       1.685884             0.00879645952            0.000314879784           
       1.688524             0.00929689444            0.000322801964           
       1.691164             0.00844202346            0.000306812322           
       1.693805             0.00762988231            0.000294039919           
       1.696445             0.00784255225            0.000293972113           
       1.699085             0.00842131968            0.000305842561           
       1.701726             0.00856562272            0.000304439608           
       1.704366             0.00840048689            0.000308826641           
       1.707007             0.00820693228            0.000298734284           
       1.709647             0.00803520248            0.000299265008           
       1.712287             0.00850222081            0.000302694466           
       1.714928             0.00787369813            0.000294220437           
       1.717568             0.00842677885            0.000301579749           
       1.720209              0.0076328253            0.000288793629           
       1.722849             0.00829971282            0.000301628423           
       1.725489              0.0082357414            0.000295674703           
       1.728130             0.00816853343            0.000300460207           
       1.730770             0.00902923182            0.000309216022           
       1.733410             0.00827450113            0.000299896688           
       1.736051              0.0082320168            0.000294482802           
       1.738691             0.00831078792            0.000298908559           
       1.741332             0.00854397683            0.000301207363           
       1.743972             0.00842916175            0.000299287653           
       1.746612              0.0077647509            0.000287316304           
       1.749253             0.00857541612             0.00030324728           
       1.751893             0.00810654837            0.000293071718           
       1.754533             0.00783138671            0.000284101393           
       1.757174             0.00800700113            0.000292640108           
       1.759814             0.00837387344             0.00029470673           
       1.762455             0.00807519691            0.000291867077           
       1.765095             0.00834021872            0.000292452359           
       1.767735             0.00865066125            0.000302906606           
       1.770376             0.00791453542            0.000285338372           
       1.773016             0.00829231159            0.000292529818           
       1.775657             0.00847080523            0.000296267179           
       1.778297             0.00857502675             0.00029954242           
       1.780937             0.00878525197            0.000301777145           
       1.783578             0.00827510319            0.000291508901           
       1.786218             0.00816870742            0.000294250582           
       1.788858             0.00914199569            0.000303553123           
       1.791499             0.00807078899            0.000290471445           
       1.794139             0.00881652588            0.000297988537           
       1.796780             0.00860254845            0.000296099214           
       1.799420             0.00923825058            0.000306453991           
       1.802060             0.00915825784            0.000301371493           
       1.804701             0.00885751141            0.000300358053           
       1.807341             0.00916786146            0.000302622081           
       1.809981              0.0090225242            0.000302207574           
       1.812622             0.00864544104            0.000294213281           
       1.815262             0.00859569644            0.000294411647           
       1.817903             0.00856333357             0.00029022643           
       1.820543             0.00882336722            0.000298241249           
       1.823183             0.00895502198            0.000295828589           
       1.825824             0.00857854331             0.00029389759           
       1.828464             0.00819656746            0.000286398487           
       1.831105             0.00858388907            0.000294221814           
       1.833745             0.00826290049            0.000288488111           
       1.836385             0.00843667264            0.000290372077           
       1.839026             0.00818102611            0.000290237177           
       1.841666              0.0086364924             0.00029433488           
       1.844306             0.00832671108             0.00029265657           
       1.846947             0.00881062963            0.000297171946           
       1.849587             0.00867484118            0.000298872383           
       1.852228             0.00831507935             0.00028949722           
       1.854868             0.00873645031            0.000302184237           
       1.857508             0.00830724785            0.000289226943           
       1.860149             0.00836206065            0.000292505487           
       1.862789             0.00853794799            0.000296873611           
       1.865429             0.00906415988            0.000306807517           
       1.868070             0.00835594118            0.000293559831           
       1.870710             0.00918899062             0.00030868389           
       1.873351             0.00897005051            0.000306931363           
       1.875991             0.00835153742            0.000297762461           
       1.878631              0.0085839143            0.000299070759           
       1.881272             0.00846468354            0.000296290767           
       1.883912             0.00913493027            0.000311407495           
       1.886553             0.00877699218            0.000301583952           
       1.889193             0.00830851161            0.000296814451           
       1.891833             0.00840135876            0.000295071751           
       1.894474             0.00844942713            0.000298256686           
       1.897114             0.00867380711            0.000299846934           
       1.899754             0.00860074826            0.000301930016           
       1.902395             0.00796444353            0.000290608603           
       1.905035             0.00780687094            0.000286591919           
       1.907676             0.00851341679            0.000299627718           
       1.910316             0.00881470664             0.00030682752           
       1.912956             0.00881846038            0.000306880648           
       1.915597             0.00864048223             0.00030060116           
       1.918237             0.00890946229            0.000309877736           
       1.920878             0.00878284997            0.000302223043           
       1.923518             0.00861890107            0.000307343312           
       1.926158             0.00881958634            0.000303756668           
       1.928799             0.00838100648            0.000300042587           
       1.931439              0.0078893579            0.000288776077           
       1.934079             0.00845882297            0.000302044739           
       1.936720             0.00805376474            0.000292989514           
       1.939360             0.00872144117            0.000307830994           
       1.942001             0.00890857659            0.000309919163           
       1.944641             0.00800832612            0.000292576659           
       1.947281              0.0086399254            0.000305363391           
       1.949922              0.0081779349            0.000297458942           
       1.952562             0.00830613631            0.000302361071           
       1.955202             0.00806930129            0.000290531589           
       1.957843             0.00836637967            0.000305228928           
       1.960483             0.00825037595            0.000298270711           
       1.963124             0.00801289441            0.000293728627           
       1.965764             0.00828193777             0.00029872584           
       1.968404             0.00799068155            0.000298673175           
       1.971045             0.00808201476            0.000292845678           
       1.973685             0.00807619626            0.000298203155           
       1.976326             0.00821196993            0.000299388333           
       1.978966             0.00782487968            0.000293629888           
       1.981606             0.00764106736            0.000287091988           
       1.984247             0.00802118211            0.000296711066           
       1.986887             0.00790661531            0.000297339543           
       1.989527             0.00794708596             0.00029188912           
       1.992168             0.00813869786            0.000302513831           
       1.994808             0.00753061829             0.00028760867           
       1.997449             0.00763992781            0.000289263697           
       2.000089              0.0079416514             0.00029318374           
       2.002729             0.00801333798            0.000301252392           
       2.005370             0.00789619806            0.000293357781           
       2.008010             0.00723181093            0.000284472422           
       2.010650             0.00812163892            0.000300603692           
       2.013291             0.00798858535            0.000299828126           
       2.015931              0.0086193219            0.000309210694           
       2.018572             0.00748699998            0.000292012754           
       2.021212             0.00796601428             0.00029850608           
       2.023852             0.00760354797            0.000293167792           
       2.026493             0.00777107783            0.000295081059           
       2.029133             0.00753872411            0.000288419044           
       2.031774             0.00719505716            0.000284500795           
       2.034414             0.00723345404            0.000283556539           
       2.037054             0.00752649502            0.000292890359           
       2.039695              0.0076028497            0.000288573898           
       2.042335             0.00783533737            0.000297939295           
       2.044975             0.00767030964            0.000292429041           
       2.047616             0.00724920267            0.000285506615           
       2.050256             0.00737416355            0.000284569641           
       2.052897             0.00746936641             0.00029488304           
       2.055537             0.00741669243            0.000285830183           
       2.058177             0.00750693605            0.000290103993           
       2.060818             0.00751540799            0.000291139071           
       2.063458             0.00760766406            0.000293324021           
       2.066098             0.00715422333              0.0002831859           
       2.068739             0.00734369889            0.000289902936           
       2.071379             0.00828920515            0.000303452191           
       2.074020             0.00768931701            0.000296267852           
       2.076660             0.00736168919            0.000287922435           
       2.079300             0.00753555973            0.000291260507           
       2.081941              0.0076765032            0.000295758917           
       2.084581             0.00723196335            0.000287280281           
       2.087222             0.00774058288             0.00029741324           
       2.089862             0.00713598258            0.000282002714           
       2.092502             0.00753430868            0.000295031494           
       2.095143             0.00829206886             0.00030508894           
       2.097783              0.0074929009            0.000294427796           
       2.100423             0.00806005559            0.000299512212           
       2.103064             0.00781480808            0.000300012326           
       2.105704             0.00725484314            0.000287958113           
       2.108345             0.00711799219            0.000286538733           
       2.110985             0.00728831365            0.000285874089           
       2.113625              0.0077705374            0.000299830679           
       2.116266             0.00793413442            0.000300728052           
       2.118906             0.00699939385             0.00028225295           
       2.121546             0.00725556138            0.000287143386           
       2.124187             0.00753551167            0.000296678124           
       2.126827             0.00729138845            0.000287256146           
       2.129468             0.00749769001            0.000294331417           
       2.132108             0.00691809075            0.000282141137           
       2.134748             0.00801103441            0.000302466847           
       2.137389              0.0072519256            0.000290190035           
       2.140029             0.00738300175            0.000292089783           
       2.142670             0.00684090138            0.000281621361           
       2.145310             0.00698792058            0.000285718896           
       2.147950              0.0072158378            0.000291463408           
       2.150591             0.00745655029            0.000293567778           
       2.153231             0.00721561418            0.000293055444           
       2.155871             0.00736580332             0.00029181344           
       2.158512             0.00748902699            0.000299546273           
       2.161152             0.00744846417            0.000291271633           
       2.163793             0.00727059717            0.000292455344           
       2.166433              0.0075614652            0.000293076067           
       2.169073             0.00773418064            0.000303324674           
       2.171714             0.00715945321            0.000285895715           
       2.174354             0.00733397962             0.00029378108           
       2.176995             0.00689360966            0.000282461819           
       2.179635             0.00715843227            0.000293283521           
       2.182275             0.00723723537            0.000289039518           
       2.184916             0.00751027353            0.000300664295           
       2.187556             0.00721965682            0.000290043818           
       2.190196             0.00710624577            0.000292279632           
       2.192837             0.00695183003            0.000285920973           
       2.195477             0.00727208386            0.000295253523           
       2.198118              0.0069683334            0.000283685623           
       2.200758             0.00720557775            0.000292954197           
       2.203398             0.00759602237            0.000295798486           
       2.206039             0.00783656008            0.000305037668           
       2.208679              0.0070275447            0.000286035748           
       2.211319             0.00721846251            0.000291259617           
       2.213960             0.00731631747            0.000290109444           
       2.216600             0.00707682829             0.00029204441           
       2.219241             0.00776755315            0.000301516724           
       2.221881             0.00701862714            0.000288106629           
       2.224521              0.0070602625            0.000287957654           
       2.227162             0.00785078259            0.000308420386           
       2.229802             0.00765683778            0.000299642799           
       2.232443             0.00759639046            0.000299631032           
       2.235083             0.00734478855            0.000292860497           
       2.237723             0.00735232001            0.000295256088           
       2.240364              0.0076258569            0.000299168836           
       2.243004             0.00741479818            0.000295891002           
       2.245644             0.00710419536             0.00028895851           
       2.248285             0.00689637723            0.000286548864           
       2.250925             0.00755642375             0.00029854564           
       2.253566             0.00777102306            0.000303495545           
       2.256206             0.00746487636             0.00029656621           
       2.258846             0.00762453031            0.000299723488           
       2.261487             0.00698910596            0.000287458837           
       2.264127             0.00701618014            0.000290740201           
       2.266767              0.0076192923            0.000298081625           
       2.269408             0.00701002337            0.000289311211           
       2.272048             0.00732496056            0.000293919517           
       2.274689             0.00737513758            0.000296084219           
       2.277329              0.0071041148            0.000290206884           
       2.279969              0.0073168492            0.000295412664           
       2.282610             0.00768352521            0.000299772143           
       2.285250             0.00738710781            0.000298555764           
       2.287891             0.00712782863            0.000290310069           
       2.290531              0.0070713977            0.000290584529           
       2.293171             0.00745068072            0.000298260967           
       2.295812             0.00745173102            0.000296698836           
       2.298452             0.00659570683            0.000280925133           
       2.301092             0.00730055979            0.000297432216           
       2.303733             0.00727378992            0.000291014142           
       2.306373             0.00691248143            0.000290633281           
       2.309014             0.00658973508            0.000278299047           
       2.311654             0.00680914819            0.000285579059           
       2.314294             0.00703866999            0.000289718419           
       2.316935             0.00710996378            0.000292332819           
       2.319575             0.00711468141            0.000291334751           
       2.322215             0.00689561294            0.000290901474           
       2.324856             0.00693790937            0.000284464682           
       2.327496             0.00685038272            0.000289592114           
       2.330137             0.00724904306            0.000292405409           
       2.332777              0.0071842388            0.000294279232           
       2.335417             0.00758455487            0.000301459201           
       2.338058             0.00697791317            0.000290309325           
       2.340698             0.00680031695            0.000283769425           
       2.343339              0.0071572064            0.000296675883           
       2.345979             0.00699982044            0.000287541189           
       2.348619             0.00623738793            0.000276555976           
       2.351260             0.00729255081            0.000292677934           
       2.353900               0.007772275            0.000308551529           
       2.356540             0.00678302676            0.000284283056           
       2.359181              0.0070643983            0.000293998939           
       2.361821             0.00722307397            0.000293660228           
       2.364462             0.00712775531            0.000296591568           
       2.367102             0.00689917339            0.000283358995           
       2.369742             0.00735909402            0.000303139136           
       2.372383              0.0073337196            0.000293794535           
       2.375023             0.00729665741            0.000300686433           
       2.377663              0.0066427979             0.00028080116           
       2.380304             0.00751479584            0.000302806352           
       2.382944             0.00758502831            0.000301242495           
       2.385585             0.00724915709            0.000297281429           
       2.388225             0.00677953561             0.00028619188           
       2.390865             0.00744640378            0.000300705457           
       2.393506             0.00706037369            0.000291457884           
       2.396146             0.00724047278            0.000296130074           
       2.398787             0.00697398606            0.000290883643           
       2.401427             0.00694714773            0.000288560557           
       2.404067             0.00712371317            0.000296664435           
       2.406708             0.00725545329            0.000295631902           
       2.409348             0.00689340324            0.000290329198           
       2.411988             0.00682970729            0.000288061798           
       2.414629             0.00673989263            0.000287097741           
       2.417269             0.00710368879             0.00029206749           
       2.419910             0.00765456442            0.000307004006           
       2.422550             0.00629221394            0.000274121117           
       2.425190              0.0069905155            0.000298028798           
       2.427831             0.00725412892            0.000292178289           
       2.430471             0.00720059383            0.000299607375           
       2.433112             0.00723084139             0.00029315157           
       2.435752             0.00638459012            0.000282437342           
       2.438392             0.00734282653            0.000297800567           
       2.441033             0.00689896915            0.000289982336           
       2.443673             0.00699787581            0.000292833489           
       2.446313             0.00730391635            0.000297574311           
       2.448954              0.0068667573            0.000291063374           
       2.451594             0.00735342316            0.000299393797           
       2.454235             0.00717690345            0.000294858144           
       2.456875             0.00765307144            0.000306024892           
       2.459515             0.00744869284             0.00030237649           
       2.462156             0.00752835684            0.000302422123           
       2.464796             0.00808806339            0.000318991864           
       2.467436             0.00808904686            0.000312322103           
       2.470077             0.00770404718             0.00030900203           
       2.472717              0.0075018174            0.000301104109           
       2.475358             0.00801143643            0.000314688817           
       2.477998             0.00726637186            0.000298099817           
       2.480638             0.00678827595            0.000288826209           
       2.483279             0.00690860223            0.000292626515           
       2.485919             0.00719954171             0.00029663296           
       2.488560              0.0077583266            0.000309206564           
       2.491200             0.00711085086            0.000295617146           
       2.493840             0.00733838854            0.000298674523           
       2.496481             0.00725511933            0.000300858644           
       2.499121             0.00717015425            0.000295109502           
       2.501761             0.00730448972            0.000302919013           
       2.504402             0.00688447473            0.000288445236           
       2.507042             0.00692426478             0.00029408634           
       2.509683             0.00708299246            0.000294729239           
       2.512323             0.00692695694            0.000292606036           
       2.514963               0.015159417            0.000433726693           
       2.517604              0.0278127882             0.00058518556           
       2.520244               0.015540788            0.000437524926           
       2.522884             0.00865207454            0.000325743198           
       2.525525              0.0080499099            0.000316784185           
       2.528165              0.0172215173            0.000461228022           
       2.530806              0.0266919868            0.000572054143           
       2.533446                0.01221307            0.000390392554           
       2.536086             0.00970916818            0.000345159487           
       2.538727              0.0105499195            0.000362100142           
       2.541367              0.0097256655            0.000346673116           
       2.544008             0.00688898767             0.00029201553           
       2.546648             0.00730565478            0.000301058359           
       2.549288             0.00695063566            0.000293694553           
       2.551929             0.00737099389            0.000303444197           
       2.554569             0.00689814306            0.000290867356           
       2.557209             0.00742738477            0.000305229374           
       2.559850             0.00751828973            0.000303560277           
       2.562490             0.00653531259            0.000285081685           
       2.565131              0.0073403694            0.000302656536           
       2.567771             0.00697339647            0.000293430589           
       2.570411             0.00733874961            0.000304682313           
       2.573052             0.00743931375            0.000303181954           
       2.575692             0.00703775727            0.000295668184           
       2.578332             0.00693747513             0.00029268694           
       2.580973             0.00664160302             0.00028869958           
       2.583613             0.00694960964            0.000292626804           
       2.586254             0.00732909662            0.000303168722           
       2.588894             0.00670950392            0.000288523708           
       2.591534             0.00687055663            0.000292503024           
       2.594175             0.00670535412            0.000290642383           
       2.596815             0.00769043422            0.000308366195           
       2.599456             0.00713906695            0.000299537282           
       2.602096             0.00660735806            0.000287088496           
       2.604736             0.00679257516            0.000291847927           
       2.607377              0.0068996765            0.000293014945           
       2.610017             0.00676896168             0.00029012468           
       2.612657              0.0067459429            0.000291676892           
       2.615298             0.00682063268            0.000290418286           
       2.617938              0.0068433145             0.00029344561           
       2.620579             0.00685126636            0.000291217608           
       2.623219             0.00752932602            0.000310171714           
       2.625859              0.0068285802             0.00029040725           
       2.628500             0.00669526748            0.000292154288           
       2.631140             0.00627593979            0.000277869429           
       2.633780             0.00693045481             0.00029575006           
       2.636421             0.00703609723            0.000295283961           
       2.639061             0.00667470931             0.00029103949           
       2.641702             0.00729049622            0.000300916974           
       2.644342             0.00705754506            0.000298499079           
       2.646982             0.00715853193             0.00030037189           
       2.649623              0.0073780724            0.000306771155           
       2.652263             0.00646294502            0.000284831927           
       2.654904             0.00683694356             0.00029454806           
       2.657544             0.00749373387            0.000306201965           
       2.660184             0.00717521362            0.000300007018           
       2.662825             0.00706734585            0.000298457085           
       2.665465             0.00715257598            0.000300806659           
       2.668105             0.00719848212            0.000301889909           
       2.670746             0.00674608777            0.000289776899           
       2.673386             0.00739533826            0.000307077931           
       2.676027             0.00667492998            0.000289257885           
       2.678667             0.00783463283            0.000315009096           
       2.681307             0.00684112388            0.000292044435           
       2.683948             0.00724418192            0.000303509091           
       2.686588             0.00764675518            0.000308966843           
       2.689229             0.00724347503            0.000303408051           
       2.691869             0.00788421427            0.000313383497           
       2.694509             0.00773038241            0.000314566722           
       2.697150             0.00733709126            0.000301569096           
       2.699790             0.00744412261            0.000310070526           
       2.702430             0.00678323044            0.000290311651           
       2.705071             0.00741251662            0.000307632659           
       2.707711             0.00659898282            0.000287382301           
       2.710352             0.00672417988            0.000291746805           
       2.712992             0.00665662208            0.000291221289           
       2.715632             0.00749123653              0.0003071818           
       2.718273             0.00675604932             0.00029268773           
       2.720913              0.0067809465            0.000293716096           
       2.723553             0.00706195679            0.000298698726           
       2.726194             0.00614684897            0.000280018423           
       2.728834             0.00648694976            0.000285103642           
       2.731475             0.00687844384            0.000296146578           
       2.734115             0.00703195623            0.000297648783           
       2.736755             0.00763906841            0.000312282514           
       2.739396              0.0070460802            0.000298331165           
       2.742036             0.00688638518            0.000296944109           
       2.744677             0.00653581168             0.00028970989           
       2.747317             0.00736317786            0.000306006865           
       2.749957             0.00743030578            0.000309628625           
       2.752598             0.00695346791            0.000300430729           
       2.755238             0.00712485149            0.000303973522           
       2.757878             0.00717993884            0.000304277562           
       2.760519             0.00749476878            0.000307594649           
       2.763159             0.00738996403            0.000310402765           
       2.765800               0.007183425            0.000300850218           
       2.768440             0.00625948383            0.000284536258           
       2.771080             0.00683813272            0.000294891189           
       2.773721             0.00689261264            0.000299695647           
       2.776361             0.00748772696            0.000309010902           
       2.779001              0.0066030176            0.000293231978           
       2.781642             0.00663829827             0.00029200812           
       2.784282              0.0063009415            0.000284590732           
       2.786923             0.00672088172            0.000291685991           
       2.789563             0.00602183618            0.000276654958           
       2.792203             0.00672678989            0.000294261636           
       2.794844             0.00646920095            0.000287259505           
       2.797484             0.00649126931             0.00028815449           
       2.800125              0.0067475138            0.000293407275           
       2.802765             0.00658516136            0.000295229306           
       2.805405               0.007307953            0.000306520408           
       2.808046             0.00695271303            0.000303561997           
       2.810686             0.00661326007            0.000292904199           
       2.813326             0.00619287437            0.000286948617           
       2.815967             0.00667776624            0.000296092912           
       2.818607             0.00739785417            0.000314764025           
       2.821248             0.00723660299             0.00030743291           
       2.823888             0.00660730322            0.000298493205           
       2.826528             0.00668304305              0.0002984081           
       2.829169             0.00674302167            0.000298420844           
       2.831809             0.00674640206            0.000298757165           
       2.834449             0.00631242019            0.000283943995           
       2.837090              0.0068096696            0.000296690407           
       2.839730              0.0065283957            0.000288435413           
       2.842371             0.00697461251            0.000300207002           
       2.845011              0.0071056091            0.000302337313           
       2.847651             0.00667738822            0.000293623793           
       2.850292             0.00678594141            0.000294319032           
       2.852932              0.0073242929            0.000306319213           
       2.855573             0.00697359222             0.00030152077           
       2.858213             0.00698566368            0.000298395557           
       2.860853             0.00679061295            0.000296402289           
       2.863494              0.0072215875            0.000306399374           
       2.866134             0.00687409932            0.000303129924           
       2.868774             0.00704504321            0.000302178347           
       2.871415             0.00648031445            0.000292682546           
       2.874055             0.00635792211            0.000291341487           
       2.876696             0.00647865092            0.000291446373           
       2.879336             0.00628697734            0.000289008524           
       2.881976             0.00668472725            0.000297765217           
       2.884617             0.00730123671             0.00030946464           
       2.887257             0.00687717975            0.000298249193           
       2.889897             0.00649346237            0.000293131075           
       2.892538             0.00662271085            0.000293981456           
       2.895178             0.00665637866            0.000291722211           
       2.897819             0.00655102869            0.000292380977           
       2.900459             0.00690890979            0.000297775108           
       2.903099             0.00669757107            0.000294716207           
       2.905740             0.00694836664            0.000296832663           
       2.908380             0.00635484254             0.00028765635           
       2.911021             0.00678363449            0.000297767708           
       2.913661             0.00709706606            0.000301217349           
       2.916301             0.00680654435            0.000299184165           
       2.918942             0.00662070802            0.000290620104           
       2.921582               0.006647552             0.00029426395           
       2.924222             0.00702755042            0.000300802791           
       2.926863             0.00651138946            0.000290314519           
       2.929503             0.00688734221             0.00030189246           
       2.932144             0.00754399964             0.00031077448           
       2.934784             0.00675835469            0.000295397457           
       2.937424              0.0069636007            0.000300404008           
       2.940065             0.00646478458             0.00028968042           
       2.942705             0.00700281319            0.000302409901           
       2.945346             0.00690847445             0.00029859193           
       2.947986             0.00763434482            0.000314984334           
       2.950626             0.00894833397            0.000342064066           
       2.953267              0.0102117484            0.000361533089           
       2.955907             0.00885820052            0.000341173192           
       2.958547             0.00769783673            0.000314782326           
       2.961188             0.00726481255            0.000308470085           
       2.963828             0.00652954637             0.00029078646           
       2.966469             0.00722007768            0.000305852309           
       2.969109             0.00726954681            0.000308467882           
       2.971749              0.0089298012            0.000340877156           
       2.974390             0.00944193035            0.000351477459           
       2.977030             0.00913336759            0.000345028712           
       2.979670              0.0081693601            0.000324208769           
       2.982311             0.00660365055            0.000293593057           
       2.984951             0.00716771959            0.000306666064           
       2.987592             0.00749696498            0.000312571682           
       2.990232             0.00755090325            0.000314495118           
       2.992872             0.00847300521            0.000330538486           
       2.995513             0.00920932509            0.000347308404           
       2.998153               0.012599516            0.000408856783           
       3.000794              0.0236311401            0.000551785826           
       3.003434              0.0326549952            0.000655516802           
       3.006074              0.0224955189            0.000545826259           
       3.008715              0.0165277242            0.000471419391           
       3.011355               0.017367429            0.000488272061           
       3.013995              0.0167879429            0.000477709466           
       3.016636              0.0272915435            0.000610228771           
       3.019276               0.165414781             0.00153823342           
       3.021917               0.430142798             0.00243844311           
       3.024557               0.155012654             0.00147551383           
       3.027197              0.0748842861              0.0010427584           
       3.029838               0.124287004             0.00133696325           
       3.032478              0.0904897789             0.00114760851           
       3.035118              0.0596210013            0.000936318011           
       3.037759              0.0879745043             0.00113937419           
       3.040399              0.0691614672             0.00102178927           
       3.043040              0.0611961733            0.000970485696           
       3.045680              0.0535828174            0.000894126872           
       3.048320              0.0688855264             0.00103006365           
       3.050961              0.0685025682             0.00103749657           
       3.053601              0.0985784375                0.00123908           
       3.056242              0.0748155786             0.00108638844           
       3.058882                0.11140603             0.00134541528           
       3.061522               0.275455919             0.00210091557           
       3.064163              0.0620232651            0.000998732977           
       3.066803              0.0209872419            0.000592198878           
       3.069443              0.0275269983            0.000673700964           
       3.072084              0.0768342524             0.00113557037           
       3.074724               0.063527691             0.00103866404           
       3.077365              0.0130660539            0.000470711423           
       3.080005             0.00863909225            0.000386995645           
       3.082645             0.00851870539            0.000386246442           
       3.085286             0.00826442782             0.00038050756           
       3.087926             0.00814228922            0.000380088389           
       3.090566             0.00662782467            0.000346455512           
       3.093207             0.00792687029            0.000374796159           
       3.095847             0.00803190122            0.000385179046           
       3.098488             0.00885447764            0.000403688854           
       3.101128             0.00833328473            0.000393761041           
       3.103768             0.00801760071            0.000388406682           
       3.106409              0.0091344654            0.000417354626           
       3.109049             0.00878070777            0.000412374234           
       3.111690              0.0122572558            0.000485299692           
       3.114330              0.0182248573            0.000597025121           
       3.116970              0.0194026761             0.00062458475           
       3.119611              0.0149958962            0.000545521229           
       3.122251              0.0101499774            0.000452480849           
       3.124891             0.00854463533            0.000417174485           
       3.127532             0.00743716201            0.000396212581           
       3.130172             0.00972590562            0.000443774506           
       3.132813             0.00760669665            0.000400447484           
       3.135453             0.00678699882             0.00038623557           
       3.138093             0.00651935998            0.000369561764           
       3.140734              0.0059258552            0.000358895851           
       3.143374             0.00651619656            0.000382101469           
       3.146014             0.00699648466            0.000393058794           
       3.148655              0.0069876686            0.000395903746           
       3.151295              0.0075097712            0.000413676474           
       3.153936             0.00724264038            0.000412249726           
       3.156576             0.00630020581            0.000380079973           
       3.159216             0.00618821688            0.000379767628           
       3.161857             0.00644359983            0.000392278643           
       3.164497             0.00595025048            0.000384910749           
       3.167138             0.00594366524            0.000375468181           
       3.169778             0.00630094295            0.000393568913           
       3.172418              0.0060400352            0.000387586025           
       3.175059             0.00561444351            0.000378571925           
       3.177699             0.00604296251            0.000391202142           
       3.180339             0.00561044859            0.000380311769           
       3.182980             0.00597413021            0.000397742493           
       3.185620             0.00541399617            0.000382775128           
       3.188261             0.00549941267            0.000380728544           
       3.190901             0.00567429942            0.000392694121           
       3.193541             0.00584709316               0.000399942           
       3.196182             0.00632947624             0.00042477047           
       3.198822             0.00580951636            0.000402016173           
       3.201463             0.00544491009            0.000394229441           
       3.204103             0.00605980571            0.000421432514           
       3.206743             0.00598806854            0.000422472503           
       3.209384             0.00610573643             0.00042470148           
       3.212024             0.00604539227            0.000424098817           
       3.214664             0.00592166056            0.000427736654           
       3.217305             0.00572946998              0.0004305542           
       3.219945             0.00592098231            0.000434030883           
       3.222586             0.00607477084            0.000442119392           
       3.225226             0.00587950995            0.000444754692           
       3.227866             0.00596868776            0.000451581633           
       3.230507             0.00570428666            0.000446734183           
       3.233147             0.00601417148            0.000451923308           
       3.235787             0.00625090381            0.000460857098           
       3.238428             0.00566724361            0.000446564321           
       3.241068             0.00579181419            0.000460599828           
       3.243709             0.00600807353            0.000466516323           
       3.246349             0.00549621968            0.000443705228           
       3.248989              0.0065954789            0.000497165044           
       3.251630              0.0059135087             0.00047284325           
       3.254270             0.00592571903            0.000487880758           
       3.256911             0.00530961103            0.000450250525           
       3.259551             0.00558101279            0.000471814867           
       3.262191             0.00556567193            0.000475500623           
       3.264832             0.00546363781              0.0004755424           
       3.267472             0.00591758566            0.000501922016           
       3.270112             0.00586142714            0.000500956742           
       3.272753             0.00552770818            0.000492465338           
       3.275393             0.00505978522            0.000473585999           
       3.278034             0.00551135723            0.000504336285           
       3.280674             0.00484027718            0.000474006898           
       3.283314             0.00499429255             0.00048414965           
       3.285955             0.00489267186            0.000488199581           
       3.288595             0.00544664826            0.000520843463           
       3.291235             0.00564893826            0.000533543309           
       3.293876              0.0060219832            0.000554140595           
       3.296516             0.00568287377            0.000549291808           
       3.299157             0.00705370482            0.000621216176           
       3.301797              0.0050445443            0.000525568834           
       3.304437              0.0051904388            0.000543107734           
       3.307078             0.00545439691            0.000562154824           
       3.309718              0.0055781263             0.00057416996           
       3.312359             0.00571693739            0.000593015082           
       3.314999              0.0050940067            0.000565647678           
       3.317639             0.00464901545            0.000546195633           
       3.320280             0.00641778842            0.000651113347           
       3.322920             0.00417161059            0.000532801563           
       3.325560             0.00533850719            0.000614369555           
       3.328201              0.0060101993            0.000654630452           
       3.330841             0.00513527839            0.000619825955           
       3.333482             0.00487532442            0.000611602262           
       3.336122             0.00547607807            0.000662277844           
       3.338762             0.00589659297             0.00069352184           
       3.341403             0.00485720367            0.000635276919           
       3.344043             0.00470341364            0.000648998716           
       3.346683             0.00525581853            0.000693010918           
       3.349324             0.00646615088            0.000780574222           
       3.351964              0.0045448476            0.000675449858           
       3.354605             0.00458524878            0.000686128016           
       3.357245             0.00598185433            0.000811231408           
       3.359885             0.00657545437             0.00085083588           
       3.362526             0.00480033531            0.000764144707           
       3.365166             0.00467475003            0.000744772704           
       3.367807             0.00495823577            0.000821070705           
       3.370447             0.00469086072            0.000798935254           
       3.373087             0.00523485615            0.000890746503           
       3.375728             0.00457401239            0.000826332805           
       3.378368             0.00396777724            0.000831638947           
       3.381008             0.00524178349            0.000947539458           
       3.383649             0.00615801363             0.00111146725           
       3.386289             0.00491411927            0.000993295036           
       3.388930             0.00789006292             0.00138227886           
       3.391570             0.00476421401             0.00107456608           
       3.394210             0.00708886472              0.0014044593           
       3.396851             0.00445893673             0.00120658952           
       3.399491             0.00526928701             0.00133546111           
       3.402131             0.00365614848             0.00131678549           
       3.404772             0.00688300664             0.00180749999           
       3.407412             0.00355631554             0.00161219308           
       3.410053             0.00450096555             0.00188858504           
       3.412693             0.00444234992             0.00265452678           
       3.415333             0.00439214343             0.00323400889           
