################################################################################
# EDF_DataBlockID                     0.Image.Psd
# EDF_BinarySize                      2105344
# EDF_HeaderSize                      2560
# ByteOrder                           LowByteFirst
# DataType                            FloatValue
# Dim_1                               512
# Dim_2                               1028
# Image                               0
# HeaderID                            EH:000000:000000:000000
# Size                                2105344
# Center_1                            304.9000
# Center_2                            588.7000
# Comment                             Xenocs_Cell_Window - front_window_open_only
# DDummy                              0.6
# Date                                2025-10-18T23:50:22
# Delta                               21.910000
# Dummy                               -1.5
# ExposureTime                        360
# Gamma                               15.360000
# Intensity1                          9.05448e-10
# PSize_1                             7.5e-05
# PSize_2                             7.5e-05
# Pressure                            0.0332594
# SampleDistance                      0.115750
# SampleEnvKind                       large
# SampleEnvPN                         ElectroChemical cell
# SampleEnvSN                         1141
# Thickness                           0
# Wavelength                          1.541891e-10
# Wavelength                          1.54189e-10
# aux                                 0
# aux_dial                            0.002375
# beamx                               588.429
# beamx_dial                          588.429
# beamz                               657.855
# beamz_dial                          657.855
# det0x                               -0.000396875
# det0x_dial                          6.36905
# det0xvd                             -0.0005
# det0xvd_dial                        -0.0005
# det0y                               450.002
# det0y_dial                          481.635
# det0z                               0
# det0z_dial                          1.2295
# det0zvd                             0
# det0zvd_dial                        0
# mag                                 1.818
# mag_dial                            1.818
# om                                  0.2499
# om_dial                             -0.610199
# phi                                 -0.0120535
# phi_dial                            0
# ry                                  0.599993
# ry_dial                             0.599993
# s1bot                               0.8
# s1bot_dial                          -1.66094
# s1hl                                0.8
# s1hl_dial                           -0.608437
# s1hr                                0.8
# s1hr_dial                           0.970938
# s1top                               0.8
# s1top_dial                          -0.461562
# s2bot                               0.45
# s2bot_dial                          1.36109
# s2hl                                0.45
# s2hl_dial                           -0.83375
# s2hr                                0.45
# s2hr_dial                           -0.118594
# s2top                               0.45
# s2top_dial                          1.44734
# w2theta                             32
# w2theta_dial                        32
# waxsch                              19.2605
# waxsch_dial                         -32.7238
# waxsh                               137.085
# waxsh_dial                          -43.5335
# waxsth                              26.0607
# waxsth_dial                         -19.4068
# waxsz                               67.0407
# waxsz_dial                          -23.7962
# wind                                65.9854
# wind_dial                           66.0041
# wpsi                                124
# wpsi_dial                           124
# wstod                               115
# wstod_dial                          115
# x                                   0
# x_dial                              1.00969
# z                                   0
# z_dial                              13.3172
# CountCutoff                         6807993
# DetectorModel                       Dectris EIGER2 Si 500K, S/N E-01-0554
# ThresholdSetting                    4023.88989258
# Saturation                          0
# FlatField                           Corrected
# BackgroundReductionExtra            0.02
# BackgroundCorrectionConstant        0.0026712
# Detector                            0
# Monitor                             0
# Pil_Roi0                            0
# SumForIntensity1                    3.25961e+08
# TransmittedFlux                     905448
# det                                 0
# mon                                 0
# pilai0                              3.25961e+08
# pilai1                              703675
# pilct0                              5.6388e+08
# pilct1                              703675
# pilroi0                             0
# pilroi1                             0
# sec                                 1
# title                               20251017__1_00270.edf
# usaxs0                              0
# Operation                           Azimuthal average I(q)
# Error_model                         ErrorModel.poisson
# Geometrical_correction              True
# Transmission_correction             True
# Thickness_correction                False
# Binning mode                        Uniform
# Binning factor                      1.0
# Psi                                 0.0
# Omega                               0.2499
# MaskInvalidPixels                   True
# DetectorEdge                        3
# MaskFiles                           ['20251017__1_00233_mask.edf']
################################################################################
    q(A⁻¹)                Intensity(a.u.)            Sigma_I(a.u.)            
       0.690460           -2.24312099e-05                         0           
       0.693100              0.0015420133              0.0016088107           
       0.695741             0.00804372716             0.00310424273           
       0.698381             0.00609376343             0.00252706242           
       0.701021             0.00474864526             0.00182063507           
       0.703662             0.00640058464             0.00195654662           
       0.706302             0.00655087025             0.00191163833           
       0.708942             0.00640960452             0.00167963832           
       0.711583             0.00768561597             0.00183890778           
       0.714223             0.00847848593             0.00168307701           
       0.716864             0.00717524711             0.00157999231           
       0.719504             0.00587732273             0.00132343671           
       0.722144             0.00738781909             0.00143303642           
       0.724785             0.00691696707             0.00136389162           
       0.727425             0.00729798248             0.00129945511           
       0.730065             0.00967731127             0.00153967404           
       0.732706             0.00605575346             0.00109525028           
       0.735346             0.00637472261             0.00121381434           
       0.737987             0.00651453779             0.00106206566           
       0.740627             0.00928348513             0.00138890609           
       0.743267             0.00731686063             0.00106063335           
       0.745908             0.00824278558              0.0012064881           
       0.748548              0.0100336272             0.00124149572           
       0.751189             0.00625632133            0.000971101876           
       0.753829             0.00746229364             0.00107014233           
       0.756469             0.00646821537            0.000937082099           
       0.759110             0.00688054824            0.000999678889           
       0.761750              0.0071279425            0.000931213518           
       0.764390              0.0074692789             0.00102326068           
       0.767031               0.006615826            0.000871428654           
       0.769671             0.00601280557             0.00088105402           
       0.772312             0.00733261849            0.000886624492           
       0.774952             0.00657021502            0.000899738457           
       0.777592             0.00573309921            0.000768734373           
       0.780233             0.00626044113            0.000846858576           
       0.782873             0.00741702811            0.000842911849           
       0.785513             0.00680006999            0.000858555325           
       0.788154             0.00608889617            0.000746218324           
       0.790794             0.00730309091            0.000845820633           
       0.793435             0.00690661954            0.000790042802           
       0.796075             0.00651498256            0.000771370402           
       0.798715             0.00750895934            0.000823398007           
       0.801356             0.00804040329            0.000829235754           
       0.803996             0.00552495848            0.000698375501           
       0.806637             0.00703117112            0.000744717292           
       0.809277             0.00566318396            0.000699209514           
       0.811917             0.00823499601            0.000797872011           
       0.814558             0.00491931942            0.000631740614           
       0.817198              0.0076346883            0.000750417617           
       0.819838             0.00678129659            0.000737721802           
       0.822479              0.0064349121            0.000662259738           
       0.825119             0.00654325472            0.000717401191           
       0.827760             0.00664735406            0.000670012854           
       0.830400             0.00566939537            0.000651949326           
       0.833040             0.00563115209            0.000606398806           
       0.835681             0.00683923331            0.000699839627           
       0.838321              0.0059826133            0.000612643057           
       0.840961             0.00709726214            0.000697469139           
       0.843602             0.00732048293            0.000667239968           
       0.846242             0.00699404185            0.000675219903           
       0.848883             0.00637964738            0.000627324191           
       0.851523             0.00529020594            0.000575536113           
       0.854163             0.00614726748            0.000613200249           
       0.856804             0.00677282868            0.000627175899           
       0.859444             0.00703595156            0.000643838689           
       0.862085             0.00740026041            0.000650691805           
       0.864725             0.00808262508             0.00067753334           
       0.867365             0.00735750921            0.000641798183           
       0.870006             0.00681862036            0.000626467854           
       0.872646             0.00653838105             0.00058676093           
       0.875286             0.00666398029             0.00061255374           
       0.877927              0.0080541188            0.000644772453           
       0.880567             0.00748084524            0.000633541764           
       0.883208             0.00623772841            0.000561805542           
       0.885848             0.00704025801             0.00061233091           
       0.888488             0.00693801419            0.000577973569           
       0.891129             0.00675509603            0.000599491097           
       0.893769             0.00658352735            0.000559425529           
       0.896410             0.00683481341            0.000587559873           
       0.899050             0.00767510927            0.000600338716           
       0.901690             0.00724690497             0.00059552823           
       0.904331             0.00698981269            0.000564449845           
       0.906971             0.00624773757            0.000551041477           
       0.909611             0.00627402548            0.000530018724           
       0.912252             0.00709596173            0.000573435729           
       0.914892             0.00713266757            0.000560354986           
       0.917533             0.00698725538            0.000567127971           
       0.920173             0.00767487813            0.000570157325           
       0.922813             0.00666983951             0.00055544411           
       0.925454              0.0066732177               0.000527283           
       0.928094             0.00751576717            0.000571592033           
       0.930734             0.00651096709             0.00051931616           
       0.933375             0.00683419498            0.000543392304           
       0.936015             0.00637190297            0.000502033988           
       0.938656             0.00820920484            0.000593737024           
       0.941296              0.0078358806            0.000559194885           
       0.943936             0.00753751942            0.000558322904           
       0.946577             0.00758571163            0.000539415658           
       0.949217             0.00786326416            0.000568590807           
       0.951858             0.00684622178            0.000501569866           
       0.954498             0.00769512099            0.000559432068           
       0.957138             0.00781524786            0.000541877898           
       0.959779             0.00760642987            0.000546282581           
       0.962419             0.00766475481            0.000527916277           
       0.965059             0.00697356328            0.000517853878           
       0.967700             0.00751676104             0.00052025824           
       0.970340             0.00735308085            0.000529021705           
       0.972981             0.00721035686            0.000505804174           
       0.975621             0.00756299183            0.000528871679           
       0.978261             0.00788289306            0.000515171425           
       0.980902             0.00750166734            0.000526489392           
       0.983542             0.00718743559            0.000500339192           
       0.986182             0.00741176765            0.000514778551           
       0.988823             0.00770688066            0.000507989865           
       0.991463             0.00667052247            0.000483890202           
       0.994104             0.00793092095            0.000509844086           
       0.996744             0.00716017622            0.000500146855           
       0.999384             0.00776400007            0.000503132516           
       1.002025             0.00796603943            0.000523826641           
       1.004665             0.00801886261            0.000504032506           
       1.007306             0.00754440312            0.000505275763           
       1.009946             0.00719994003            0.000474617763           
       1.012586             0.00790990912            0.000511778081           
       1.015227             0.00719424187            0.000473303294           
       1.017867             0.00804188137            0.000514749918           
       1.020507             0.00746903465            0.000477402536           
       1.023148             0.00775844725            0.000492440854           
       1.025788              0.0070778704            0.000465530331           
       1.028429             0.00707319102            0.000475549897           
       1.031069             0.00801586752            0.000487745261           
       1.033709              0.0078198264             0.00049099493           
       1.036350             0.00807293713            0.000485796311           
       1.038990             0.00794330172            0.000493776623           
       1.041630             0.00791333269             0.00048336267           
       1.044271             0.00848209604            0.000500488093           
       1.046911             0.00757433399             0.00046416177           
       1.049552             0.00797017475            0.000493294864           
       1.052192              0.0071651598            0.000446686974           
       1.054832             0.00766096437             0.00047086537           
       1.057473             0.00753256329            0.000460991905           
       1.060113             0.00747490846            0.000464197083           
       1.062754              0.0091920172            0.000509066819           
       1.065394             0.00849746114            0.000484306625           
       1.068034             0.00849393895            0.000482331632           
       1.070675             0.00859942099            0.000493853473           
       1.073315             0.00885835545            0.000485912399           
       1.075955             0.00857259587            0.000486027583           
       1.078596             0.00721727944            0.000445073995           
       1.081236             0.00823353572            0.000468326682           
       1.083877             0.00895867823             0.00050377536           
       1.086517             0.00774237457            0.000457735808           
       1.089157             0.00837090659            0.000479442533           
       1.091798             0.00865340525            0.000477137374           
       1.094438             0.00909952731            0.000497058291           
       1.097078             0.00739782248             0.00043666026           
       1.099719             0.00824757772             0.00047287375           
       1.102359             0.00834392812            0.000450571457           
       1.105000             0.00832566989            0.000467803949           
       1.107640              0.0082246803            0.000449801585           
       1.110280             0.00902676059            0.000480659589           
       1.112921             0.00885433203             0.00046743295           
       1.115561             0.00838736558            0.000460713575           
       1.118202             0.00847719362            0.000449655542           
       1.120842             0.00766629329            0.000441081751           
       1.123482              0.0092278362            0.000470348198           
       1.126123             0.00854373438             0.00045540245           
       1.128763             0.00779678767            0.000432882382           
       1.131403             0.00866748269             0.00045570406           
       1.134044             0.00821647064            0.000442919305           
       1.136684             0.00817911336            0.000445232297           
       1.139325              0.0079385021            0.000426275808           
       1.141965             0.00835396456            0.000443007209           
       1.144605             0.00779597967            0.000430470453           
       1.147246             0.00861914244            0.000444054338           
       1.149886             0.00866748986            0.000448464922           
       1.152527             0.00792301661            0.000429202305           
       1.155167             0.00834552385            0.000434304214           
       1.157807             0.00820348145            0.000430889026           
       1.160448             0.00906756271             0.00045921227           
       1.163088             0.00909709156            0.000442895032           
       1.165728             0.00862510255            0.000449027947           
       1.168369             0.00926779881            0.000448840397           
       1.171009             0.00852168961            0.000433962623           
       1.173650             0.00939372582            0.000452340331           
       1.176290              0.0089610779            0.000446984755           
       1.178930             0.00890308288            0.000433011466           
       1.181571             0.00856743022            0.000438644294           
       1.184211             0.00910873052            0.000438629257           
       1.186851             0.00903390521            0.000440851698           
       1.189492             0.00902983189            0.000443199797           
       1.192132             0.00979710668            0.000454808457           
       1.194773             0.00958969995            0.000447253822           
       1.197413             0.00860611859            0.000427153093           
       1.200053             0.00927793639            0.000440721753           
       1.202694              0.0088939836            0.000428254405           
       1.205334             0.00894338842            0.000434136662           
       1.207975             0.00864004991            0.000418349889           
       1.210615             0.00917755665            0.000440284074           
       1.213255              0.0096822095              0.0004402634           
       1.215896             0.00867620215            0.000424663772           
       1.218536             0.00921201154            0.000424976799           
       1.221176             0.00971409343            0.000446820851           
       1.223817             0.00991836877            0.000442086402           
       1.226457             0.00948869814            0.000437896896           
       1.229098              0.0099381943            0.000441350062           
       1.231738             0.00958331911            0.000439501441           
       1.234378             0.00926130863            0.000423659504           
       1.237019             0.00934540703            0.000429011384           
       1.239659             0.00963585796            0.000435391414           
       1.242299             0.00946196575            0.000429239223           
       1.244940              0.0101236541            0.000439201665           
       1.247580             0.00986732652            0.000435520361           
       1.250221             0.00985548037             0.00044236376           
       1.252861             0.00947564916            0.000417595426           
       1.255501             0.00923736629            0.000423952645           
       1.258142             0.00856282547            0.000400110394           
       1.260782              0.0098479846            0.000433933438           
       1.263423              0.0100639423            0.000429974774           
       1.266063             0.00914404425            0.000417492057           
       1.268703             0.00975012583            0.000420244377           
       1.271344              0.0102688201            0.000440671008           
       1.273984             0.00922391459            0.000411129558           
       1.276624              0.0101361234             0.00042835029           
       1.279265             0.00992970282            0.000424891867           
       1.281905              0.0095482417            0.000419218738           
       1.284546              0.0100015481            0.000424367462           
       1.287186             0.00956783044            0.000415462874           
       1.289826             0.00997638561             0.00042644045           
       1.292467             0.00901256408             0.00039808391           
       1.295107              0.0101961338            0.000430880245           
       1.297747             0.00965703123            0.000408335596           
       1.300388             0.00999084802            0.000425998587           
       1.303028              0.0096705205            0.000408456025           
       1.305669             0.00980515546            0.000416603352           
       1.308309              0.0105287257            0.000425210291           
       1.310949              0.0101894829            0.000423517643           
       1.313590              0.0100011697            0.000413092424           
       1.316230              0.0103057217            0.000426882976           
       1.318871             0.00997122323             0.00041083935           
       1.321511             0.00958411998            0.000404804084           
       1.324151              0.0108707793            0.000432824478           
       1.326792              0.0103175045            0.000418250487           
       1.329432              0.0100832323            0.000415631571           
       1.332072              0.0102957994            0.000412787935           
       1.334713              0.0109673755            0.000431321653           
       1.337353              0.0107072914            0.000419621118           
       1.339994              0.0110715296            0.000432776425           
       1.342634              0.0101988628            0.000406019505           
       1.345274              0.0118005789             0.00044244933           
       1.347915               0.010902562            0.000426411819           
       1.350555              0.0106767827            0.000420324916           
       1.353195              0.0110602224             0.00041962189           
       1.355836              0.0102444008            0.000411469225           
       1.358476              0.0106379691            0.000418119361           
       1.361117              0.0102509852            0.000400147455           
       1.363757              0.0096718909            0.000401561833           
       1.366397              0.0109916367            0.000414752074           
       1.369038               0.010854605            0.000420845768           
       1.371678              0.0102731066            0.000401150896           
       1.374319              0.0100774544            0.000400463686           
       1.376959              0.0107048104            0.000407058448           
       1.379599                0.01005421            0.000402184259           
       1.382240              0.0103894355            0.000401068839           
       1.384880              0.0109153014            0.000416141081           
       1.387520              0.0103326289            0.000400147887           
       1.390161              0.0101391235            0.000395305919           
       1.392801              0.0103043133            0.000400888347           
       1.395442              0.0102990769            0.000396633765           
       1.398082              0.0101259232            0.000394631285           
       1.400722              0.0106974334            0.000403782583           
       1.403363              0.0108357715            0.000410156204           
       1.406003              0.0103044269            0.000390152149           
       1.408644              0.0103135457            0.000398519111           
       1.411284              0.0104900153            0.000399709905           
       1.413924              0.0103980569            0.000393045832           
       1.416565              0.0100290724            0.000385555278           
       1.419205              0.0110252111             0.00040823178           
       1.421845              0.0100312058            0.000384499227           
       1.424486              0.0103717576            0.000392697519           
       1.427126              0.0103274867            0.000391611287           
       1.429767              0.0103220835            0.000385475735           
       1.432407              0.0116880614            0.000420522818           
       1.435047               0.010671088            0.000389737098           
       1.437688              0.0100997393            0.000387556422           
       1.440328              0.0106271591            0.000389843013           
       1.442968              0.0101199554            0.000385692461           
       1.445609              0.0105335242              0.0003870223           
       1.448249              0.0106578199            0.000391816193           
       1.450890              0.0101014381            0.000378730813           
       1.453530              0.0102909694            0.000385098828           
       1.456170               0.011107377            0.000399182006           
       1.458811              0.0105252449            0.000385489302           
       1.461451               0.010309821            0.000384328475           
       1.464092              0.0103946609            0.000382542746           
       1.466732               0.010486544            0.000381873065           
       1.469372               0.010795173            0.000386260773           
       1.472013              0.0101456691            0.000381160059           
       1.474653              0.0109399833            0.000386026631           
       1.477293               0.010412696            0.000382948052           
       1.479934              0.0109788861            0.000389106002           
       1.482574              0.0104678196            0.000379003966           
       1.485215              0.0102785342            0.000376528713           
       1.487855              0.0106688376            0.000383531761           
       1.490495              0.0110971816            0.000390313316           
       1.493136              0.0105626913            0.000375803867           
       1.495776              0.0105898083            0.000382846352           
       1.498416              0.0104977853            0.000373774066           
       1.501057             0.00974148318            0.000363155306           
       1.503697              0.0104280334             0.00037212191           
       1.506338              0.0106039609            0.000378007351           
       1.508978              0.0095738557            0.000357057207           
       1.511618             0.00921307527             0.00035008793           
       1.514259              0.0102918343             0.00037068488           
       1.516899             0.00970497215            0.000360128775           
       1.519540              0.0103125898            0.000369171157           
       1.522180              0.0100497101            0.000359884299           
       1.524820              0.0100332292            0.000366851902           
       1.527461              0.0102937452            0.000363363953           
       1.530101             0.00958849774            0.000354321633           
       1.532741             0.00971254422            0.000354916648           
       1.535382              0.0101772883             0.00036410888           
       1.538022             0.00953896153            0.000349386593           
       1.540663              0.0104137282            0.000368505563           
       1.543303             0.00956306092            0.000348739384           
       1.545943              0.0102769778            0.000363548522           
       1.548584              0.0102541304            0.000365077942           
       1.551224             0.00983417087            0.000348357999           
       1.553864             0.00991981049            0.000359011362           
       1.556505              0.0104772039             0.00036328422           
       1.559145              0.0107490526            0.000368817715           
       1.561786              0.0100829569            0.000355589311           
       1.564426              0.0101840422            0.000357044531           
       1.567066             0.00995651199            0.000350278014           
       1.569707              0.0097004494            0.000350749934           
       1.572347              0.0088657617             0.00033096967           
       1.574988             0.00884036754            0.000329187882           
       1.577628             0.00889244733            0.000337589499           
       1.580268             0.00935627198            0.000334331709           
       1.582909              0.0088509603            0.000331260296           
       1.585549             0.00883221022            0.000327816784           
       1.588189             0.00891080218            0.000332949706           
       1.590830             0.00890233626            0.000327078934           
       1.593470             0.00914476922            0.000334209754           
       1.596111              0.0093993868             0.00033590276           
       1.598751             0.00927878916            0.000337152676           
       1.601391             0.00888539904            0.000327818777           
       1.604032             0.00901613905            0.000327464105           
       1.606672             0.00853287265             0.00032497891           
       1.609312             0.00916782444            0.000326830084           
       1.611953             0.00873144526            0.000323579299           
       1.614593             0.00910654938            0.000327943355           
       1.617234             0.00853222888            0.000319233131           
       1.619874             0.00894772663            0.000323067768           
       1.622514             0.00841682744            0.000316108059           
       1.625155             0.00837971334            0.000314630325           
       1.627795             0.00894376409            0.000321762353           
       1.630436             0.00880843065            0.000322528291           
       1.633076             0.00916472194            0.000327315121           
       1.635716             0.00914606467            0.000326411567           
       1.638357             0.00817982359            0.000307376921           
       1.640997             0.00917071913            0.000328007759           
       1.643637              0.0085850762            0.000311468588           
       1.646278             0.00833323431             0.00031145943           
       1.648918             0.00904364826            0.000320280994           
       1.651559             0.00872993911            0.000318633458           
       1.654199             0.00880748763            0.000315658589           
       1.656839             0.00846440213            0.000309366144           
       1.659480             0.00861860932            0.000314920859           
       1.662120             0.00891081197            0.000315923856           
       1.664761             0.00818321898            0.000306029133           
       1.667401             0.00858974221            0.000310617524           
       1.670041             0.00830793531            0.000305829344           
       1.672682             0.00862426356            0.000308665165           
       1.675322             0.00904703477            0.000321729867           
       1.677962             0.00846473846             0.00030502338           
       1.680603              0.0083020109            0.000304758162           
       1.683243             0.00826547608            0.000301837296           
       1.685884             0.00827556537            0.000303170758           
       1.688524             0.00758380633            0.000289406636           
       1.691164             0.00824948227            0.000301065171           
       1.693805             0.00846233263            0.000307390237           
       1.696445              0.0080160319            0.000295022263           
       1.699085             0.00884803568             0.00031119236           
       1.701726             0.00816954611            0.000295133356           
       1.704366             0.00842685875            0.000307038641           
       1.707007             0.00805957584            0.000293865352           
       1.709647             0.00821605584            0.000300390966           
       1.712287             0.00838518651            0.000298395524           
       1.714928             0.00766059495              0.0002880795           
       1.717568             0.00843536847            0.000299516708           
       1.720209             0.00850640355            0.000302632515           
       1.722849             0.00813427588            0.000296413397           
       1.725489             0.00825942308            0.000293924185           
       1.728130             0.00812555274            0.000297467157           
       1.730770             0.00850384305            0.000297880349           
       1.733410             0.00801895517            0.000293060511           
       1.736051             0.00861001697            0.000298955443           
       1.738691             0.00838566154            0.000298046183           
       1.741332              0.0083465324            0.000295519568           
       1.743972             0.00855609393            0.000299317444           
       1.746612             0.00894591744            0.000306130499           
       1.749253             0.00798865767            0.000290538619           
       1.751893             0.00913056093            0.000308746682           
       1.754533             0.00849532782            0.000293725565           
       1.757174             0.00828383528            0.000295469243           
       1.759814              0.0085212647            0.000295104977           
       1.762455             0.00822821404            0.000292454957           
       1.765095             0.00799847263            0.000284293932           
       1.767735             0.00845994423            0.000297348322           
       1.770376             0.00824060053            0.000289017769           
       1.773016             0.00840282725            0.000292309346           
       1.775657             0.00835508327            0.000292074898           
       1.778297             0.00803198117            0.000287772693           
       1.780937             0.00801676442            0.000286158364           
       1.783578             0.00817137983            0.000287548072           
       1.786218             0.00881392134            0.000303405112           
       1.788858              0.0080177832              0.0002821883           
       1.791499             0.00885193716            0.000301968929           
       1.794139             0.00857792274            0.000291769256           
       1.796780              0.0092404261             0.00030462626           
       1.799420             0.00887628763            0.000298183594           
       1.802060             0.00906743622            0.000297670392           
       1.804701             0.00888711204            0.000298649228           
       1.807341             0.00938792043            0.000303982751           
       1.809981             0.00857318405            0.000292421998           
       1.812622             0.00938089457            0.000304220498           
       1.815262             0.00920359531            0.000302406316           
       1.817903             0.00862454802             0.00028912214           
       1.820543             0.00841655654            0.000289144811           
       1.823183             0.00919548092            0.000297571741           
       1.825824             0.00881311489            0.000295700198           
       1.828464              0.0088754444            0.000295833542           
       1.831105             0.00848714385            0.000290409788           
       1.833745             0.00870306043            0.000293897104           
       1.836385               0.007864496            0.000278293042           
       1.839026             0.00844101642            0.000292647065           
       1.841666             0.00855973633            0.000290871302           
       1.844306             0.00895979669            0.000301347961           
       1.846947             0.00832437971            0.000286733163           
       1.849587             0.00863027004            0.000295913557           
       1.852228             0.00821721836            0.000285674358           
       1.854868             0.00830889895            0.000292532207           
       1.857508             0.00853969133            0.000291091081           
       1.860149             0.00849196909            0.000292603295           
       1.862789             0.00842741974             0.00029277892           
       1.865429             0.00842657939             0.00029364697           
       1.868070             0.00850722831            0.000294029317           
       1.870710             0.00878491319              0.0002996032           
       1.873351             0.00850653022            0.000296700103           
       1.875991               0.008483047            0.000297893012           
       1.878631             0.00875184479            0.000299763478           
       1.881272             0.00879787424            0.000299846703           
       1.883912             0.00891369656            0.000305353579           
       1.886553             0.00864652744            0.000297135049           
       1.889193             0.00853357479             0.00029859778           
       1.891833              0.0086978415            0.000298027446           
       1.894474             0.00821370798            0.000291906545           
       1.897114             0.00833817139            0.000291828558           
       1.899754             0.00883372528             0.00030374404           
       1.902395             0.00849116875            0.000297859964           
       1.905035             0.00864535775             0.00029937434           
       1.907676             0.00795165333            0.000287446091           
       1.910316             0.00841802405            0.000297641242           
       1.912956             0.00820733648            0.000293881256           
       1.915597             0.00851977923            0.000296301248           
       1.918237             0.00873977846            0.000304657931           
       1.920878             0.00838640093            0.000293153647           
       1.923518              0.0090084329            0.000311903388           
       1.926158             0.00839724608            0.000294217026           
       1.928799             0.00863894144            0.000302386729           
       1.931439             0.00846564969            0.000296939641           
       1.934079             0.00835225628            0.000297931115           
       1.936720             0.00788387473            0.000287753169           
       1.939360             0.00785081356            0.000289916677           
       1.942001               0.007942122            0.000290475961           
       1.944641             0.00909607233            0.000309523339           
       1.947281             0.00797926442             0.00029130038           
       1.949922             0.00855890147            0.000302072971           
       1.952562             0.00833719914            0.000300700454           
       1.955202             0.00763420828            0.000280514325           
       1.957843             0.00832558408            0.000302246939           
       1.960483              0.0075381831            0.000283011921           
       1.963124             0.00800965177            0.000291511728           
       1.965764             0.00743997208             0.00028105422           
       1.968404             0.00819181981            0.000300187187           
       1.971045             0.00789687785            0.000287345472           
       1.973685             0.00769594728            0.000288959843           
       1.976326             0.00737334932            0.000281605576           
       1.978966             0.00781554624            0.000291298832           
       1.981606              0.0084472099            0.000299639008           
       1.984247             0.00782271692            0.000290864696           
       1.986887             0.00781115198            0.000293367877           
       1.989527             0.00827563231            0.000295673359           
       1.992168             0.00787399211            0.000295367638           
       1.994808             0.00763123249            0.000287396614           
       1.997449             0.00815264964            0.000296617208           
       2.000089             0.00733818714            0.000279754132           
       2.002729             0.00758247041            0.000290888656           
       2.005370             0.00795138173            0.000292218392           
       2.008010             0.00778482591            0.000292980516           
       2.010650             0.00765454902            0.000289687613           
       2.013291             0.00799474692            0.000297740175           
       2.015931             0.00781583524            0.000292282829           
       2.018572             0.00795222936            0.000298737678           
       2.021212             0.00813541547            0.000299447133           
       2.023852             0.00744393107            0.000287943269           
       2.026493             0.00837402398            0.000304064314           
       2.029133             0.00772618291            0.000289837883           
       2.031774             0.00775236076            0.000293143991           
       2.034414             0.00759238666            0.000288372347           
       2.037054             0.00764486076            0.000293015859           
       2.039695              0.0078241079             0.00029059217           
       2.042335             0.00693071621            0.000278154213           
       2.044975             0.00733091985             0.00028378598           
       2.047616             0.00762048541            0.000290576187           
       2.050256             0.00751336835            0.000285132796           
       2.052897             0.00746218703            0.000292575952           
       2.055537             0.00749597299            0.000285242745           
       2.058177             0.00732955908            0.000284550217           
       2.060818             0.00746499938            0.000288029352           
       2.063458             0.00738347388            0.000286846785           
       2.066098             0.00777273541            0.000293004959           
       2.068739             0.00849708599            0.000309547883           
       2.071379             0.00714431997            0.000279648138           
       2.074020             0.00771928669            0.000294663864           
       2.076660              0.0070659639            0.000280007796           
       2.079300              0.0078156419            0.000294444752           
       2.081941             0.00703775459            0.000281106468           
       2.084581              0.0071556674            0.000283661524           
       2.087222             0.00734040924            0.000287495633           
       2.089862             0.00723401823            0.000281847279           
       2.092502             0.00791809389            0.000300230388           
       2.095143             0.00774401949            0.000292668433           
       2.097783             0.00725193933             0.00028752694           
       2.100423             0.00773896627             0.00029132962           
       2.103064             0.00778539016            0.000297247204           
       2.105704             0.00760252448            0.000292611821           
       2.108345             0.00736604718             0.00028934733           
       2.110985             0.00743469296            0.000286609403           
       2.113625             0.00795147177            0.000301073098           
       2.116266             0.00736823376             0.00028767592           
       2.118906             0.00714386593            0.000283056133           
       2.121546             0.00729987621            0.000285902994           
       2.124187             0.00741824686            0.000292198136           
       2.126827             0.00730107189            0.000285335083           
       2.129468             0.00751992837            0.000292602061           
       2.132108             0.00675828265            0.000276814674           
       2.134748             0.00740090666            0.000288584893           
       2.137389             0.00690305737            0.000281043933           
       2.140029              0.0072362159            0.000287047182           
       2.142670             0.00721149032             0.00028702458           
       2.145310             0.00705709111            0.000285020104           
       2.147950             0.00756538533            0.000296246913           
       2.150591             0.00710273029            0.000284413182           
       2.153231             0.00776826552            0.000301837241           
       2.155871             0.00717634392            0.000285919978           
       2.158512             0.00741044619            0.000295781529           
       2.161152             0.00752867799            0.000290684473           
       2.163793             0.00767326177             0.00029823745           
       2.166433             0.00726438057             0.00028515062           
       2.169073             0.00728955503            0.000292313412           
       2.171714             0.00719012053            0.000284402528           
       2.174354             0.00770480166            0.000298904432           
       2.176995             0.00694096604            0.000281348119           
       2.179635             0.00723651715            0.000292712419           
       2.182275             0.00753411493            0.000292741737           
       2.184916              0.0071435656            0.000291077843           
       2.187556             0.00734441777            0.000290390009           
       2.190196             0.00716163446            0.000291260885           
       2.192837             0.00739590045            0.000292745089           
       2.195477             0.00744817034            0.000296611577           
       2.198118             0.00785286552            0.000298940389           
       2.200758             0.00767537848            0.000300132391           
       2.203398             0.00767167225            0.000295083888           
       2.206039             0.00715337522            0.000289296973           
       2.208679             0.00650724759            0.000273221468           
       2.211319             0.00717863542            0.000288321161           
       2.213960             0.00692146799            0.000280099512           
       2.216600             0.00697247307            0.000287753517           
       2.219241             0.00730935056             0.00029033964           
       2.221881             0.00732425573            0.000292150453           
       2.224521             0.00725727935             0.00028980293           
       2.227162             0.00755802299            0.000300391994           
       2.229802             0.00734102418            0.000291242733           
       2.232443             0.00727183354            0.000291006549           
       2.235083              0.0072689095            0.000289203422           
       2.237723             0.00691554307            0.000284248024           
       2.240364             0.00726159312            0.000289791492           
       2.243004             0.00747010583            0.000294810616           
       2.245644             0.00677914051            0.000280196695           
       2.248285             0.00734609468            0.000293571638           
       2.250925             0.00774321788            0.000299992895           
       2.253566             0.00707436112            0.000287444818           
       2.256206             0.00735490349            0.000292210956           
       2.258846              0.0072891954            0.000290905328           
       2.261487             0.00664437476            0.000278220778           
       2.264127             0.00715440742             0.00029143332           
       2.266767              0.0073231826             0.00029008513           
       2.269408             0.00701305313            0.000287247822           
       2.272048             0.00724107625            0.000290084811           
       2.274689             0.00743160966            0.000295032114           
       2.277329             0.00691768362            0.000284269798           
       2.279969             0.00650448407            0.000276484719           
       2.282610             0.00707805172            0.000285604816           
       2.285250             0.00757818375            0.000300170809           
       2.287891             0.00703483899            0.000286291335           
       2.290531             0.00713550804            0.000289754344           
       2.293171             0.00723741881            0.000291801786           
       2.295812             0.00733853731            0.000292273647           
       2.298452             0.00723330409            0.000292028968           
       2.301092             0.00719520228            0.000293108949           
       2.303733             0.00683131626            0.000279951992           
       2.306373             0.00659732831            0.000281844817           
       2.309014              0.0069546875            0.000283801182           
       2.311654             0.00697009126            0.000286811688           
       2.314294             0.00698971319            0.000286588086           
       2.316935             0.00663389263             0.00028030171           
       2.319575             0.00696410413            0.000286117775           
       2.322215             0.00769924541            0.000305127405           
       2.324856               0.007388008            0.000291390487           
       2.327496             0.00701182843            0.000290832277           
       2.330137              0.0069501314            0.000284209911           
       2.332777             0.00759297398            0.000300312105           
       2.335417             0.00684319952            0.000284243633           
       2.338058             0.00695186655            0.000287638204           
       2.340698             0.00738421622            0.000293528904           
       2.343339             0.00815133902            0.000314284237           
       2.345979              0.0069004897            0.000283396329           
       2.348619             0.00685344217            0.000287762166           
       2.351260             0.00715336708            0.000287741931           
       2.353900             0.00719873632            0.000294767369           
       2.356540             0.00712264352            0.000289172816           
       2.359181             0.00689760808            0.000288373322           
       2.361821             0.00705323644            0.000288055366           
       2.364462             0.00686591409            0.000288954353           
       2.367102             0.00727452316            0.000288827398           
       2.369742              0.0075432203            0.000304653293           
       2.372383             0.00739710722            0.000292893793           
       2.375023             0.00755269843            0.000303669081           
       2.377663             0.00740629221            0.000294321134           
       2.380304             0.00666765484            0.000283133066           
       2.382944              0.0070805438            0.000288914001           
       2.385585             0.00734349464            0.000297011363           
       2.388225              0.0072265513            0.000293305717           
       2.390865             0.00722514081            0.000294028091           
       2.393506             0.00701007548            0.000288284279           
       2.396146              0.0075650618            0.000300471262           
       2.398787             0.00695915232              0.0002884394           
       2.401427             0.00687264675            0.000284900598           
       2.404067             0.00670945301            0.000285794245           
       2.406708             0.00672070733            0.000282438673           
       2.409348             0.00671738697            0.000284493079           
       2.411988             0.00736884573            0.000297017476           
       2.414629             0.00722055982            0.000294975788           
       2.417269             0.00661335208            0.000279736879           
       2.419910             0.00713619524            0.000294248875           
       2.422550             0.00718596249            0.000290790942           
       2.425190             0.00789099183            0.000314316425           
       2.427831             0.00648851259            0.000274299825           
       2.430471             0.00735080503            0.000300492366           
       2.433112             0.00688415727            0.000283936253           
       2.435752             0.00708049975            0.000295246807           
       2.438392             0.00694012094            0.000287392251           
       2.441033             0.00729706431            0.000296040534           
       2.443673             0.00674641297            0.000285411677           
       2.446313             0.00756790087            0.000300678869           
       2.448954             0.00742250301            0.000300389363           
       2.451594             0.00735675445            0.000297261592           
       2.454235             0.00694308274            0.000287884574           
       2.456875             0.00691325096            0.000288720539           
       2.459515             0.00757309904            0.000302651238           
       2.462156             0.00770232626            0.000303649146           
       2.464796             0.00753505836            0.000305631627           
       2.467436             0.00759443498            0.000300399654           
       2.470077             0.00840416501            0.000320366281           
       2.472717             0.00838961609            0.000316083722           
       2.475358             0.00813718198            0.000314818886           
       2.477998             0.00779132159            0.000306412243           
       2.480638             0.00722160892            0.000295713729           
       2.483279             0.00739600763            0.000300548736           
       2.485919             0.00723701164            0.000295218972           
       2.488560             0.00733412137            0.000298425803           
       2.491200             0.00716448116            0.000294549884           
       2.493840             0.00694434215            0.000288410476           
       2.496481             0.00682782054             0.00028972029           
       2.499121             0.00706056405             0.00029069415           
       2.501761             0.00707777757            0.000295990448           
       2.504402             0.00685706233            0.000285755543           
       2.507042             0.00772093292            0.000308262401           
       2.509683             0.00695744042            0.000289959425           
       2.512323             0.00737005573            0.000299602251           
       2.514963              0.0131410948             0.00040085594           
       2.517604               0.027870984            0.000581493864           
       2.520244              0.0370833312            0.000670893061           
       2.522884             0.00879235941            0.000325960965           
       2.525525              0.0100352666              0.0003510994           
       2.528165              0.0168446292            0.000452802021           
       2.530806              0.0212098272            0.000506189229           
       2.533446              0.0128115462            0.000396905873           
       2.536086               0.011445009            0.000371992789           
       2.538727              0.0115506767            0.000376101864           
       2.541367              0.0103725993            0.000355387337           
       2.544008              0.0075084663            0.000302622707           
       2.546648             0.00766241107            0.000306056417           
       2.549288             0.00682404173            0.000288869783           
       2.551929             0.00700537926            0.000293649514           
       2.554569             0.00755979762            0.000302260655           
       2.557209             0.00707354647            0.000295681817           
       2.559850             0.00755250602             0.00030201506           
       2.562490             0.00743343183            0.000301806413           
       2.565131             0.00690208106            0.000291325684           
       2.567771             0.00664888832            0.000284416884           
       2.570411             0.00688231982              0.0002928878           
       2.573052             0.00740408695            0.000300241219           
       2.575692             0.00715321645            0.000295893745           
       2.578332             0.00693255039            0.000290433555           
       2.580973             0.00699326652             0.00029406774           
       2.583613             0.00690619592            0.000289568285           
       2.586254             0.00693515386            0.000292741888           
       2.588894             0.00620516806            0.000275429671           
       2.591534             0.00727953048            0.000298870969           
       2.594175             0.00670626732            0.000288526804           
       2.596815             0.00694104674            0.000290804729           
       2.599456             0.00660738563            0.000286050448           
       2.602096             0.00719007425            0.000297280352           
       2.604736             0.00671150351            0.000287969801           
       2.607377             0.00719421826            0.000297005752           
       2.610017              0.0070072684            0.000293018926           
       2.612657             0.00689814173            0.000292782017           
       2.615298             0.00663731976             0.00028438432           
       2.617938             0.00663393333            0.000286798956           
       2.620579             0.00750643575            0.000302584543           
       2.623219             0.00695327101            0.000295880515           
       2.625859             0.00725244525            0.000297085958           
       2.628500             0.00673488265            0.000290864665           
       2.631140             0.00742905579            0.000300099895           
       2.633780              0.0067652005             0.00029005607           
       2.636421             0.00665827466            0.000285136257           
       2.639061             0.00698926214            0.000295630377           
       2.641702             0.00698739932            0.000292431109           
       2.644342             0.00701443349            0.000295399744           
       2.646982             0.00701037481            0.000295063556           
       2.649623             0.00729628139            0.000302824844           
       2.652263             0.00703030935            0.000294888818           
       2.654904             0.00733556341            0.000302858353           
       2.657544              0.0074310464            0.000302678432           
       2.660184             0.00708003485            0.000295821233           
       2.662825             0.00731552245            0.000301421373           
       2.665465             0.00648613659            0.000284345854           
       2.668105             0.00708120701            0.000297220955           
       2.670746             0.00683117388            0.000289456353           
       2.673386             0.00641548347             0.00028391081           
       2.676027             0.00686807187            0.000291257364           
       2.678667             0.00702646295            0.000296128222           
       2.681307             0.00711151212             0.00029557237           
       2.683948             0.00756552562            0.000307889042           
       2.686588             0.00732958741            0.000300269137           
       2.689229             0.00730629241            0.000302482177           
       2.691869             0.00681492733            0.000289217905           
       2.694509             0.00748173663            0.000307192879           
       2.697150             0.00735094429            0.000299636067           
       2.699790             0.00722307004            0.000303188196           
       2.702430             0.00686798472            0.000289973619           
       2.705071             0.00673265042            0.000291031689           
       2.707711              0.0067757321            0.000289066179           
       2.710352             0.00711382989             0.00029787622           
       2.712992              0.0068793563            0.000293878436           
       2.715632             0.00642702399            0.000282436835           
       2.718273              0.0063343047            0.000281322996           
       2.720913             0.00700400074            0.000296314789           
       2.723553             0.00647542785            0.000283924406           
       2.726194             0.00680931977            0.000292556565           
       2.728834             0.00680191828            0.000289798313           
       2.731475             0.00693515216             0.00029518023           
       2.734115             0.00688299198            0.000292315815           
       2.736755             0.00709830835            0.000298815105           
       2.739396             0.00703601077            0.000295927775           
       2.742036             0.00723985477            0.000302232828           
       2.744677             0.00676623773             0.00029260708           
       2.747317             0.00787745188            0.000314187608           
       2.749957              0.0067841056            0.000293684962           
       2.752598             0.00700626266            0.000299353597           
       2.755238             0.00702157273            0.000299545429           
       2.757878             0.00702275407            0.000298717684           
       2.760519             0.00698496697            0.000294767423           
       2.763159             0.00682139643            0.000296032037           
       2.765800              0.0072177573            0.000299352808           
       2.768440             0.00689010685            0.000296332293           
       2.771080             0.00673570043            0.000290524033           
       2.773721             0.00704049023             0.00030066827           
       2.776361             0.00663720528            0.000288794605           
       2.779001             0.00675083279            0.000294317732           
       2.781642              0.0065368219            0.000287638836           
       2.784282             0.00642259976            0.000285214175           
       2.786923             0.00689853564            0.000293344905           
       2.789563             0.00694225238            0.000294864057           
       2.792203             0.00680001009            0.000293685254           
       2.794844             0.00707036068            0.000298103806           
       2.797484             0.00648634164            0.000285928954           
       2.800125             0.00639505963            0.000283543003           
       2.802765             0.00628281266            0.000286253602           
       2.805405              0.0068905756            0.000295451992           
       2.808046             0.00693227544            0.000300888648           
       2.810686             0.00700289616            0.000299194971           
       2.813326             0.00705960489            0.000304120606           
       2.815967             0.00684304826            0.000297532804           
       2.818607             0.00712923186            0.000306726449           
       2.821248             0.00632888275            0.000285393551           
       2.823888             0.00680257874            0.000300646926           
       2.826528             0.00683488564            0.000299562022           
       2.829169             0.00646857993             0.00029013759           
       2.831809             0.00664638296            0.000294355767           
       2.834449             0.00652498869            0.000286564421           
       2.837090             0.00682620347             0.00029486807           
       2.839730             0.00654462609            0.000286672091           
       2.842371             0.00685853844            0.000295511382           
       2.845011             0.00643882753            0.000285688091           
       2.847651              0.0065252532            0.000288127203           
       2.850292             0.00632303358             0.00028201596           
       2.852932              0.0072932758            0.000303424296           
       2.855573             0.00688333448            0.000297362395           
       2.858213             0.00671341964            0.000290374224           
       2.860853             0.00695668271            0.000297800767           
       2.863494             0.00680507229            0.000295247042           
       2.866134             0.00696322221            0.000302847286           
       2.868774             0.00713109637            0.000301784765           
       2.871415             0.00685770726            0.000298872464           
       2.874055             0.00642893933            0.000290811813           
       2.876696             0.00632323926            0.000285814213           
       2.879336              0.0061863661            0.000284580516           
       2.881976              0.0067092025             0.00029611828           
       2.884617             0.00648587574            0.000289530806           
       2.887257             0.00635617203            0.000284622717           
       2.889897             0.00658568366             0.00029303654           
       2.892538              0.0069522612            0.000298994176           
       2.895178             0.00734248567            0.000304137302           
       2.897819             0.00689095669            0.000297667741           
       2.900459             0.00668222725            0.000290697903           
       2.903099             0.00631784612            0.000284136826           
       2.905740             0.00658039927            0.000286743839           
       2.908380             0.00712913406            0.000302438871           
       2.911021             0.00721517244            0.000304836793           
       2.913661             0.00635689645             0.00028298328           
       2.916301             0.00682937424            0.000297483833           
       2.918942             0.00701641186            0.000296980971           
       2.921582             0.00696177741            0.000298926147           
       2.924222             0.00658618074            0.000289064226           
       2.926863              0.0072746707            0.000304604446           
       2.929503              0.0068227478            0.000298265995           
       2.932144             0.00747131142            0.000307001563           
       2.934784             0.00768481117            0.000312680294           
       2.937424             0.00749916675            0.000309451753           
       2.940065             0.00626223828            0.000283011808           
       2.942705             0.00702469569            0.000300656877           
       2.945346             0.00695963024            0.000297493664           
       2.947986             0.00712184893            0.000301993153           
       2.950626             0.00779776304            0.000316970633           
       2.953267              0.0100052847            0.000355230602           
       2.955907              0.0095424825            0.000351504169           
       2.958547             0.00869338422            0.000332061158           
       2.961188             0.00783568337            0.000318007187           
       2.963828             0.00683937594            0.000295419094           
       2.966469             0.00747525417            0.000308923865           
       2.969109             0.00706292801            0.000301818824           
       2.971749             0.00799681002            0.000320208636           
       2.974390             0.00809363303             0.00032302526           
       2.977030              0.0101764084            0.000361521958           
       2.979670             0.00902623244            0.000338284145           
       2.982311             0.00788571958            0.000318472585           
       2.984951             0.00752495441            0.000311906769           
       2.987592             0.00804906418            0.000321497228           
       2.990232             0.00746928417            0.000310492844           
       2.992872             0.00765260661            0.000311821201           
       2.995513             0.00813528847            0.000324030222           
       2.998153             0.00929682234            0.000348625532           
       3.000794              0.0147213511            0.000432314386           
       3.003434              0.0377141452            0.000699292385           
       3.006074              0.0411575489            0.000732873163           
       3.008715              0.0224172979            0.000544992084           
       3.011355              0.0203593547            0.000524775754           
       3.013995              0.0175481702            0.000484817931           
       3.016636              0.0297933319            0.000632901052           
       3.019276               0.136215454             0.00138562569           
       3.021917               0.368793294              0.0022412766           
       3.024557               0.136278455             0.00137331751           
       3.027197              0.0959817756             0.00117187257           
       3.029838              0.0900828384              0.0011298617           
       3.032478              0.0749321719             0.00103663485           
       3.035118              0.0486985773            0.000840000473           
       3.037759              0.0944881806             0.00117212615           
       3.040399               0.102225644             0.00123312418           
       3.043040              0.0498039424            0.000869073517           
       3.045680               0.062017034            0.000954859601           
       3.048320              0.0782795588             0.00108998847           
       3.050961               0.193193529             0.00172952633           
       3.053601               0.118648412             0.00134938847           
       3.056242              0.0501035398             0.00088251271           
       3.058882                0.18136119              0.0017040088           
       3.061522               0.253668493             0.00200130582           
       3.064163              0.0337742538             0.00073158132           
       3.066803              0.0186000437            0.000553406846           
       3.069443              0.0321653014            0.000722901628           
       3.072084              0.0993691883             0.00128191768           
       3.074724              0.0431461624            0.000849693503           
       3.077365              0.0123212785            0.000453741029           
       3.080005             0.00923828053            0.000397251224           
       3.082645             0.00899742446            0.000394034679           
       3.085286             0.00812929034            0.000374611289           
       3.087926             0.00774559599            0.000367990332           
       3.090566             0.00752478853            0.000366443286           
       3.093207             0.00830847156            0.000380892546           
       3.095847             0.00752324142            0.000370044217           
       3.098488             0.00726200794            0.000362903615           
       3.101128             0.00760562256            0.000373413201           
       3.103768             0.00875214662            0.000402827788           
       3.106409              0.0101322327             0.00043632881           
       3.109049              0.0102741096            0.000442788677           
       3.111690              0.0126963384            0.000490286894           
       3.114330              0.0129663365             0.00049988123           
       3.116970              0.0163244038            0.000568691678           
       3.119611              0.0166205105            0.000570092426           
       3.122251              0.0124305118            0.000497061147           
       3.124891             0.00899493841            0.000424881398           
       3.127532             0.00839121402            0.000417767536           
       3.130172             0.00780777909             0.00039469237           
       3.132813             0.00822064581            0.000413235989           
       3.135453             0.00844235616            0.000427605088           
       3.138093             0.00733854923            0.000389212971           
       3.140734             0.00622038227            0.000365005246           
       3.143374             0.00630182521            0.000373003103           
       3.146014             0.00637341701            0.000372392899           
       3.148655             0.00625498953            0.000371821418           
       3.151295             0.00617395134            0.000372328876           
       3.153936             0.00655258635            0.000389238634           
       3.156576             0.00728984321            0.000405839544           
       3.159216              0.0065386703            0.000387505212           
       3.161857             0.00607568641            0.000378116568           
       3.164497             0.00605755403             0.00038551272           
       3.167138             0.00654724461            0.000391176629           
       3.169778              0.0063779168            0.000393056595           
       3.172418              0.0065503625            0.000400662495           
       3.175059             0.00648587652            0.000403902957           
       3.177699             0.00637760482            0.000398935537           
       3.180339             0.00556826758             0.00037609596           
       3.182980             0.00617494169            0.000401401258           
       3.185620             0.00586029407            0.000395313906           
       3.188261             0.00562435209             0.00038220044           
       3.190901             0.00584369455            0.000395584874           
       3.193541             0.00596727832             0.00040106319           
       3.196182             0.00627825673            0.000419940359           
       3.198822             0.00612773922            0.000409846586           
       3.201463              0.0064049774            0.000424433981           
       3.204103              0.0059834193            0.000415691416           
       3.206743             0.00588524967            0.000415752779           
       3.209384             0.00575795316            0.000409398702           
       3.212024             0.00521794212            0.000391112859           
       3.214664             0.00614646531            0.000432578649           
       3.217305             0.00519282292            0.000406883437           
       3.219945             0.00651368062            0.000451891976           
       3.222586             0.00579811997            0.000428761579           
       3.225226             0.00552998475            0.000428163448           
       3.227866             0.00559221346            0.000433896711           
       3.230507             0.00634545702            0.000467711034           
       3.233147              0.0057160435             0.00043734307           
       3.235787             0.00525845334            0.000419586527           
       3.238428             0.00623887592            0.000465102746           
       3.241068             0.00635100935            0.000478779433           
       3.243709             0.00672275903            0.000489858497           
       3.246349              0.0056920583            0.000448223707           
       3.248989             0.00601803263            0.000471413848           
       3.251630             0.00606231296            0.000475238262           
       3.254270             0.00536387475            0.000460765681           
       3.256911             0.00623377821            0.000484279624           
       3.259551             0.00613709881            0.000491127575           
       3.262191             0.00531958154            0.000461454274           
       3.264832             0.00563124192            0.000479234457           
       3.267472             0.00579502124            0.000493047924           
       3.270112             0.00572509666            0.000491459349           
       3.272753             0.00587979463            0.000504175621           
       3.275393             0.00506917582            0.000470542808           
       3.278034             0.00519121124            0.000485873188           
       3.280674              0.0054926959            0.000501233365           
       3.283314             0.00545702562            0.000502363732           
       3.285955              0.0048197054            0.000480985798           
       3.288595             0.00570894327            0.000529319709           
       3.291235             0.00482965316            0.000489713283           
       3.293876             0.00552473719            0.000526870227           
       3.296516             0.00700809204             0.00060550351           
       3.299157              0.0065876536            0.000595932596           
       3.301797             0.00492846996            0.000515670562           
       3.304437             0.00484187837            0.000520701149           
       3.307078             0.00474654502            0.000520557879           
       3.309718             0.00576077929            0.000579208015           
       3.312359             0.00602137255            0.000604128632           
       3.314999             0.00564832027            0.000591253274           
       3.317639             0.00526403376            0.000576932109           
       3.320280             0.00522873958            0.000583391443           
       3.322920             0.00659414384             0.00066495226           
       3.325560              0.0043433656            0.000550086026           
       3.328201             0.00537845856            0.000614721396           
       3.330841             0.00482258494            0.000596245829           
       3.333482             0.00554497119            0.000647462498           
       3.336122             0.00537357543            0.000651230503           
       3.338762             0.00542948472            0.000660596888           
       3.341403             0.00536305019            0.000662633669           
       3.344043             0.00427295823             0.00061404362           
       3.346683             0.00625799313            0.000750645846           
       3.349324             0.00588565734            0.000739241643           
       3.351964             0.00556999425            0.000742264131           
       3.354605              0.0050257784            0.000713054981           
       3.357245             0.00503276103            0.000738631192           
       3.359885             0.00451416795            0.000699792715           
       3.362526             0.00544791858            0.000808077054           
       3.365166             0.00531184825            0.000788070433           
       3.367807             0.00490257788            0.000810451199           
       3.370447             0.00585672798            0.000886156632           
       3.373087             0.00531869176            0.000891254652           
       3.375728             0.00535063331            0.000887169432           
       3.378368             0.00627682875             0.00103831462           
       3.381008             0.00366254996            0.000786225621           
       3.383649             0.00624527228             0.00111109114           
       3.386289             0.00682904487             0.00116233964           
       3.388930             0.00683381629             0.00127698187           
       3.391570             0.00589595422             0.00118662146           
       3.394210             0.00484083968             0.00115206985           
       3.396851              0.0040610436             0.00114303721           
       3.399491             0.00489555044             0.00127777307           
       3.402131             0.00820070376              0.0019576107           
       3.404772             0.00728610091              0.0018460117           
       3.407412             0.00205202082             0.00121564128           
       3.410053              0.0036518437             0.00168864143           
       3.412693             0.00585968546             0.00302632475           
       3.415333             0.00216266638             0.00225265853           
