################################################################################
# EDF_DataBlockID                     0.Image.Psd
# EDF_BinarySize                      2105344
# EDF_HeaderSize                      2560
# ByteOrder                           LowByteFirst
# DataType                            FloatValue
# Dim_1                               512
# Dim_2                               1028
# Image                               0
# HeaderID                            EH:000000:000000:000000
# Size                                2105344
# Center_1                            304.9000
# Center_2                            588.7000
# Comment                             Xenocs_Cell_Window - front_window_open_only
# DDummy                              0.6
# Date                                2025-10-18T00:17:28
# Delta                               21.910000
# Dummy                               -1.5
# ExposureTime                        360
# Gamma                               15.360000
# Intensity1                          9.27907e-10
# PSize_1                             7.5e-05
# PSize_2                             7.5e-05
# Pressure                            0.0351372
# SampleDistance                      0.115750
# SampleEnvKind                       large
# SampleEnvPN                         ElectroChemical cell
# SampleEnvSN                         1141
# Thickness                           0
# Wavelength                          1.541891e-10
# Wavelength                          1.54189e-10
# aux                                 0
# aux_dial                            0.002375
# beamx                               588.429
# beamx_dial                          588.429
# beamz                               657.855
# beamz_dial                          657.855
# det0x                               -0.000396875
# det0x_dial                          6.36905
# det0xvd                             -0.0005
# det0xvd_dial                        -0.0005
# det0y                               450.002
# det0y_dial                          481.635
# det0z                               0
# det0z_dial                          1.2295
# det0zvd                             0
# det0zvd_dial                        0
# mag                                 1.818
# mag_dial                            1.818
# om                                  0.2499
# om_dial                             -0.610199
# phi                                 -0.0120535
# phi_dial                            0
# ry                                  0.599993
# ry_dial                             0.599993
# s1bot                               0.8
# s1bot_dial                          -1.66094
# s1hl                                0.8
# s1hl_dial                           -0.608437
# s1hr                                0.8
# s1hr_dial                           0.970938
# s1top                               0.8
# s1top_dial                          -0.461562
# s2bot                               0.45
# s2bot_dial                          1.36109
# s2hl                                0.45
# s2hl_dial                           -0.83375
# s2hr                                0.45
# s2hr_dial                           -0.118594
# s2top                               0.45
# s2top_dial                          1.44734
# w2theta                             32
# w2theta_dial                        32
# waxsch                              19.2605
# waxsch_dial                         -32.7238
# waxsh                               137.085
# waxsh_dial                          -43.5335
# waxsth                              26.0607
# waxsth_dial                         -19.4068
# waxsz                               67.0407
# waxsz_dial                          -23.7962
# wind                                65.9854
# wind_dial                           66.0041
# wpsi                                124
# wpsi_dial                           124
# wstod                               115
# wstod_dial                          115
# x                                   0
# x_dial                              1.00969
# z                                   0
# z_dial                              13.3172
# CountCutoff                         6807993
# DetectorModel                       Dectris EIGER2 Si 500K, S/N E-01-0554
# ThresholdSetting                    4023.88989258
# Saturation                          0
# FlatField                           Corrected
# BackgroundReductionExtra            0.02
# BackgroundCorrectionConstant        0.0026712
# Detector                            0
# Monitor                             0
# Pil_Roi0                            0
# SumForIntensity1                    3.34047e+08
# TransmittedFlux                     927907
# det                                 0
# mon                                 0
# pilai0                              3.34047e+08
# pilai1                              724497
# pilct0                              5.76037e+08
# pilct1                              724497
# pilroi0                             0
# pilroi1                             0
# sec                                 1
# title                               20251017__1_00056.edf
# usaxs0                              0
# Operation                           Azimuthal average I(q)
# Error_model                         ErrorModel.poisson
# Geometrical_correction              True
# Transmission_correction             True
# Thickness_correction                False
# Binning mode                        Uniform
# Binning factor                      1.0
# Psi                                 0.0
# Omega                               0.2499
# MaskInvalidPixels                   True
# DetectorEdge                        3
# MaskFiles                           ['20251017__1_00233_mask.edf']
################################################################################
    q(A⁻¹)                Intensity(a.u.)            Sigma_I(a.u.)            
       0.690460           -2.18882864e-05                         0           
       0.693100             0.00459158613             0.00274234308           
       0.695741             0.00440227721             0.00226853368           
       0.698381             0.00585250906             0.00244637907           
       0.701021             0.00916901837             0.00249907329           
       0.703662             0.00623577564             0.00190767835           
       0.706302             0.00583319818              0.0017819238           
       0.708942             0.00793645707              0.0018462607           
       0.711583             0.00587272623             0.00158788856           
       0.714223             0.00738875252             0.00155206507           
       0.716864             0.00735857387             0.00158056696           
       0.719504             0.00659638477             0.00138498774           
       0.722144             0.00533431963              0.0012028685           
       0.724785             0.00441648486             0.00107656414           
       0.727425             0.00470508091             0.00103067787           
       0.730065             0.00685895339             0.00128044194           
       0.732706             0.00592879803             0.00107051347           
       0.735346             0.00602618609             0.00116579561           
       0.737987             0.00650081886             0.00104802858           
       0.740627             0.00462855021              0.0009687671           
       0.743267             0.00580467332            0.000933192652           
       0.745908              0.0051269538            0.000939929485           
       0.748548             0.00713491497             0.00103416582           
       0.751189              0.0074036132             0.00104353414           
       0.753829             0.00682853777             0.00101122725           
       0.756469             0.00420306561             0.00074618759           
       0.759110             0.00672200013            0.000976062862           
       0.761750              0.0050675225            0.000775612058           
       0.764390             0.00730911574            0.000999905361           
       0.767031             0.00578837572            0.000805188729           
       0.769671             0.00562954589            0.000842131999           
       0.772312             0.00603076181            0.000794283971           
       0.774952             0.00532114088             0.00079984973           
       0.777592             0.00650243164            0.000808721522           
       0.780233             0.00666838537            0.000863372672           
       0.782873             0.00631621223            0.000768378289           
       0.785513              0.0063012674            0.000816403919           
       0.788154              0.0067994229            0.000778954666           
       0.790794             0.00710207442            0.000823942799           
       0.793435              0.0073643572            0.000805869665           
       0.796075             0.00628849294            0.000748616099           
       0.798715             0.00786981629             0.00083268696           
       0.801356             0.00729078383            0.000780020013           
       0.803996             0.00624063156            0.000733192965           
       0.806637             0.00740352085            0.000754877164           
       0.809277              0.0065317266            0.000741772152           
       0.811917             0.00516256268            0.000624041876           
       0.814558             0.00637911981            0.000710634353           
       0.817198             0.00565820275            0.000638154961           
       0.819838             0.00716984602            0.000749325815           
       0.822479             0.00649323336            0.000657153886           
       0.825119             0.00639401286            0.000700537622           
       0.827760             0.00762784227            0.000708988372           
       0.830400             0.00661735825            0.000695772603           
       0.833040             0.00557175971            0.000595847923           
       0.835681             0.00667736681            0.000683088492           
       0.838321             0.00621406768            0.000616778989           
       0.840961             0.00632635776            0.000650483041           
       0.843602             0.00607743629            0.000600553809           
       0.846242              0.0071418203            0.000674008095           
       0.848883             0.00676035976            0.000637908124           
       0.851523             0.00711291085            0.000659233858           
       0.854163             0.00574622384            0.000585641803           
       0.856804             0.00744467157            0.000649541074           
       0.859444             0.00566758407            0.000570813409           
       0.862085             0.00599607103            0.000578581777           
       0.864725             0.00616414542            0.000584481033           
       0.867365             0.00658129215            0.000599609069           
       0.870006             0.00669998617            0.000613432837           
       0.872646             0.00683605095            0.000592663596           
       0.875286             0.00676856761            0.000609825051           
       0.877927             0.00626491477            0.000561738997           
       0.880567             0.00640116967            0.000578907419           
       0.883208             0.00534852373            0.000513888954           
       0.885848              0.0064598512            0.000579405593           
       0.888488             0.00589138362            0.000526112438           
       0.891129             0.00634336427            0.000573860499           
       0.893769             0.00715847352            0.000576239072           
       0.896410             0.00607338788            0.000547121571           
       0.899050              0.0064319959            0.000542883297           
       0.901690             0.00602736482            0.000536499524           
       0.904331             0.00577980708            0.000507024321           
       0.906971             0.00623490536            0.000543772655           
       0.909611             0.00721805056            0.000561574739           
       0.912252             0.00678842483            0.000554042595           
       0.914892             0.00733850796            0.000561462384           
       0.917533             0.00651483324            0.000540952264           
       0.920173             0.00778646153            0.000567294492           
       0.922813              0.0077522594            0.000591529425           
       0.925454              0.0073125996            0.000545244824           
       0.928094             0.00668986036            0.000532705972           
       0.930734             0.00639192612            0.000508281721           
       0.933375             0.00716555092            0.000549634678           
       0.936015             0.00652341795            0.000501782691           
       0.938656              0.0062266476            0.000510799261           
       0.941296             0.00678724776            0.000514097708           
       0.943936             0.00677766871            0.000522987034           
       0.946577             0.00626035534            0.000484065809           
       0.949217             0.00736249467            0.000543488588           
       0.951858             0.00688625074            0.000496909045           
       0.954498             0.00699206691            0.000526771112           
       0.957138             0.00769778534            0.000531242105           
       0.959779             0.00682437481            0.000511137667           
       0.962419             0.00681136945              0.0004916009           
       0.965059             0.00680037382            0.000505156313           
       0.967700             0.00705694849            0.000497956723           
       0.970340             0.00698968441            0.000509503457           
       0.972981             0.00758249539            0.000512377014           
       0.975621             0.00696581921            0.000501382448           
       0.978261             0.00704261161            0.000481011378           
       0.980902             0.00701442629            0.000502905441           
       0.983542             0.00770771554            0.000511823133           
       0.986182             0.00782774932            0.000522585711           
       0.988823             0.00673196387            0.000468992773           
       0.991463             0.00700097268             0.00048969495           
       0.994104             0.00780232695            0.000499536446           
       0.996744             0.00774951711            0.000513987479           
       0.999384             0.00669221315            0.000461428095           
       1.002025             0.00638635211            0.000463310686           
       1.004665             0.00813525392            0.000501495739           
       1.007306             0.00743226545            0.000495400181           
       1.009946             0.00705881658            0.000464221263           
       1.012586             0.00749777405            0.000492200035           
       1.015227             0.00744214984            0.000475527619           
       1.017867             0.00852151695            0.000523426182           
       1.020507             0.00753456556            0.000473653907           
       1.023148              0.0083370444            0.000504257375           
       1.025788             0.00723412566            0.000464910371           
       1.028429             0.00709160388            0.000470370595           
       1.031069             0.00707899005            0.000452775559           
       1.033709             0.00748679598             0.00047457623           
       1.036350             0.00833490561             0.00048760517           
       1.038990             0.00830338606            0.000498697444           
       1.041630             0.00666059325            0.000438055747           
       1.044271             0.00743942141            0.000463010958           
       1.046911             0.00754007794            0.000457472077           
       1.049552             0.00728031244            0.000465722492           
       1.052192             0.00790984254            0.000463611071           
       1.054832             0.00783882106            0.000470500335           
       1.057473             0.00716504895            0.000444130928           
       1.060113             0.00811281311            0.000477710443           
       1.062754             0.00740022074            0.000451202238           
       1.065394             0.00813080559            0.000467974443           
       1.068034             0.00770654499            0.000453837697           
       1.070675             0.00836648487             0.00048118774           
       1.073315              0.0076744117             0.00044676949           
       1.075955             0.00820599593            0.000469731756           
       1.078596             0.00811652143            0.000466240462           
       1.081236             0.00803678087            0.000457063257           
       1.083877             0.00752405484            0.000456058402           
       1.086517             0.00860793443            0.000476767678           
       1.089157              0.0075793073            0.000450655422           
       1.091798             0.00773478732            0.000445608673           
       1.094438             0.00678558007             0.00042400495           
       1.097078             0.00755633754            0.000435940203           
       1.099719             0.00841434994            0.000471815076           
       1.102359             0.00812856057            0.000439303592           
       1.105000             0.00780017251            0.000447286639           
       1.107640               0.008231621            0.000444512198           
       1.110280             0.00841087125            0.000458323022           
       1.112921             0.00777306144             0.00043263037           
       1.115561             0.00760820549            0.000433449864           
       1.118202             0.00798083603            0.000430980504           
       1.120842             0.00809980332            0.000447860894           
       1.123482             0.00777725249            0.000426542369           
       1.126123             0.00871483185            0.000454339537           
       1.128763             0.00894796298            0.000458093024           
       1.131403             0.00719698115            0.000410195716           
       1.134044             0.00831899354            0.000440247482           
       1.136684             0.00699942338            0.000406859265           
       1.139325              0.0082859975            0.000430202901           
       1.141965             0.00830657313            0.000436370072           
       1.144605             0.00815483971            0.000434905845           
       1.147246              0.0085166006             0.00043603039           
       1.149886             0.00803322179            0.000426487413           
       1.152527             0.00787726659            0.000422750438           
       1.155167             0.00893225599            0.000443840935           
       1.157807             0.00863132426            0.000436600854           
       1.160448             0.00798311692             0.00042563171           
       1.163088             0.00812419325            0.000413446367           
       1.165728             0.00765854839            0.000417968931           
       1.168369             0.00825797027            0.000418523481           
       1.171009             0.00845041414            0.000426882153           
       1.173650             0.00842902816            0.000423267239           
       1.176290              0.0085064717            0.000430196474           
       1.178930             0.00874813129            0.000424000497           
       1.181571             0.00864559764            0.000435275515           
       1.184211             0.00809382315             0.00040843698           
       1.186851             0.00860097828            0.000424921014           
       1.189492             0.00819037329            0.000416956837           
       1.192132             0.00969437565            0.000446908965           
       1.194773             0.00904621363            0.000429105916           
       1.197413             0.00870751572            0.000424430473           
       1.200053              0.0102244936            0.000457024231           
       1.202694             0.00897451627             0.00042495088           
       1.205334             0.00909724584            0.000432523704           
       1.207975             0.00814372961            0.000401210913           
       1.210615             0.00862260867            0.000421568652           
       1.213255             0.00854679072            0.000408607573           
       1.215896             0.00875336596            0.000421354325           
       1.218536             0.00927454567            0.000421224708           
       1.221176             0.00915496146            0.000428489402           
       1.223817             0.00921877805            0.000421020499           
       1.226457             0.00929212722            0.000428060995           
       1.229098              0.0092565884            0.000420760011           
       1.231738               0.009174698            0.000424793388           
       1.234378             0.00909991113            0.000414838334           
       1.237019             0.00932045633            0.000423221601           
       1.239659             0.00957109103            0.000428642195           
       1.242299             0.00904361853            0.000414533242           
       1.244940             0.00883691609            0.000405345379           
       1.247580             0.00977935357             0.00042829531           
       1.250221             0.00965951126            0.000432611191           
       1.252861             0.00908960397            0.000404020368           
       1.255501             0.00912368935            0.000416205718           
       1.258142             0.00966818255            0.000419974808           
       1.260782             0.00997272456            0.000431356037           
       1.263423             0.00953803022            0.000413492643           
       1.266063             0.00928813939            0.000415645374           
       1.268703             0.00974073793            0.000414927541           
       1.271344             0.00944689604            0.000417520981           
       1.273984              0.0102619924            0.000428367428           
       1.276624             0.00955791148            0.000410888659           
       1.279265              0.0101896982            0.000425177705           
       1.281905             0.00928263309            0.000408313847           
       1.284546             0.00944784473             0.00040743128           
       1.287186               0.010615773            0.000432295614           
       1.289826              0.0102538601            0.000427066006           
       1.292467             0.00943929934            0.000402438806           
       1.295107             0.00926578002            0.000405750761           
       1.297747             0.00980141382            0.000406367827           
       1.300388             0.00955663365            0.000411565519           
       1.303028              0.0103834553            0.000418091041           
       1.305669             0.00985957157            0.000412671115           
       1.308309              0.0106610988            0.000422665088           
       1.310949             0.00980693621            0.000410432404           
       1.313590             0.00977542205            0.000403430865           
       1.316230             0.00969245899            0.000408946172           
       1.318871              0.0094482972            0.000395051866           
       1.321511             0.00958518914            0.000399897455           
       1.324151              0.0102127469            0.000414411969           
       1.326792             0.00999594418            0.000406668528           
       1.329432              0.0110915022            0.000430609254           
       1.332072             0.00969273067            0.000395639427           
       1.334713             0.00993975922            0.000405618138           
       1.337353              0.0106337054            0.000413084946           
       1.339994              0.0109168341            0.000424509751           
       1.342634              0.0113740066            0.000423552542           
       1.345274              0.0118431022            0.000437848791           
       1.347915              0.0107861729            0.000418965412           
       1.350555              0.0100404334            0.000402643502           
       1.353195              0.0107117333            0.000407929969           
       1.355836              0.0103787757            0.000409116197           
       1.358476              0.0101642079            0.000403726463           
       1.361117              0.0109600664            0.000408717637           
       1.363757               0.010526196            0.000413820491           
       1.366397              0.0101791446            0.000394268934           
       1.369038              0.0101922772            0.000402838617           
       1.371678              0.0103007569            0.000396799366           
       1.374319              0.0104308042            0.000402463173           
       1.376959             0.00954812538            0.000379757072           
       1.379599             0.00960540916            0.000388318927           
       1.382240              0.0109551572            0.000406828887           
       1.384880              0.0101119499            0.000395657781           
       1.387520               0.010143591            0.000391643127           
       1.390161              0.0107201089            0.000401524678           
       1.392801              0.0101490004             0.00039301133           
       1.395442              0.0103051881            0.000391920541           
       1.398082              0.0100041188             0.00038747452           
       1.400722              0.0111835445            0.000407828013           
       1.403363             0.00994150567            0.000388083322           
       1.406003             0.00939394924            0.000367981273           
       1.408644              0.0105307354             0.00039779016           
       1.411284               0.010168886            0.000388752388           
       1.413924              0.0107255343            0.000394326623           
       1.416565              0.0105357364            0.000390362642           
       1.419205              0.0102232112            0.000388317131           
       1.421845             0.00949680092            0.000369561822           
       1.424486              0.0101552977            0.000383846725           
       1.427126              0.0100176595            0.000380996111           
       1.429767             0.00998825628            0.000374574088           
       1.432407              0.0111287009            0.000405340585           
       1.435047               0.010225582            0.000376869462           
       1.437688              0.0100236556             0.00038139277           
       1.440328             0.00964360013            0.000366843047           
       1.442968               0.010529104            0.000388621738           
       1.445609               0.010468126            0.000381121233           
       1.448249             0.00985452842            0.000372173671           
       1.450890             0.00954195709            0.000363611238           
       1.453530             0.00940781992            0.000363720755           
       1.456170              0.0100064648            0.000374270043           
       1.458811             0.00973010368            0.000366129305           
       1.461451               0.010327684            0.000379977605           
       1.464092             0.00968559045            0.000364768553           
       1.466732              0.0102519251              0.0003729796           
       1.469372               0.010357068             0.00037373498           
       1.472013              0.0102379494            0.000378227463           
       1.474653             0.00962468363            0.000357669328           
       1.477293               0.010396975            0.000377999565           
       1.479934              0.0105251366            0.000376341569           
       1.482574              0.0100048919            0.000366017098           
       1.485215             0.00971370879            0.000361580148           
       1.487855               0.010350073            0.000373159086           
       1.490495              0.0103612174            0.000372556328           
       1.493136             0.00959102592            0.000353741502           
       1.495776              0.0110021121            0.000385476608           
       1.498416              0.0096239442            0.000353521965           
       1.501057             0.00932082124            0.000350902508           
       1.503697              0.0100750433            0.000361315861           
       1.506338             0.00978289587            0.000358657102           
       1.508978             0.00911736101            0.000344198103           
       1.511618             0.00995810831            0.000359536331           
       1.514259                0.01014637            0.000363574454           
       1.516899             0.00985594491             0.00035850015           
       1.519540              0.0103893645            0.000366031039           
       1.522180             0.00989634918            0.000352779361           
       1.524820             0.00991752337            0.000360289458           
       1.527461             0.00953852855            0.000345521723           
       1.530101             0.00950372222             0.00034845667           
       1.532741             0.00979992838            0.000352168777           
       1.535382              0.0099644907            0.000355895352           
       1.538022               0.010158941            0.000356171723           
       1.540663             0.00958584101            0.000349249323           
       1.543303             0.00990231821            0.000350550431           
       1.545943              0.0105185522             0.00036331823           
       1.548584              0.0101385129            0.000358593849           
       1.551224             0.00989127747            0.000345114046           
       1.553864             0.00943622247            0.000345887703           
       1.556505             0.00901775908            0.000332929808           
       1.559145             0.00943659709            0.000341361011           
       1.561786             0.00939400564            0.000339046824           
       1.564426             0.00969449435            0.000344115632           
       1.567066              0.0091888489            0.000332406383           
       1.569707             0.00972640922            0.000346942474           
       1.572347             0.00935966491            0.000335923086           
       1.574988             0.00971561203            0.000340897089           
       1.577628             0.00897943806            0.000335106143           
       1.580268             0.00971259789            0.000336490947           
       1.582909             0.00887427409             0.00032765752           
       1.585549             0.00954985562            0.000336724271           
       1.588189             0.00887523641             0.00032823866           
       1.590830             0.00956343163            0.000334878284           
       1.593470             0.00948992508            0.000336313011           
       1.596111             0.00943783762             0.00033249077           
       1.598751             0.00933839557            0.000334115499           
       1.601391             0.00874399209            0.000321240111           
       1.604032             0.00890936357            0.000321555745           
       1.606672             0.00805965703            0.000311993365           
       1.609312             0.00935009118            0.000326044093           
       1.611953             0.00926485945            0.000329258209           
       1.614593             0.00863407379            0.000315434594           
       1.617234             0.00783293901            0.000302147227           
       1.619874              0.0092982334            0.000325324694           
       1.622514             0.00867491756            0.000317010441           
       1.625155              0.0084860934            0.000312765925           
       1.627795             0.00818602506            0.000304082291           
       1.630436             0.00890702927            0.000320379351           
       1.633076              0.0087551905            0.000316023045           
       1.635716             0.00820525496            0.000305403477           
       1.638357              0.0085756029            0.000310893148           
       1.640997             0.00809850165            0.000304483869           
       1.643637             0.00858536515            0.000307681295           
       1.646278             0.00918942685            0.000323086217           
       1.648918             0.00895741283            0.000314869187           
       1.651559             0.00929221168            0.000324731821           
       1.654199             0.00855454527            0.000307304971           
       1.656839             0.00876029539            0.000310894864           
       1.659480             0.00826053397            0.000304555483           
       1.662120             0.00880115047            0.000310150894           
       1.664761             0.00830950684            0.000304626613           
       1.667401             0.00814692576            0.000298821815           
       1.670041             0.00812216219            0.000298708761           
       1.672682             0.00805057724            0.000294591119           
       1.675322             0.00837627654            0.000305804087           
       1.677962             0.00826991938            0.000297821829           
       1.680603             0.00781873247            0.000292153709           
       1.683243              0.0083446489            0.000299586701           
       1.685884             0.00872254216            0.000307460651           
       1.688524             0.00863028897            0.000304969964           
       1.691164              0.0085785522            0.000303272967           
       1.693805             0.00832906847            0.000301247028           
       1.696445             0.00813109198            0.000293514148           
       1.699085             0.00818592939            0.000295678006           
       1.701726             0.00828197586            0.000293539022           
       1.704366             0.00834819317            0.000301881121           
       1.707007             0.00847248672            0.000297630388           
       1.709647             0.00846991121             0.00030128266           
       1.712287             0.00816958241            0.000290948017           
       1.714928             0.00805103057            0.000291733548           
       1.717568             0.00891184179            0.000304111113           
       1.720209             0.00824325153            0.000294287221           
       1.722849             0.00809077047            0.000292020171           
       1.725489             0.00843402201            0.000293398145           
       1.728130             0.00739775545            0.000280376805           
       1.730770             0.00858632424            0.000295676909           
       1.733410             0.00887630242            0.000304574813           
       1.736051             0.00843707678            0.000292334447           
       1.738691             0.00809188752            0.000289214025           
       1.741332             0.00854879584            0.000295437219           
       1.743972             0.00780859642             0.00028246216           
       1.746612             0.00808812536            0.000287539574           
       1.749253             0.00851768246            0.000296351559           
       1.751893             0.00859557864            0.000295917507           
       1.754533             0.00885810075            0.000296279441           
       1.757174              0.0080301062             0.00028736689           
       1.759814             0.00769350564             0.00027699133           
       1.762455              0.0082913286            0.000289999863           
       1.765095             0.00776003268            0.000276614769           
       1.767735              0.0080235153            0.000286051095           
       1.770376             0.00803746525            0.000281957856           
       1.773016             0.00866384173            0.000293200543           
       1.775657              0.0078777322            0.000280155389           
       1.778297             0.00851353683            0.000292666344           
       1.780937             0.00832946966            0.000288134386           
       1.783578             0.00819169142            0.000284399667           
       1.786218              0.0085171404            0.000294621708           
       1.788858               0.007939603            0.000277389983           
       1.791499             0.00789017759            0.000281621637           
       1.794139             0.00874999051            0.000291093016           
       1.796780             0.00840700602            0.000287026206           
       1.799420             0.00836621985            0.000285964571           
       1.802060             0.00862459572            0.000286775661           
       1.804701             0.00826666585            0.000284528512           
       1.807341             0.00883229821            0.000291259858           
       1.809981              0.0088723289            0.000293857862           
       1.812622             0.00865061602            0.000288582104           
       1.815262             0.00851735444            0.000287371696           
       1.817903             0.00858285107            0.000284910528           
       1.820543             0.00870602956            0.000290494411           
       1.823183             0.00825885343            0.000278576112           
       1.825824             0.00796416205            0.000277674805           
       1.828464             0.00812487444            0.000279601965           
       1.831105             0.00832992787            0.000284204284           
       1.833745             0.00808538275            0.000279826687           
       1.836385              0.0084046222            0.000284187866           
       1.839026             0.00835654369            0.000287633639           
       1.841666             0.00831546788            0.000283200202           
       1.844306             0.00804127927            0.000282007906           
       1.846947             0.00818194741            0.000280808247           
       1.849587             0.00790077951             0.00027968371           
       1.852228             0.00820938173            0.000282061365           
       1.854868             0.00823403378            0.000287665515           
       1.857508             0.00825288066            0.000282676774           
       1.860149             0.00858248818            0.000290576942           
       1.862789             0.00836917118            0.000288212789           
       1.865429             0.00830213261            0.000287921589           
       1.868070             0.00888147494            0.000296769093           
       1.870710             0.00844786614            0.000290222282           
       1.873351             0.00857144526            0.000294203633           
       1.875991              0.0085885843            0.000296090656           
       1.878631             0.00808820629            0.000284665317           
       1.881272             0.00862918161            0.000293342332           
       1.883912             0.00829728295            0.000291019153           
       1.886553             0.00857821802            0.000292355381           
       1.889193             0.00833262706            0.000291468468           
       1.891833             0.00811637211             0.00028438784           
       1.894474             0.00843016235            0.000292127004           
       1.897114             0.00811220676            0.000284342264           
       1.899754             0.00814359099             0.00028808678           
       1.902395             0.00822779809            0.000289634133           
       1.905035             0.00892552217            0.000300482675           
       1.907676              0.0078057241            0.000281328556           
       1.910316             0.00848411016            0.000295168976           
       1.912956             0.00803405119             0.00028722193           
       1.915597             0.00810233377            0.000285432819           
       1.918237             0.00776300277            0.000283632948           
       1.920878              0.0080686657            0.000284045481           
       1.923518             0.00801338471             0.00029059156           
       1.926158             0.00823899049            0.000287882916           
       1.928799             0.00803574254            0.000288087888           
       1.931439              0.0078674613            0.000282771003           
       1.934079             0.00798944854            0.000287840493           
       1.936720             0.00806141427            0.000287432193           
       1.939360             0.00843640371            0.000296875306           
       1.942001             0.00838030897            0.000294748407           
       1.944641             0.00787988112            0.000284580943           
       1.947281             0.00807137776            0.000289409638           
       1.949922             0.00791451902            0.000286942349           
       1.952562              0.0081138173            0.000293032736           
       1.955202              0.0078786793            0.000281500574           
       1.957843             0.00760009249            0.000285261739           
       1.960483             0.00744340062            0.000277802799           
       1.963124             0.00793716451            0.000286656264           
       1.965764             0.00792067042            0.000286460642           
       1.968404             0.00824398812            0.000297474789           
       1.971045             0.00739716138            0.000274719019           
       1.973685             0.00793722594            0.000289881403           
       1.976326             0.00791872883            0.000288281061           
       1.978966             0.00792350125            0.000289732471           
       1.981606             0.00808301156            0.000289539513           
       1.984247             0.00782114389             0.00028729421           
       1.986887             0.00754158676            0.000284751428           
       1.989527             0.00826059644            0.000291807759           
       1.992168             0.00807360852            0.000295446464           
       1.994808             0.00776067531            0.000286294888           
       1.997449             0.00778969126            0.000286408965           
       2.000089             0.00767431874            0.000282606123           
       2.002729             0.00803184763            0.000295739058           
       2.005370             0.00811423957            0.000291601456           
       2.008010             0.00762864156            0.000286495248           
       2.010650             0.00787645942            0.000290278701           
       2.013291             0.00792540093            0.000292836516           
       2.015931             0.00752248712            0.000283253876           
       2.018572             0.00768064179            0.000290017256           
       2.021212             0.00777181928            0.000289115362           
       2.023852             0.00805235878            0.000295833158           
       2.026493             0.00792444196            0.000292187901           
       2.029133             0.00758431953            0.000283668099           
       2.031774              0.0073656742            0.000282260296           
       2.034414             0.00764747942            0.000285892751           
       2.037054             0.00725642989            0.000281998871           
       2.039695             0.00759710195               0.000282859           
       2.042335             0.00713323035            0.000278752801           
       2.044975             0.00798805105            0.000292625149           
       2.047616             0.00739620189            0.000282782554           
       2.050256             0.00761221372            0.000283507695           
       2.052897             0.00738666116            0.000287547226           
       2.055537             0.00833339554            0.000297092118           
       2.058177             0.00752830325            0.000284870895           
       2.060818             0.00719794493             0.00027938665           
       2.063458             0.00748428168            0.000285281894           
       2.066098             0.00815105036            0.000296397371           
       2.068739             0.00769765268             0.00029103922           
       2.071379             0.00729556213            0.000279151776           
       2.074020             0.00778620274            0.000292334909           
       2.076660              0.0076009879            0.000286879138           
       2.079300             0.00735290963            0.000282117897           
       2.081941             0.00746734185            0.000286033122           
       2.084581             0.00765568827            0.000289832451           
       2.087222             0.00754641497            0.000287952589           
       2.089862             0.00736133677            0.000280854846           
       2.092502             0.00742831651            0.000287255964           
       2.095143             0.00770033694            0.000288288328           
       2.097783             0.00732388022            0.000285431309           
       2.100423             0.00765304571            0.000286180376           
       2.103064             0.00772610965            0.000292507868           
       2.105704             0.00753884032            0.000287835766           
       2.108345             0.00717954217             0.00028218254           
       2.110985             0.00768053423            0.000287762476           
       2.113625             0.00717018045            0.000282418254           
       2.116266             0.00709196588            0.000278794796           
       2.118906             0.00755848407             0.00028760922           
       2.121546             0.00704167237            0.000277382076           
       2.124187             0.00761936939            0.000292526925           
       2.126827              0.0074255919            0.000284254226           
       2.129468             0.00747234469            0.000288123386           
       2.132108             0.00730351733            0.000284260488           
       2.134748               0.007095858            0.000279134244           
       2.137389             0.00708313251            0.000281219666           
       2.140029             0.00726584642            0.000284132013           
       2.142670             0.00767080114            0.000292419594           
       2.145310             0.00664800323            0.000273267368           
       2.147950             0.00734156089            0.000288278359           
       2.150591             0.00713623912            0.000281612085           
       2.153231             0.00717682108            0.000286586931           
       2.155871             0.00665860424            0.000272059573           
       2.158512             0.00794354861            0.000302507176           
       2.161152              0.0072511165            0.000281802243           
       2.163793             0.00709806251            0.000283348952           
       2.166433             0.00727269561            0.000281839761           
       2.169073             0.00707572855            0.000284487603           
       2.171714             0.00689948909            0.000275203127           
       2.174354             0.00710856514            0.000283610384           
       2.176995             0.00743231752            0.000287591281           
       2.179635             0.00688332577            0.000282003854           
       2.182275             0.00720038346            0.000282700039           
       2.184916             0.00723477517            0.000289363454           
       2.187556             0.00740357984            0.000288007235           
       2.190196             0.00693663951            0.000283158878           
       2.192837             0.00726132174            0.000286537496           
       2.195477             0.00706132741            0.000285289642           
       2.198118             0.00719438249             0.00028264858           
       2.200758             0.00701080846            0.000283352175           
       2.203398             0.00691469872            0.000276736625           
       2.206039             0.00673872603            0.000277368296           
       2.208679             0.00742118267            0.000288225397           
       2.211319             0.00738000102            0.000288777473           
       2.213960             0.00746017002            0.000287254697           
       2.216600             0.00751380294            0.000295077877           
       2.219241             0.00694109132            0.000279486187           
       2.221881             0.00710580819            0.000284256946           
       2.224521             0.00717244202            0.000284596075           
       2.227162             0.00722128478            0.000290048763           
       2.229802             0.00672937177            0.000275450499           
       2.232443             0.00674225462            0.000276797973           
       2.235083             0.00681800114            0.000276679423           
       2.237723             0.00698699155            0.000282233752           
       2.240364             0.00706194222            0.000282300265           
       2.243004             0.00709537632             0.00028382261           
       2.245644             0.00690623161            0.000279367442           
       2.248285             0.00697451466              0.0002825676           
       2.250925              0.0070136141            0.000282033498           
       2.253566             0.00781882178            0.000298511495           
       2.256206             0.00709581468            0.000283523245           
       2.258846             0.00673208627             0.00027616348           
       2.261487             0.00730199894             0.00028811304           
       2.264127              0.0071176796            0.000287144907           
       2.266767             0.00715396053            0.000283222882           
       2.269408              0.0070275981            0.000284044359           
       2.272048             0.00740458434            0.000289769921           
       2.274689             0.00687196666             0.00028025147           
       2.277329             0.00679575962            0.000278322879           
       2.279969             0.00692796959            0.000281868941           
       2.282610             0.00697295134            0.000280024809           
       2.285250               0.007015828            0.000285302048           
       2.287891             0.00685284625            0.000279123337           
       2.290531             0.00663589676            0.000276024001           
       2.293171             0.00723460759            0.000288192792           
       2.295812             0.00655605298             0.00027288877           
       2.298452             0.00694278383            0.000282620672           
       2.301092             0.00724587554            0.000290557802           
       2.303733             0.00694476475            0.000278830108           
       2.306373             0.00704255229            0.000287654105           
       2.309014             0.00700337737            0.000281325232           
       2.311654             0.00749922848            0.000293876892           
       2.314294             0.00714399767            0.000286205936           
       2.316935             0.00694787422            0.000283365539           
       2.319575             0.00736108031            0.000290577859           
       2.322215             0.00748925593            0.000297273366           
       2.324856             0.00728880572            0.000285903459           
       2.327496             0.00731417424            0.000293419617           
       2.330137             0.00683751152            0.000278465424           
       2.332777             0.00683883987            0.000281538396           
       2.335417             0.00753449018            0.000294623654           
       2.338058             0.00703609611            0.000285852022           
       2.340698             0.00705112467             0.00028333968           
       2.343339             0.00719483037            0.000291674144           
       2.345979             0.00711383334            0.000284240291           
       2.348619             0.00647719706            0.000276345505           
       2.351260             0.00687873894            0.000278728798           
       2.353900             0.00716047473             0.00029040341           
       2.356540             0.00653903237            0.000273698952           
       2.359181             0.00695863434            0.000286119437           
       2.361821             0.00702442071            0.000283966127           
       2.364462             0.00694798267            0.000287136864           
       2.367102             0.00726317132            0.000285087908           
       2.369742             0.00688721634            0.000287560265           
       2.372383             0.00703103968            0.000282077546           
       2.375023             0.00676169505            0.000283829038           
       2.377663             0.00763657425            0.000295222767           
       2.380304              0.0071956966            0.000290549405           
       2.382944             0.00688996642            0.000281529148           
       2.385585              0.0073654907               0.000293834           
       2.388225             0.00732237375             0.00029164898           
       2.390865              0.0067890006            0.000281545196           
       2.393506             0.00723306073            0.000289267871           
       2.396146             0.00693520873            0.000284188174           
       2.398787             0.00726102703            0.000291041533           
       2.401427             0.00704063207            0.000284850316           
       2.404067             0.00700875691            0.000288542607           
       2.406708             0.00666087394            0.000277754951           
       2.409348             0.00698765105            0.000286626709           
       2.411988              0.0072995297            0.000292017744           
       2.414629             0.00708185067            0.000288571774           
       2.417269             0.00650800468            0.000274121035           
       2.419910             0.00706212289            0.000289153609           
       2.422550             0.00677763818            0.000278969757           
       2.425190              0.0066725272            0.000285513066           
       2.427831             0.00668297713            0.000274990363           
       2.430471             0.00658210421            0.000280884581           
       2.433112             0.00754061038            0.000293547399           
       2.435752              0.0068669719            0.000287220491           
       2.438392             0.00684635775            0.000281968673           
       2.441033              0.0068660576            0.000283667999           
       2.443673             0.00685855774            0.000284270116           
       2.446313             0.00763098786            0.000298253194           
       2.448954             0.00693378723            0.000286796698           
       2.451594             0.00692725154            0.000284941482           
       2.454235             0.00745075978            0.000294592738           
       2.456875             0.00759214559            0.000298881004           
       2.459515             0.00753994533            0.000298310999           
       2.462156             0.00775607457            0.000300996626           
       2.464796             0.00751065469            0.000301420934           
       2.467436             0.00778128935            0.000300370313           
       2.470077             0.00744223839            0.000297804211           
       2.472717              0.0083149299            0.000310842157           
       2.475358             0.00803334446            0.000308995027           
       2.477998             0.00749974176             0.00029696361           
       2.480638               0.008047684            0.000308368135           
       2.483279             0.00688532648            0.000286456071           
       2.485919             0.00719780802            0.000290833406           
       2.488560             0.00692393419             0.00028642988           
       2.491200             0.00748705157            0.000297441407           
       2.493840             0.00700862931            0.000286214448           
       2.496481             0.00672523183            0.000284034454           
       2.499121             0.00686147721             0.00028307723           
       2.501761             0.00699950394            0.000290765184           
       2.504402             0.00738522913            0.000292945704           
       2.507042             0.00700718218            0.000290092769           
       2.509683             0.00732802347            0.000293958105           
       2.512323             0.00703185895            0.000289084158           
       2.514963             0.00958821762            0.000338236929           
       2.517604              0.0190924096            0.000475421576           
       2.520244              0.0492292969             0.00076358129           
       2.522884              0.0133662841            0.000397006625           
       2.525525              0.0100629218            0.000347301942           
       2.528165              0.0199398834            0.000486651949           
       2.530806              0.0317862515              0.0006121298           
       2.533446               0.028860043             0.00058845705           
       2.536086              0.0225203716            0.000515458564           
       2.538727              0.0173291545             0.00045506139           
       2.541367              0.0135320663            0.000400977255           
       2.544008             0.00982729878            0.000341997164           
       2.546648              0.0088475967            0.000324871008           
       2.549288             0.00778457518            0.000304774248           
       2.551929             0.00719458354            0.000293965133           
       2.554569              0.0070121925            0.000287562983           
       2.557209              0.0068375873            0.000287168624           
       2.559850             0.00716959604            0.000290676508           
       2.562490             0.00701168556            0.000289550641           
       2.565131             0.00789357419            0.000307755006           
       2.567771             0.00731139069             0.00029461875           
       2.570411             0.00742449854            0.000300501713           
       2.573052             0.00742870175            0.000297078041           
       2.575692             0.00746739551            0.000298640848           
       2.578332             0.00753796336            0.000299162267           
       2.580973             0.00734224106            0.000297646784           
       2.583613             0.00711800641            0.000290395757           
       2.586254             0.00690711774            0.000288592327           
       2.588894              0.0066321513            0.000281281191           
       2.591534             0.00738598786            0.000297382818           
       2.594175             0.00696158468            0.000290388438           
       2.596815             0.00713096243            0.000291167291           
       2.599456             0.00794419719            0.000309836334           
       2.602096             0.00714361745            0.000292710394           
       2.604736             0.00745014445            0.000299708399           
       2.607377             0.00731764538            0.000295895436           
       2.610017             0.00677987399            0.000284715846           
       2.612657             0.00698432529            0.000291018168           
       2.615298             0.00722847274            0.000293164974           
       2.617938             0.00706249642            0.000292314707           
       2.620579             0.00742233152            0.000297221046           
       2.623219             0.00666102059            0.000286069599           
       2.625859             0.00692450885            0.000286756925           
       2.628500             0.00676934461            0.000288057237           
       2.631140             0.00678720141            0.000283350468           
       2.633780             0.00680176881            0.000287297659           
       2.636421              0.0066562199            0.000281620946           
       2.639061             0.00699791751             0.00029221152           
       2.641702              0.0072208607            0.000293656626           
       2.644342             0.00682047538            0.000287740284           
       2.646982             0.00768784605            0.000305229723           
       2.649623             0.00664166874            0.000285403209           
       2.652263             0.00713836495            0.000293528308           
       2.654904              0.0066348727            0.000284523831           
       2.657544             0.00697187422            0.000289608158           
       2.660184             0.00707984331            0.000292215333           
       2.662825             0.00737735578            0.000299006938           
       2.665465             0.00690780931            0.000289870191           
       2.668105             0.00753485168            0.000302860521           
       2.670746             0.00675818518            0.000284400261           
       2.673386             0.00724513941            0.000298036969           
       2.676027             0.00684806834            0.000287291696           
       2.678667             0.00668977841            0.000285428159           
       2.681307             0.00720050014            0.000293794539           
       2.683948             0.00788772819            0.000310549031           
       2.686588             0.00763932268            0.000302815353           
       2.689229             0.00713308897            0.000295236207           
       2.691869              0.0072541608            0.000294759412           
       2.694509             0.00740508968            0.000301894102           
       2.697150             0.00710052984            0.000290902486           
       2.699790             0.00689418446            0.000292598676           
       2.702430             0.00748214126            0.000298975989           
       2.705071             0.00679778697            0.000288875396           
       2.707711             0.00692047032            0.000288580183           
       2.710352             0.00665795562            0.000284665001           
       2.712992             0.00618626858            0.000275288288           
       2.715632             0.00672990143            0.000285496152           
       2.718273             0.00678979588            0.000287715759           
       2.720913             0.00643542131             0.00028057454           
       2.723553             0.00630262133            0.000276699663           
       2.726194             0.00645151993            0.000281299226           
       2.728834             0.00674440831            0.000285056932           
       2.731475             0.00697070813            0.000292332601           
       2.734115             0.00665859726            0.000284010624           
       2.736755             0.00678816964            0.000288656268           
       2.739396              0.0072403019            0.000296537998           
       2.742036             0.00674401637            0.000288147958           
       2.744677             0.00740590944             0.00030239871           
       2.747317             0.00741466631            0.000301107456           
       2.749957             0.00711461585            0.000297091803           
       2.752598             0.00668515077            0.000288852685           
       2.755238             0.00670175601            0.000289080858           
       2.757878             0.00703599951             0.00029535861           
       2.760519             0.00660895192            0.000283232531           
       2.763159             0.00676918141            0.000291306165           
       2.765800              0.0073013441            0.000297415185           
       2.768440             0.00721717927            0.000299591358           
       2.771080             0.00712395183            0.000295141786           
       2.773721             0.00645654745            0.000284423747           
       2.776361             0.00700469761            0.000293069537           
       2.779001             0.00618861856            0.000278364688           
       2.781642             0.00676288011            0.000289007805           
       2.784282             0.00675030408            0.000288839694           
       2.786923             0.00683908167            0.000288521725           
       2.789563             0.00625271184            0.000276430129           
       2.792203             0.00658662459            0.000285521193           
       2.794844             0.00617314541            0.000275156338           
       2.797484             0.00630364879             0.00027844137           
       2.800125             0.00659635822            0.000284464636           
       2.802765             0.00668673535             0.00029171617           
       2.805405             0.00662651491            0.000286207686           
       2.808046             0.00706523885            0.000300061899           
       2.810686             0.00674641686            0.000290089202           
       2.813326             0.00704716723            0.000300152849           
       2.815967              0.0071223992            0.000299849094           
       2.818607             0.00741296272            0.000308962163           
       2.821248             0.00681537886            0.000292553409           
       2.823888             0.00627185007            0.000285165738           
       2.826528              0.0068385443            0.000295993716           
       2.829169             0.00650948564            0.000287509628           
       2.831809              0.0066340181            0.000290501063           
       2.834449             0.00672940976            0.000287475214           
       2.837090             0.00653652019            0.000285030259           
       2.839730              0.0066140283            0.000284679078           
       2.842371             0.00628410373            0.000279421377           
       2.845011             0.00659951818            0.000285709307           
       2.847651             0.00651468813            0.000284388432           
       2.850292             0.00682265189            0.000289379045           
       2.852932             0.00636452869            0.000279995911           
       2.855573             0.00731965628            0.000302908516           
       2.858213             0.00696241854            0.000292109552           
       2.860853             0.00693476811            0.000293711003           
       2.863494             0.00648277066            0.000284661704           
       2.866134             0.00703484054            0.000300694316           
       2.868774             0.00675712478            0.000290188141           
       2.871415             0.00666012361            0.000290949162           
       2.874055             0.00665373815            0.000292250164           
       2.876696             0.00704114986            0.000297930756           
       2.879336              0.0071128028            0.000301430552           
       2.881976             0.00682093401            0.000294938335           
       2.884617             0.00702865434            0.000297732396           
       2.887257             0.00666107845            0.000287821706           
       2.889897             0.00649638225            0.000287499215           
       2.892538             0.00689225213            0.000294076146           
       2.895178             0.00661693792            0.000285204384           
       2.897819             0.00662413004            0.000288294241           
       2.900459             0.00682947553             0.00029030498           
       2.903099             0.00660543611            0.000286994307           
       2.905740               0.007405787            0.000300492138           
       2.908380             0.00644675947            0.000284098854           
       2.911021             0.00714780077            0.000299715896           
       2.913661             0.00662012342            0.000285266505           
       2.916301             0.00666431718            0.000290288796           
       2.918942              0.0072770395            0.000298763806           
       2.921582             0.00684794415            0.000292862304           
       2.924222             0.00742933602            0.000303271819           
       2.926863             0.00703955034            0.000295993082           
       2.929503             0.00676034854            0.000293283857           
       2.932144             0.00692435124            0.000291951858           
       2.934784              0.0077750341            0.000310680928           
       2.937424             0.00783680899            0.000312489626           
       2.940065             0.00667177858            0.000288562641           
       2.942705             0.00614138648            0.000277696323           
       2.945346             0.00702973617             0.00029534776           
       2.947986             0.00667654374            0.000288839176           
       2.950626             0.00695695723            0.000295748948           
       2.953267             0.00850444984            0.000323517882           
       2.955907              0.0109233845            0.000371499246           
       2.958547             0.00968214266            0.000346169588           
       2.961188             0.00798749738            0.000317163638           
       2.963828             0.00766457534            0.000308925604           
       2.966469             0.00723422617            0.000300202324           
       2.969109              0.0060960256            0.000276985385           
       2.971749             0.00720375731            0.000300215921           
       2.974390             0.00762239752            0.000309663529           
       2.977030             0.00940841062            0.000343380066           
       2.979670             0.00946184733            0.000342133725           
       2.982311             0.00779172626            0.000312714315           
       2.984951             0.00792718437            0.000316236413           
       2.987592             0.00720414716            0.000300452178           
       2.990232             0.00753323528            0.000308022472           
       2.992872             0.00721652843            0.000299119441           
       2.995513              0.0084630859            0.000326469749           
       2.998153             0.00771424648            0.000313702667           
       3.000794             0.00997106945            0.000351460282           
       3.003434              0.0267485017            0.000581749376           
       3.006074              0.0637536242            0.000901023332           
       3.008715              0.0383943326            0.000704549734           
       3.011355              0.0269450911            0.000596363585           
       3.013995              0.0204825368            0.000517409213           
       3.016636               0.031589153            0.000643761207           
       3.019276               0.154948746              0.0014598435           
       3.021917               0.228432085             0.00174245685           
       3.024557               0.143329552             0.00139124866           
       3.027197                 0.1242315             0.00131698671           
       3.029838               0.124719954             0.00131326316           
       3.032478              0.0578602781               0.000899832           
       3.035118              0.0389376828             0.00074196937           
       3.037759              0.0974923559             0.00117611672           
       3.040399               0.184144718             0.00163488064           
       3.043040              0.0788420219             0.00108014749           
       3.045680              0.0561490842            0.000897500902           
       3.048320               0.133810012              0.0014077371           
       3.050961               0.309382826              0.0021620141           
       3.053601              0.0904841513              0.0011640505           
       3.056242              0.0490084027            0.000862187197           
       3.058882               0.206549983             0.00179635335           
       3.061522               0.162772255             0.00158361612           
       3.064163              0.0248788014            0.000620246017           
       3.066803              0.0214977569            0.000587710771           
       3.069443              0.0349647692             0.00074452666           
       3.072084              0.0788178571             0.00112778447           
       3.074724              0.0300194813            0.000700119758           
       3.077365              0.0109095025            0.000421756874           
       3.080005             0.00922370959            0.000392104668           
       3.082645             0.00941527706             0.00039817265           
       3.085286             0.00838494092            0.000375823626           
       3.087926             0.00784474298             0.00036582879           
       3.090566             0.00876010666            0.000390565472           
       3.093207             0.00692536436            0.000343512662           
       3.095847             0.00718654537             0.00035726522           
       3.098488              0.0074826544            0.000363890158           
       3.101128             0.00760278511            0.000368797673           
       3.103768             0.00898269467            0.000403129871           
       3.106409             0.00958493523            0.000419213669           
       3.109049              0.0106684011            0.000445711261           
       3.111690              0.0117859999            0.000466631215           
       3.114330              0.0103738112            0.000441679138           
       3.116970              0.0118098899            0.000477815974           
       3.119611              0.0154839855            0.000543555633           
       3.122251              0.0143988173            0.000528455296           
       3.124891              0.0107942388             0.00045977374           
       3.127532             0.00846798155            0.000414564178           
       3.130172             0.00781777282               0.000390136           
       3.132813              0.0074561204            0.000388759627           
       3.135453                0.00924112             0.00044192937           
       3.138093             0.00728539965            0.000383079067           
       3.140734             0.00633738874            0.000363936215           
       3.143374             0.00640885683            0.000371577223           
       3.146014             0.00559515523            0.000344667889           
       3.148655              0.0069249762            0.000386464658           
       3.151295             0.00614923207            0.000367058336           
       3.153936             0.00631964326            0.000377602948           
       3.156576             0.00674484282            0.000385621034           
       3.159216             0.00647322015            0.000380866301           
       3.161857             0.00627512138            0.000379593379           
       3.164497             0.00670289845            0.000400590749           
       3.167138             0.00657643102            0.000387273948           
       3.169778             0.00643562451            0.000390023291           
       3.172418             0.00558205377            0.000365361316           
       3.175059              0.0060277302             0.00038463529           
       3.177699             0.00568524144             0.00037207279           
       3.180339             0.00634947639            0.000396722752           
       3.182980             0.00602813964             0.00039177208           
       3.185620             0.00554388176            0.000379812189           
       3.188261             0.00571890575            0.000380707062           
       3.190901             0.00498559639            0.000360939169           
       3.193541             0.00629861676            0.000407030337           
       3.196182             0.00657620307             0.00042455623           
       3.198822             0.00542488183            0.000380930597           
       3.201463             0.00646734821            0.000421302465           
       3.204103             0.00521300874            0.000383283475           
       3.206743             0.00572244804            0.000404970301           
       3.209384              0.0058484484            0.000407579432           
       3.212024             0.00620852029            0.000421430584           
       3.214664             0.00513799619             0.00039068684           
       3.217305              0.0059996818               0.000432028           
       3.219945             0.00581422117            0.000421741856           
       3.222586             0.00549499272            0.000412320906           
       3.225226             0.00581882463            0.000433855181           
       3.227866             0.00541614572            0.000421812252           
       3.230507             0.00534707709            0.000424115277           
       3.233147             0.00558963207             0.00042721415           
       3.235787             0.00518933586            0.000411744629           
       3.238428             0.00545187338            0.000429485139           
       3.241068             0.00581366841            0.000452500194           
       3.243709              0.0056496978            0.000443597422           
       3.246349             0.00682109399            0.000484692949           
       3.248989             0.00594931348            0.000463007499           
       3.251630             0.00537853245            0.000442184638           
       3.254270              0.0050341261            0.000440942933           
       3.256911             0.00525187471            0.000439093728           
       3.259551             0.00556155948            0.000461838981           
       3.262191             0.00652772644            0.000504952401           
       3.264832             0.00520315982            0.000455049936           
       3.267472             0.00466725121            0.000437090873           
       3.270112             0.00605294458            0.000499182176           
       3.272753             0.00505274141            0.000461682945           
       3.275393             0.00519187505            0.000470405195           
       3.278034             0.00663034648            0.000542420664           
       3.280674             0.00563137462            0.000501341823           
       3.283314             0.00524634912            0.000486573449           
       3.285955             0.00563273091            0.000513642606           
       3.288595             0.00605352919            0.000538423558           
       3.291235             0.00543899627            0.000513360943           
       3.293876             0.00524387758            0.000507053342           
       3.296516             0.00659356573            0.000580171603           
       3.299157             0.00642321121            0.000581282698           
       3.301797              0.0046927684            0.000497061784           
       3.304437             0.00504507238            0.000525042949           
       3.307078             0.00475476978             0.00051466484           
       3.309718             0.00564213508            0.000566233051           
       3.312359             0.00427697908            0.000502955735           
       3.314999             0.00640515788            0.000621954125           
       3.317639             0.00582830203            0.000599674986           
       3.320280             0.00637422829            0.000636289691           
       3.322920             0.00585454598            0.000618924109           
       3.325560             0.00667742456            0.000673754138           
       3.328201             0.00563788925             0.00062170909           
       3.330841             0.00579564782            0.000645677921           
       3.333482             0.00506466074             0.00061125114           
       3.336122             0.00556447162            0.000654627969           
       3.338762             0.00599777481            0.000685854236           
       3.341403             0.00396086344            0.000562525267           
       3.344043             0.00530035666            0.000675564746           
       3.346683             0.00443476155            0.000624212143           
       3.349324             0.00548978052            0.000705254651           
       3.351964             0.00400941045            0.000622086664           
       3.354605             0.00589716286            0.000762996319           
       3.357245             0.00524629158            0.000744955331           
       3.359885             0.00470181584            0.000705493309           
       3.362526             0.00485242591            0.000753349421           
       3.365166             0.00519067006            0.000769543983           
       3.367807             0.00424193471             0.00074469106           
       3.370447             0.00597304867             0.00088401681           
       3.373087             0.00646282257            0.000970487725           
       3.375728             0.00482256098            0.000831998169           
       3.378368             0.00598184754             0.00100128112           
       3.381008             0.00389034839            0.000800440754           
       3.383649             0.00475272465            0.000957469293           
       3.386289             0.00473460806            0.000956036813           
       3.388930             0.00458838414             0.00103362379           
       3.391570             0.00435766833             0.00100772438           
       3.394210             0.00577838827             0.00124337278           
       3.396851             0.00400512727             0.00112131914           
       3.399491             0.00665802342             0.00147199101           
       3.402131              0.0058166944             0.00162861497           
       3.404772             0.00396078487             0.00134448826           
       3.407412             0.00817005014             0.00239610834           
       3.410053             0.00362452454             0.00166182927           
       3.412693             0.00144687836             0.00148550433           
       3.415333             0.00416091618             0.00308655923           
