################################################################################
# EDF_DataBlockID                     0.Image.Psd
# EDF_BinarySize                      2105344
# EDF_HeaderSize                      2560
# ByteOrder                           LowByteFirst
# DataType                            FloatValue
# Dim_1                               512
# Dim_2                               1028
# Image                               0
# HeaderID                            EH:000000:000000:000000
# Size                                2105344
# Center_1                            304.9000
# Center_2                            588.7000
# Comment                             Xenocs_Cell_Window - front_window_open_only
# DDummy                              0.6
# Date                                2025-10-18T00:37:12
# Delta                               21.910000
# Dummy                               -1.5
# ExposureTime                        360
# Gamma                               15.360000
# Intensity1                          9.28941e-10
# PSize_1                             7.5e-05
# PSize_2                             7.5e-05
# Pressure                            0.0350313
# SampleDistance                      0.115750
# SampleEnvKind                       large
# SampleEnvPN                         ElectroChemical cell
# SampleEnvSN                         1141
# Thickness                           0
# Wavelength                          1.541891e-10
# Wavelength                          1.54189e-10
# aux                                 0
# aux_dial                            0.002375
# beamx                               588.429
# beamx_dial                          588.429
# beamz                               657.855
# beamz_dial                          657.855
# det0x                               -0.000396875
# det0x_dial                          6.36905
# det0xvd                             -0.0005
# det0xvd_dial                        -0.0005
# det0y                               450.002
# det0y_dial                          481.635
# det0z                               0
# det0z_dial                          1.2295
# det0zvd                             0
# det0zvd_dial                        0
# mag                                 1.818
# mag_dial                            1.818
# om                                  0.2499
# om_dial                             -0.610199
# phi                                 -0.0120535
# phi_dial                            0
# ry                                  0.599993
# ry_dial                             0.599993
# s1bot                               0.8
# s1bot_dial                          -1.66094
# s1hl                                0.8
# s1hl_dial                           -0.608437
# s1hr                                0.8
# s1hr_dial                           0.970938
# s1top                               0.8
# s1top_dial                          -0.461562
# s2bot                               0.45
# s2bot_dial                          1.36109
# s2hl                                0.45
# s2hl_dial                           -0.83375
# s2hr                                0.45
# s2hr_dial                           -0.118594
# s2top                               0.45
# s2top_dial                          1.44734
# w2theta                             32
# w2theta_dial                        32
# waxsch                              19.2605
# waxsch_dial                         -32.7238
# waxsh                               137.085
# waxsh_dial                          -43.5335
# waxsth                              26.0607
# waxsth_dial                         -19.4068
# waxsz                               67.0407
# waxsz_dial                          -23.7962
# wind                                65.9854
# wind_dial                           66.0041
# wpsi                                124
# wpsi_dial                           124
# wstod                               115
# wstod_dial                          115
# x                                   0
# x_dial                              1.00969
# z                                   0
# z_dial                              13.3172
# CountCutoff                         6807993
# DetectorModel                       Dectris EIGER2 Si 500K, S/N E-01-0554
# ThresholdSetting                    4023.88989258
# Saturation                          0
# FlatField                           Corrected
# BackgroundReductionExtra            0.02
# BackgroundCorrectionConstant        0.0026712
# Detector                            0
# Monitor                             0
# Pil_Roi0                            0
# SumForIntensity1                    3.34419e+08
# TransmittedFlux                     928941
# det                                 0
# mon                                 0
# pilai0                              3.34419e+08
# pilai1                              723847
# pilct0                              5.76431e+08
# pilct1                              723847
# pilroi0                             0
# pilroi1                             0
# sec                                 1
# title                               20251017__1_00059.edf
# usaxs0                              0
# Operation                           Azimuthal average I(q)
# Error_model                         ErrorModel.poisson
# Geometrical_correction              True
# Transmission_correction             True
# Thickness_correction                False
# Binning mode                        Uniform
# Binning factor                      1.0
# Psi                                 0.0
# Omega                               0.2499
# MaskInvalidPixels                   True
# DetectorEdge                        3
# MaskFiles                           ['20251017__1_00233_mask.edf']
################################################################################
    q(A⁻¹)                Intensity(a.u.)            Sigma_I(a.u.)            
       0.690460           -2.18639227e-05                         0           
       0.693100             0.00613089264             0.00316709021           
       0.695741             0.00330727501             0.00196516877           
       0.698381             0.00878727621             0.00299597375           
       0.701021             0.00788405953             0.00231606465           
       0.703662             0.00448855062             0.00161759998           
       0.706302             0.00528584311             0.00169531754           
       0.708942             0.00460145314              0.0014050292           
       0.711583             0.00506551646             0.00147390729           
       0.714223             0.00834413092             0.00164843976           
       0.716864             0.00695541976             0.00153580439           
       0.719504             0.00543034178             0.00125592782           
       0.722144             0.00771866662             0.00144613199           
       0.724785             0.00595406218             0.00124929896           
       0.727425             0.00603213887             0.00116636164           
       0.730065             0.00729569036             0.00131984314           
       0.732706             0.00724525569             0.00118275237           
       0.735346             0.00645051313             0.00120547009           
       0.737987              0.0063448096             0.00103480031           
       0.740627             0.00639498109             0.00113808496           
       0.743267             0.00819123644             0.00110793762           
       0.745908             0.00594676012              0.0010117284           
       0.748548             0.00757451792             0.00106495544           
       0.751189             0.00597267508            0.000936757989           
       0.753829             0.00726108056              0.0010421823           
       0.756469             0.00658553049            0.000933508936           
       0.759110             0.00617127395            0.000934704004           
       0.761750             0.00707380178            0.000915864683           
       0.764390             0.00635896478            0.000932132922           
       0.767031             0.00711195358            0.000892014568           
       0.769671             0.00752276642            0.000972949808           
       0.772312             0.00695532369            0.000852523862           
       0.774952              0.0067722397            0.000901841765           
       0.777592             0.00780014693            0.000885259621           
       0.780233             0.00710507747            0.000890698092           
       0.782873             0.00563836989            0.000725573928           
       0.785513             0.00492606108            0.000721438279           
       0.788154             0.00607937716            0.000736145836           
       0.790794             0.00672344493            0.000801232466           
       0.793435             0.00798076399            0.000838451178           
       0.796075             0.00751215302             0.00081776072           
       0.798715             0.00627290942            0.000743005681           
       0.801356             0.00750225298              0.0007908109           
       0.803996             0.00615490246            0.000727734166           
       0.806637             0.00739226582            0.000753883231           
       0.809277             0.00618697597            0.000721529181           
       0.811917             0.00703573482            0.000728104904           
       0.814558              0.0073137721             0.00076049207           
       0.817198              0.0080895926            0.000762620337           
       0.819838             0.00566708862            0.000665815563           
       0.822479             0.00686990294            0.000675569501           
       0.825119             0.00601040608            0.000678820233           
       0.827760             0.00657284989            0.000657768812           
       0.830400             0.00799015389             0.00076411853           
       0.833040             0.00576269877            0.000605634155           
       0.835681             0.00723653419            0.000710718828           
       0.838321             0.00632951847            0.000622135634           
       0.840961             0.00557908686            0.000610518496           
       0.843602             0.00594986865            0.000593886656           
       0.846242             0.00662772403            0.000648934736           
       0.848883             0.00651708518            0.000625976584           
       0.851523             0.00703684256            0.000655334299           
       0.854163             0.00711341363            0.000651235385           
       0.856804             0.00675587487            0.000618418974           
       0.859444              0.0058726419            0.000580724436           
       0.862085             0.00694012824            0.000622118727           
       0.864725             0.00714806264             0.00062905167           
       0.867365             0.00673533222            0.000606247944           
       0.870006             0.00709575245            0.000630939118           
       0.872646             0.00704909553            0.000601492843           
       0.875286             0.00539068243            0.000543922356           
       0.877927             0.00574714943            0.000537726445           
       0.880567             0.00551823179            0.000537201943           
       0.883208             0.00652610415             0.00056733226           
       0.885848             0.00708189824            0.000606323537           
       0.888488             0.00682010916            0.000565748929           
       0.891129             0.00654883424            0.000582755881           
       0.893769             0.00691392122            0.000565995351           
       0.896410             0.00749544471            0.000607470497           
       0.899050             0.00637403535            0.000540130863           
       0.901690             0.00621415455            0.000544445969           
       0.904331             0.00614803413             0.00052263491           
       0.906971             0.00750216073            0.000596147563           
       0.909611             0.00681286001            0.000545281165           
       0.912252             0.00584572935            0.000513849762           
       0.914892             0.00648532734            0.000527522382           
       0.917533             0.00641815382            0.000536624518           
       0.920173             0.00674314029            0.000527627901           
       0.922813             0.00720955666            0.000570130985           
       0.925454             0.00631261629            0.000506312337           
       0.928094              0.0066855139             0.00053223643           
       0.930734             0.00749936772            0.000550248798           
       0.933375             0.00666987085            0.000529988205           
       0.936015             0.00701586253            0.000520087923           
       0.938656             0.00724018123            0.000550498316           
       0.941296             0.00681430836            0.000514834767           
       0.943936             0.00716724117            0.000537507987           
       0.946577             0.00638780516            0.000488696137           
       0.949217              0.0073051746            0.000541067431           
       0.951858             0.00713404029            0.000505488669           
       0.954498             0.00702119688            0.000527573409           
       0.957138             0.00615623605            0.000474816041           
       0.959779             0.00697492485            0.000516457248           
       0.962419             0.00715559205            0.000503589188           
       0.965059             0.00773356383            0.000538402897           
       0.967700             0.00693839693            0.000493481478           
       0.970340             0.00868939748            0.000567768564           
       0.972981             0.00698494633              0.0004914997           
       0.975621             0.00699356729            0.000502100398           
       0.978261             0.00687351949             0.00047493724           
       0.980902             0.00737818648            0.000515493543           
       0.983542             0.00700172219            0.000487548325           
       0.986182             0.00659261545            0.000479320615           
       0.988823             0.00726814296            0.000487040584           
       0.991463             0.00713004001            0.000493913137           
       0.994104             0.00668074381             0.00046198266           
       0.996744              0.0065805949            0.000473375695           
       0.999384             0.00770040845            0.000494691208           
       1.002025             0.00681393291            0.000478302856           
       1.004665             0.00692398877            0.000462400216           
       1.007306             0.00775270712            0.000505685386           
       1.009946             0.00771771594            0.000485133913           
       1.012586             0.00733103401            0.000486425398           
       1.015227              0.0075961999             0.00048015659           
       1.017867             0.00743134586            0.000488527351           
       1.020507             0.00800738585            0.000488017677           
       1.023148             0.00728412721            0.000471078325           
       1.025788             0.00808744586             0.00049129242           
       1.028429             0.00626993154            0.000442035846           
       1.031069             0.00755817823            0.000467588745           
       1.033709             0.00694582602            0.000456854696           
       1.036350             0.00753006195            0.000463207298           
       1.038990             0.00697777485            0.000456905265           
       1.041630              0.0079437931            0.000478128958           
       1.044271             0.00800324721            0.000479968753           
       1.046911             0.00785497788            0.000466667242           
       1.049552             0.00775117367            0.000480279553           
       1.052192             0.00710700933            0.000439209254           
       1.054832             0.00875544228            0.000496971823           
       1.057473              0.0075665021             0.00045614947           
       1.060113             0.00768062791            0.000464553271           
       1.062754             0.00753684114            0.000455094669           
       1.065394             0.00836951861            0.000474530079           
       1.068034             0.00793659192            0.000460305212           
       1.070675             0.00759871909            0.000458322727           
       1.073315             0.00861965527            0.000473221066           
       1.075955             0.00742010426            0.000446423899           
       1.078596             0.00800488491            0.000462765205           
       1.081236             0.00745791019            0.000440049954           
       1.083877             0.00809228428            0.000472702838           
       1.086517             0.00799493645             0.00045922233           
       1.089157             0.00799730073            0.000462657617           
       1.091798             0.00802339569            0.000453593384           
       1.094438             0.00799371227            0.000459949184           
       1.097078              0.0072226491            0.000425968678           
       1.099719             0.00836670353            0.000470215433           
       1.102359             0.00749828842            0.000421693747           
       1.105000              0.0087133846            0.000472482169           
       1.107640             0.00824527451            0.000444633028           
       1.110280             0.00906790651             0.00047562301           
       1.112921             0.00798341345            0.000438201059           
       1.115561             0.00714316709            0.000419760258           
       1.118202             0.00767500787            0.000422406901           
       1.120842             0.00772292822            0.000437074093           
       1.123482             0.00764296905            0.000422608559           
       1.126123             0.00795333244            0.000433794212           
       1.128763             0.00772843959            0.000425496172           
       1.131403             0.00760758169            0.000421499836           
       1.134044             0.00762673607             0.00042129762           
       1.136684             0.00851819107            0.000448585185           
       1.139325             0.00805071886              0.0004238151           
       1.141965             0.00857995504            0.000443245848           
       1.144605             0.00825203591            0.000437246402           
       1.147246             0.00802943184            0.000423140102           
       1.149886             0.00772683639            0.000418042424           
       1.152527             0.00842872519            0.000437054304           
       1.155167             0.00828086699            0.000427113047           
       1.157807             0.00810012516             0.00042271717           
       1.160448             0.00804689117            0.000427090543           
       1.163088             0.00841459754            0.000420536689           
       1.165728             0.00855911474            0.000441614529           
       1.168369             0.00783240637              0.0004073699           
       1.171009             0.00856333779            0.000429485691           
       1.173650             0.00842232316            0.000422863318           
       1.176290               0.007992233            0.000416758383           
       1.178930             0.00859176764            0.000419960207           
       1.181571             0.00896663388            0.000443036601           
       1.184211             0.00898282986            0.000430044054           
       1.186851             0.00838176634            0.000419237593           
       1.189492             0.00930743214            0.000444234568           
       1.192132             0.00814006922            0.000409290207           
       1.194773               0.009052039            0.000429005096           
       1.197413              0.0083519998            0.000415444316           
       1.200053             0.00889470794            0.000426032106           
       1.202694             0.00886275806            0.000422061574           
       1.205334             0.00920903806            0.000434930878           
       1.207975             0.00947779233            0.000432586357           
       1.210615             0.00871303657            0.000423537529           
       1.213255             0.00927751343            0.000425479688           
       1.215896             0.00844297331            0.000413585954           
       1.218536             0.00905612701            0.000416003445           
       1.221176             0.00858362806            0.000414672686           
       1.223817             0.00838968883            0.000401418745           
       1.226457             0.00902667733            0.000421667571           
       1.229098             0.00921355619             0.00041954716           
       1.231738             0.00964628784            0.000435331535           
       1.234378             0.00885330729            0.000408950963           
       1.237019             0.00892261305            0.000413859975           
       1.239659             0.00917339365            0.000419408639           
       1.242299              0.0093019862             0.00042017891           
       1.244940             0.00901283034             0.00040913216           
       1.247580             0.00962590525            0.000424685268           
       1.250221             0.00914327073            0.000420657971           
       1.252861             0.00897776019            0.000401303492           
       1.255501             0.00955461615            0.000425684248           
       1.258142              0.0102831107            0.000432883701           
       1.260782             0.00987104442            0.000428912478           
       1.263423             0.00975759935            0.000417992116           
       1.266063             0.00940272093            0.000417968471           
       1.268703              0.0089798467            0.000398170384           
       1.271344             0.00971332423            0.000423131969           
       1.273984             0.00907622982            0.000402634976           
       1.276624             0.00918432258            0.000402554214           
       1.279265             0.00964113062            0.000413344313           
       1.281905             0.00978906015            0.000419070581           
       1.284546             0.00963610164            0.000411241411           
       1.287186             0.00981500016            0.000415440022           
       1.289826             0.00954276677            0.000411762341           
       1.292467             0.00994346818            0.000412816528           
       1.295107             0.00992225699            0.000419644704           
       1.297747             0.00929513441            0.000395513171           
       1.300388             0.00983096635            0.000417198538           
       1.303028              0.0100300358            0.000410685448           
       1.305669             0.00954983904            0.000405911388           
       1.308309             0.00938086746            0.000396255271           
       1.310949              0.0103445752            0.000421298057           
       1.313590             0.00957778152            0.000399109427           
       1.316230              0.0100296759            0.000415767723           
       1.318871             0.00923448019            0.000390338808           
       1.321511             0.00977564773            0.000403626087           
       1.324151             0.00996864638            0.000409201542           
       1.326792              0.0100049082            0.000406624337           
       1.329432             0.00998011479            0.000408238633           
       1.332072              0.0101025734            0.000403692479           
       1.334713              0.0108069269            0.000422706282           
       1.337353             0.00995476513            0.000399457634           
       1.339994              0.0105571137             0.00041722476           
       1.342634              0.0102297454            0.000401458934           
       1.345274              0.0117208853            0.000435341214           
       1.347915              0.0111996438            0.000426682419           
       1.350555               0.010742971            0.000416260139           
       1.353195             0.00997179792            0.000393369453           
       1.355836              0.0104180949             0.00040966223           
       1.358476             0.00983444515            0.000396902229           
       1.361117              0.0100571341            0.000391302001           
       1.363757              0.0101769081            0.000406670202           
       1.366397             0.00968359505            0.000384338053           
       1.369038              0.0100351166            0.000399498226           
       1.371678             0.00995499226            0.000389865696           
       1.374319             0.00932483225            0.000380317162           
       1.376959              0.0105376254            0.000398727648           
       1.379599               0.010843932            0.000412365362           
       1.382240              0.0100913361            0.000390242865           
       1.384880              0.0096702496            0.000386704529           
       1.387520              0.0101529976            0.000391606549           
       1.390161              0.0110048994            0.000406596693           
       1.392801              0.0109046282            0.000407152426           
       1.395442              0.0102993138            0.000391590701           
       1.398082              0.0102684886            0.000392342315           
       1.400722             0.00950516824            0.000375772835           
       1.403363              0.0105766987            0.000400066442           
       1.406003              0.0105510202            0.000389768736           
       1.408644              0.0109787067            0.000405936811           
       1.411284              0.0110956156            0.000405854384           
       1.413924              0.0106549088            0.000392807401           
       1.416565              0.0102185485            0.000384227606           
       1.419205             0.00992595648            0.000382417033           
       1.421845              0.0103667653            0.000385903063           
       1.424486              0.0113114866            0.000404882972           
       1.427126              0.0101284268            0.000382883425           
       1.429767              0.0101014103            0.000376480128           
       1.432407               0.010388665            0.000391413576           
       1.435047              0.0104564067            0.000380887151           
       1.437688             0.00997629507            0.000380278866           
       1.440328              0.0108888899            0.000389592563           
       1.442968              0.0110700551             0.00039825793           
       1.445609             0.00994962101            0.000371355707           
       1.448249              0.0102055296            0.000378532921           
       1.450890              0.0103628898            0.000378719064           
       1.453530              0.0102381695            0.000379221458           
       1.456170              0.0092957759            0.000360533573           
       1.458811              0.0102833595            0.000376184959           
       1.461451               0.010489258            0.000382725215           
       1.464092               0.010330344            0.000376504258           
       1.466732              0.0101212881            0.000370389291           
       1.469372              0.0103756463            0.000373861782           
       1.472013              0.0100381987            0.000374311029           
       1.474653              0.0105143458            0.000373626571           
       1.477293             0.00968966672            0.000364712275           
       1.479934              0.0101719846            0.000369768002           
       1.482574              0.0103699658            0.000372427716           
       1.485215             0.00949036603            0.000357200189           
       1.487855              0.0100415516            0.000367350713           
       1.490495             0.00973970121            0.000361008584           
       1.493136             0.00990072412            0.000359207273           
       1.495776              0.0104281825            0.000375078756           
       1.498416             0.00997105977            0.000359640567           
       1.501057              0.0098948156            0.000361344456           
       1.503697             0.00993138797             0.00035853099           
       1.506338             0.00960010534             0.00035509281           
       1.508978              0.0101898258            0.000363676664           
       1.511618              0.0102435836            0.000364450439           
       1.514259             0.00952509278            0.000352071425           
       1.516899              0.0101575038            0.000363740672           
       1.519540             0.00959642465            0.000351589836           
       1.522180             0.00971745615            0.000349381671           
       1.524820             0.00968362868            0.000355817384           
       1.527461             0.00974968144            0.000349130699           
       1.530101              0.0103221646            0.000362948884           
       1.532741             0.00994866874            0.000354633733           
       1.535382             0.00968481432            0.000350669967           
       1.538022             0.00945357968            0.000343393067           
       1.540663             0.00912009956            0.000340469655           
       1.543303             0.00991753277             0.00035062433           
       1.545943             0.00967368727            0.000348227759           
       1.548584             0.00909596051            0.000339467459           
       1.551224              0.0095896146            0.000339621503           
       1.553864             0.00969935715            0.000350481963           
       1.556505             0.00954554771            0.000342343394           
       1.559145             0.00958966556            0.000343926865           
       1.561786             0.00981904505            0.000346439225           
       1.564426             0.00954485387            0.000341259399           
       1.567066             0.00918182739            0.000332094376           
       1.569707             0.00967416084            0.000345816741           
       1.572347             0.00894832435            0.000328275688           
       1.574988             0.00922895895            0.000332064713           
       1.577628             0.00861113918            0.000327979178           
       1.580268             0.00930986655            0.000329257418           
       1.582909             0.00912193126            0.000332013145           
       1.585549             0.00878460615            0.000322771608           
       1.588189             0.00905225181            0.000331311293           
       1.590830             0.00852090743            0.000315922961           
       1.593470             0.00913216664            0.000329729156           
       1.596111              0.0084698458            0.000314803285           
       1.598751             0.00857697435            0.000320026325           
       1.601391             0.00876029568            0.000321360453           
       1.604032             0.00926130909            0.000327662908           
       1.606672             0.00857570817             0.00032164754           
       1.609312             0.00880491254            0.000316219826           
       1.611953             0.00914126882            0.000326872657           
       1.614593             0.00843546611             0.00031161198           
       1.617234             0.00858075889            0.000316065614           
       1.619874             0.00864875097            0.000313582389           
       1.622514              0.0085810155            0.000315114502           
       1.625155             0.00868199996            0.000316179405           
       1.627795             0.00893205923            0.000317459663           
       1.630436             0.00888622719            0.000319826867           
       1.633076             0.00844663773             0.00031023161           
       1.635716              0.0085092234             0.00031083582           
       1.638357              0.0089513452            0.000317454239           
       1.640997             0.00840283045            0.000309979456           
       1.643637             0.00837579074            0.000303733558           
       1.646278             0.00884526182            0.000316801862           
       1.648918             0.00875825074            0.000311175728           
       1.651559             0.00838701273            0.000308338043           
       1.654199             0.00838623279            0.000304097421           
       1.656839             0.00793092255            0.000295647483           
       1.659480             0.00892782351            0.000316441416           
       1.662120             0.00838969543            0.000302645744           
       1.664761             0.00885668646            0.000314321444           
       1.667401             0.00903283852            0.000314474694           
       1.670041             0.00836292881            0.000302935026           
       1.672682             0.00797723253            0.000293082863           
       1.675322             0.00881588217            0.000313551462           
       1.677962             0.00854025696            0.000302481987           
       1.680603             0.00796090458             0.00029463382           
       1.683243             0.00800058458            0.000293182144           
       1.685884             0.00826367508            0.000299097498           
       1.688524             0.00818916501            0.000296908322           
       1.691164             0.00811019013            0.000294713736           
       1.693805              0.0080311042            0.000295644868           
       1.696445             0.00864913521            0.000302551358           
       1.699085             0.00830195153            0.000297600242           
       1.701726             0.00788519842            0.000286261759           
       1.704366             0.00823376487            0.000299638145           
       1.707007              0.0089271752            0.000305342327           
       1.709647             0.00821933006            0.000296627272           
       1.712287             0.00794359069            0.000286735893           
       1.714928             0.00823472447            0.000294878652           
       1.717568             0.00840356284            0.000295147047           
       1.720209             0.00783860366            0.000286813534           
       1.722849             0.00826711405            0.000295021071           
       1.725489             0.00825075365            0.000290031366           
       1.728130             0.00830562507            0.000296917926           
       1.730770             0.00821765085            0.000289098454           
       1.733410             0.00796934614            0.000288434659           
       1.736051              0.0083479294             0.00029062404           
       1.738691             0.00806785308            0.000288623429           
       1.741332             0.00900629823            0.000303070772           
       1.743972             0.00808708922            0.000287294997           
       1.746612              0.0082701105            0.000290594576           
       1.749253             0.00806450824            0.000288199749           
       1.751893             0.00833405503            0.000291218823           
       1.754533             0.00838257138            0.000288056711           
       1.757174             0.00853357311            0.000296073611           
       1.759814             0.00862276014            0.000293079438           
       1.762455             0.00791090533            0.000283111155           
       1.765095             0.00815156834            0.000283349425           
       1.767735             0.00865788689            0.000296978758           
       1.770376             0.00793375971            0.000279976981           
       1.773016              0.0084837023            0.000289974886           
       1.775657             0.00796206706            0.000281494199           
       1.778297             0.00830649072            0.000288924735           
       1.780937             0.00847733397            0.000290518787           
       1.783578             0.00824880121            0.000285230439           
       1.786218             0.00816914468            0.000288379439           
       1.788858             0.00854532909            0.000287616592           
       1.791499             0.00833957926            0.000289369571           
       1.794139             0.00867168272            0.000289626199           
       1.796780             0.00891726466            0.000295443785           
       1.799420             0.00889467173            0.000294693608           
       1.802060             0.00895901334            0.000292119916           
       1.804701             0.00908490019            0.000298111576           
       1.807341             0.00915742132            0.000296407051           
       1.809981             0.00843065345            0.000286290723           
       1.812622             0.00861691147            0.000287859026           
       1.815262             0.00834586779            0.000284305683           
       1.817903             0.00827195413            0.000279547059           
       1.820543             0.00859871414            0.000288537741           
       1.823183             0.00797432051             0.00027358293           
       1.825824             0.00801717517            0.000278442342           
       1.828464             0.00825001361              0.0002815901           
       1.831105             0.00887828287            0.000293246373           
       1.833745             0.00828392715            0.000283083877           
       1.836385             0.00852027941            0.000285977266           
       1.839026             0.00834996004            0.000287360248           
       1.841666             0.00808364476            0.000279069249           
       1.844306             0.00826784605             0.00028579397           
       1.846947             0.00831708698            0.000282960163           
       1.849587              0.0081467472            0.000283845805           
       1.852228             0.00829818913            0.000283425031           
       1.854868              0.0078395583            0.000280533957           
       1.857508             0.00818114176            0.000281288814           
       1.860149             0.00825957823            0.000284899467           
       1.862789             0.00828400469            0.000286582951           
       1.865429             0.00804211963            0.000283219285           
       1.868070             0.00845590099            0.000289410462           
       1.870710             0.00792627968            0.000280963625           
       1.873351             0.00828048452            0.000289006119           
       1.875991             0.00811060491            0.000287573387           
       1.878631             0.00870145986            0.000295095555           
       1.881272             0.00834528075            0.000288315885           
       1.883912             0.00829491189            0.000290815581           
       1.886553             0.00829471546            0.000287323705           
       1.889193              0.0082118066            0.000289186571           
       1.891833             0.00806636374            0.000283352539           
       1.894474             0.00798989802            0.000284238245           
       1.897114             0.00840144353             0.00028920582           
       1.899754             0.00826005006            0.000289977868           
       1.902395             0.00760982499            0.000278389866           
       1.905035             0.00883098443            0.000298720715           
       1.907676             0.00807510247            0.000285982462           
       1.910316             0.00870294383            0.000298785013           
       1.912956             0.00840743025            0.000293656822           
       1.915597             0.00813337212            0.000285819808           
       1.918237             0.00834424187             0.00029389582           
       1.920878             0.00820003677            0.000286189096           
       1.923518             0.00885175233            0.000305244457           
       1.926158             0.00860552541             0.00029405309           
       1.928799             0.00845424136            0.000295329938           
       1.931439             0.00821243088            0.000288743082           
       1.934079             0.00824148925            0.000292182698           
       1.936720             0.00819438335            0.000289631696           
       1.939360             0.00784517449            0.000286124378           
       1.942001             0.00801885328             0.00028816136           
       1.944641              0.0086310197            0.000297670087           
       1.947281             0.00816219358            0.000290871224           
       1.949922             0.00799121038            0.000288168713           
       1.952562             0.00791777488            0.000289309878           
       1.955202             0.00789587368            0.000281650696           
       1.957843             0.00753380196            0.000283856829           
       1.960483             0.00750676166            0.000278827364           
       1.963124             0.00781861361             0.00028434905           
       1.965764             0.00802417774            0.000288165788           
       1.968404             0.00801885368            0.000293221486           
       1.971045              0.0081764285             0.00028866635           
       1.973685             0.00763548089            0.000284159604           
       1.976326              0.0078405702             0.00028669516           
       1.978966             0.00774574864            0.000286304692           
       1.981606             0.00805685958            0.000288909815           
       1.984247             0.00793764193            0.000289264839           
       1.986887             0.00777074437            0.000288884351           
       1.989527             0.00778947427            0.000283206598           
       1.992168             0.00816305932            0.000296913257           
       1.994808             0.00762026177            0.000283535173           
       1.997449             0.00804372924            0.000290879668           
       2.000089             0.00766120399            0.000282207352           
       2.002729             0.00819943095            0.000298642059           
       2.005370             0.00832178738            0.000295142834           
       2.008010             0.00732542687            0.000280587582           
       2.010650             0.00743832957            0.000281932745           
       2.013291             0.00801041868            0.000294239096           
       2.015931             0.00729460085            0.000278775152           
       2.018572              0.0080000752             0.00029582187           
       2.021212             0.00747091547            0.000283305426           
       2.023852             0.00753461221            0.000286005183           
       2.026493             0.00723590306            0.000279050249           
       2.029133             0.00763008962            0.000284364362           
       2.031774             0.00783606675            0.000290971708           
       2.034414             0.00768569008            0.000286446538           
       2.037054             0.00761576235            0.000288735856           
       2.039695             0.00772322484            0.000285038499           
       2.042335             0.00771056655            0.000289652593           
       2.044975             0.00728446422            0.000279285378           
       2.047616             0.00737410964            0.000282202716           
       2.050256             0.00829623757            0.000295806773           
       2.052897             0.00750056979            0.000289594548           
       2.055537             0.00769869877            0.000285395392           
       2.058177             0.00795554868            0.000292679805           
       2.060818             0.00743822419            0.000283853453           
       2.063458             0.00755598212             0.00028648558           
       2.066098             0.00743360731            0.000282895166           
       2.068739             0.00777936039            0.000292416899           
       2.071379             0.00783002195            0.000289035152           
       2.074020             0.00734432492            0.000283760491           
       2.076660             0.00753556735             0.00028548289           
       2.079300             0.00734550759            0.000281818883           
       2.081941             0.00762140925            0.000288807928           
       2.084581             0.00730381298             0.00028293578           
       2.087222             0.00739791127            0.000284946525           
       2.089862             0.00774335667            0.000287889861           
       2.092502             0.00714376142            0.000281543487           
       2.095143             0.00697820104            0.000274285022           
       2.097783             0.00739238295            0.000286603428           
       2.100423             0.00719146024            0.000277261391           
       2.103064             0.00745518937             0.00028717367           
       2.105704             0.00711754407            0.000279521828           
       2.108345             0.00792382653            0.000296283456           
       2.110985             0.00738413489            0.000281998253           
       2.113625             0.00730909154              0.0002849821           
       2.116266             0.00742183411            0.000285046114           
       2.118906             0.00746289217            0.000285625644           
       2.121546             0.00752462155            0.000286576766           
       2.124187             0.00743770897            0.000288857788           
       2.126827             0.00734777236             0.00028260341           
       2.129468             0.00743409482             0.00028722502           
       2.132108             0.00721917328             0.00028245701           
       2.134748              0.0075427024            0.000287628759           
       2.137389              0.0079160033            0.000297128389           
       2.140029             0.00689715769            0.000276675242           
       2.142670              0.0080765704            0.000299887083           
       2.145310             0.00696138465            0.000279478329           
       2.147950               0.007254143            0.000286397389           
       2.150591             0.00721347227            0.000282974261           
       2.153231             0.00728541365             0.00028858622           
       2.155871             0.00775448207            0.000293431659           
       2.158512             0.00753524977            0.000294466157           
       2.161152             0.00784783483            0.000293005041           
       2.163793             0.00758690631            0.000292780549           
       2.166433             0.00709564922            0.000278233094           
       2.169073             0.00718636856             0.00028654357           
       2.171714             0.00721672147            0.000281302136           
       2.174354             0.00689363095            0.000279134379           
       2.176995              0.0074477213             0.00028772888           
       2.179635             0.00765478535            0.000297221725           
       2.182275             0.00705628387            0.000279701141           
       2.184916             0.00718029374            0.000288111389           
       2.187556             0.00700747848            0.000280040963           
       2.190196             0.00700475026            0.000284387241           
       2.192837             0.00726815051            0.000286512607           
       2.195477             0.00714228762            0.000286760717           
       2.198118             0.00703619022            0.000279368215           
       2.200758             0.00721185958            0.000287226358           
       2.203398             0.00718563378            0.000281949097           
       2.206039             0.00746148239            0.000291701483           
       2.208679             0.00708669409            0.000281498243           
       2.211319             0.00664662117            0.000273901067           
       2.213960              0.0073579462            0.000285121022           
       2.216600             0.00719406615            0.000288570627           
       2.219241             0.00700385826             0.00028059072           
       2.221881             0.00687418783            0.000279430111           
       2.224521              0.0070692194            0.000282383472           
       2.227162             0.00674820127            0.000280230857           
       2.229802             0.00749713601            0.000290577616           
       2.232443             0.00743182183            0.000290446491           
       2.235083             0.00717337441            0.000283640496           
       2.237723             0.00691218919             0.00028056262           
       2.240364             0.00686445445            0.000278170057           
       2.243004             0.00705643528            0.000282885126           
       2.245644             0.00755166203            0.000291967596           
       2.248285             0.00673618786             0.00027754322           
       2.250925             0.00723331032            0.000286257233           
       2.253566             0.00689350218             0.00028013574           
       2.256206             0.00738048672            0.000288993583           
       2.258846             0.00745551206            0.000290461322           
       2.261487             0.00688037713            0.000279515769           
       2.264127              0.0069482873            0.000283549538           
       2.266767             0.00703237118            0.000280649401           
       2.269408             0.00711252634            0.000285596456           
       2.272048             0.00736226531            0.000288779827           
       2.274689             0.00761167577            0.000294785201           
       2.277329             0.00730442766             0.00028839064           
       2.279969             0.00701142251            0.000283403668           
       2.282610             0.00760432794            0.000292264974           
       2.285250             0.00649960743            0.000274452471           
       2.287891             0.00720668343            0.000286079367           
       2.290531             0.00715707538            0.000286498922           
       2.293171             0.00665226404            0.000276196725           
       2.295812             0.00695587523            0.000280930239           
       2.298452             0.00710650255            0.000285774334           
       2.301092             0.00726445821            0.000290768182           
       2.303733             0.00737632494             0.00028720307           
       2.306373              0.0068866844            0.000284294715           
       2.309014              0.0076050401            0.000292997446           
       2.311654             0.00672341986             0.00027810604           
       2.314294             0.00661403178            0.000275232227           
       2.316935             0.00698368281            0.000283936662           
       2.319575             0.00733777849            0.000289956067           
       2.322215             0.00756550526            0.000298616495           
       2.324856             0.00712779443            0.000282570594           
       2.327496             0.00676478239            0.000282027572           
       2.330137              0.0066907213            0.000275306758           
       2.332777             0.00673609414            0.000279259945           
       2.335417             0.00647761165            0.000273027435           
       2.338058              0.0067824458            0.000280496026           
       2.340698             0.00691669036            0.000280469428           
       2.343339             0.00704630645            0.000288487218           
       2.345979             0.00710416651            0.000283888971           
       2.348619             0.00778589905            0.000302810823           
       2.351260             0.00741319819            0.000289193411           
       2.353900              0.0067255057             0.00028128815           
       2.356540             0.00727207392            0.000288472018           
       2.359181             0.00716874706            0.000290245264           
       2.361821             0.00684367311            0.000280132869           
       2.364462              0.0069046045            0.000286079773           
       2.367102             0.00679947731             0.00027568401           
       2.369742             0.00694582231            0.000288620388           
       2.372383             0.00725291232            0.000286334129           
       2.375023             0.00611812085             0.00026983372           
       2.377663             0.00694278018            0.000281336075           
       2.380304             0.00708972941            0.000288241532           
       2.382944             0.00711245735            0.000285879366           
       2.385585             0.00703311111            0.000286967757           
       2.388225             0.00689268917             0.00028280496           
       2.390865             0.00720353744            0.000289851977           
       2.393506             0.00704592413            0.000285342383           
       2.396146              0.0069987478            0.000285328113           
       2.398787             0.00678141791            0.000281108745           
       2.401427             0.00680432328            0.000279873327           
       2.404067              0.0068324036            0.000284730748           
       2.406708             0.00738586577            0.000292317669           
       2.409348             0.00678500705            0.000282282766           
       2.411988             0.00749631987            0.000295763119           
       2.414629             0.00673119818            0.000281180252           
       2.417269             0.00713846334            0.000286931984           
       2.419910             0.00697924045            0.000287291794           
       2.422550             0.00747486407            0.000292804497           
       2.425190             0.00648937168            0.000281410498           
       2.427831              0.0069680802            0.000280638478           
       2.430471             0.00708109833             0.00029117494           
       2.433112              0.0072519403            0.000287713511           
       2.435752             0.00729198341            0.000295810633           
       2.438392             0.00701188567            0.000285198107           
       2.441033             0.00699542508            0.000286168507           
       2.443673             0.00670849047            0.000280986446           
       2.446313             0.00747789831             0.00029508196           
       2.448954             0.00666350577            0.000280994901           
       2.451594             0.00753845279            0.000297080721           
       2.454235             0.00726238876            0.000290683019           
       2.456875             0.00708988654            0.000288664816           
       2.459515             0.00758621018            0.000299058233           
       2.462156             0.00782061421            0.000302078093           
       2.464796             0.00822011067            0.000315160301           
       2.467436             0.00718111652            0.000288393436           
       2.470077             0.00781715132            0.000305043282           
       2.472717             0.00720548253            0.000289201348           
       2.475358             0.00748742941            0.000298145202           
       2.477998             0.00773011895            0.000301322338           
       2.480638             0.00771851396            0.000301827664           
       2.483279             0.00670690571            0.000282562824           
       2.485919             0.00719154402             0.00029054499           
       2.488560             0.00814492121            0.000310487027           
       2.491200             0.00739762849            0.000295495202           
       2.493840             0.00701122704            0.000286108119           
       2.496481              0.0068560147            0.000286623255           
       2.499121             0.00682344179            0.000282134392           
       2.501761             0.00696539832            0.000289894457           
       2.504402             0.00713167794            0.000287712789           
       2.507042             0.00758649439            0.000301678201           
       2.509683             0.00746293541            0.000296486563           
       2.512323             0.00693485359            0.000286923437           
       2.514963             0.00916380255            0.000330482223           
       2.517604              0.0196723734            0.000482319761           
       2.520244              0.0509169703            0.000776127191           
       2.522884              0.0134456046            0.000397961205           
       2.525525             0.00911128565            0.000330288272           
       2.528165              0.0201941784            0.000489472632           
       2.530806              0.0340307677             0.00063302068           
       2.533446              0.0198405179            0.000487641822           
       2.536086              0.0178309883            0.000458407643           
       2.538727              0.0173546292            0.000455142229           
       2.541367              0.0170219556            0.000449469851           
       2.544008              0.0104708924            0.000352821818           
       2.546648             0.00785279138            0.000305892259           
       2.549288             0.00786524899            0.000306178864           
       2.551929             0.00774609292            0.000304854424           
       2.554569             0.00766837827            0.000300549486           
       2.557209             0.00745783194            0.000299743656           
       2.559850             0.00756946076            0.000298506108           
       2.562490             0.00719982618            0.000293246259           
       2.565131             0.00691731227            0.000287935445           
       2.567771             0.00742038343            0.000296641371           
       2.570411             0.00727767845            0.000297350025           
       2.573052             0.00765862568            0.000301472479           
       2.575692             0.00694592563            0.000287864332           
       2.578332              0.0070197054            0.000288534273           
       2.580973             0.00752703687            0.000301201449           
       2.583613             0.00699453655            0.000287705862           
       2.586254              0.0070155194            0.000290686207           
       2.588894             0.00710323641            0.000290937548           
       2.591534             0.00718229432            0.000293090227           
       2.594175             0.00717355769            0.000294612198           
       2.596815             0.00778477422            0.000304053273           
       2.599456             0.00701883363            0.000291070352           
       2.602096             0.00684395223            0.000286345719           
       2.604736             0.00662322894             0.00028242921           
       2.607377             0.00627518793             0.00027385717           
       2.610017             0.00705878478            0.000290351422           
       2.612657             0.00703273988            0.000291862508           
       2.615298              0.0068593155            0.000285421942           
       2.617938             0.00685081526            0.000287740395           
       2.620579             0.00691739786            0.000286773437           
       2.623219             0.00699110598            0.000292908801           
       2.625859             0.00721611215            0.000292569618           
       2.628500             0.00655305576            0.000283260209           
       2.631140             0.00672186692            0.000281826405           
       2.633780             0.00710361872            0.000293439879           
       2.636421             0.00673186524            0.000283059014           
       2.639061             0.00707041383            0.000293557716           
       2.641702              0.0063671137            0.000275597189           
       2.644342             0.00763879534            0.000304343438           
       2.646982             0.00761253346            0.000303561892           
       2.649623             0.00747888885            0.000302689214           
       2.652263             0.00693684369            0.000289194302           
       2.654904             0.00714112914            0.000295014902           
       2.657544             0.00748396637            0.000299888695           
       2.660184             0.00653985351            0.000280694141           
       2.662825             0.00722397069            0.000295717515           
       2.665465             0.00773397005            0.000306543978           
       2.668105             0.00651364983            0.000281433425           
       2.670746             0.00620244881            0.000272304426           
       2.673386              0.0070791828            0.000294439782           
       2.676027             0.00708626406            0.000292082714           
       2.678667             0.00753309687            0.000302716356           
       2.681307              0.0075354164            0.000300382187           
       2.683948             0.00737968885            0.000300214314           
       2.686588             0.00756506913            0.000301172333           
       2.689229             0.00781810678             0.00030891554           
       2.691869             0.00793011906             0.00030801517           
       2.694509             0.00745003537            0.000302640325           
       2.697150             0.00736720691            0.000296149939           
       2.699790             0.00661461863            0.000286445149           
       2.702430             0.00726204938             0.00029438191           
       2.705071             0.00653266947            0.000283028573           
       2.707711             0.00675332011             0.00028491514           
       2.710352             0.00667023288            0.000284768722           
       2.712992             0.00662235759            0.000284667458           
       2.715632             0.00650827401            0.000280599557           
       2.718273             0.00664840226            0.000284545744           
       2.720913             0.00684189971            0.000289138737           
       2.723553             0.00742546126            0.000300170425           
       2.726194             0.00657390917             0.00028379682           
       2.728834             0.00665113955            0.000282921445           
       2.731475             0.00704950717            0.000293816607           
       2.734115             0.00753239842            0.000301903406           
       2.736755             0.00689578544            0.000290773402           
       2.739396             0.00761013391            0.000303847958           
       2.742036             0.00691097759            0.000291530596           
       2.744677             0.00696756073             0.00029314958           
       2.747317             0.00782141928            0.000309084088           
       2.749957             0.00738109758            0.000302436062           
       2.752598              0.0066366151            0.000287641987           
       2.755238             0.00715394528            0.000298508014           
       2.757878             0.00713524049            0.000297268713           
       2.760519             0.00669743879             0.00028496359           
       2.763159              0.0070251214            0.000296596947           
       2.765800             0.00704395521            0.000291963246           
       2.768440             0.00753173419            0.000305880074           
       2.771080              0.0065000125            0.000281763978           
       2.773721             0.00645970834            0.000284334982           
       2.776361             0.00708574067            0.000294595948           
       2.779001             0.00648087978            0.000284703251           
       2.781642             0.00646022145            0.000282309563           
       2.784282             0.00685480698            0.000290904864           
       2.786923             0.00677986121            0.000287109912           
       2.789563             0.00658495133            0.000283521249           
       2.792203             0.00678154798            0.000289553937           
       2.794844             0.00666310968            0.000285708333           
       2.797484              0.0071625589             0.00029664021           
       2.800125             0.00663669483            0.000285174212           
       2.802765             0.00637958849            0.000284778979           
       2.805405              0.0064877236            0.000283036882           
       2.808046             0.00656355245            0.000289051395           
       2.810686             0.00701943782            0.000295736074           
       2.813326              0.0068567226            0.000295904542           
       2.815967             0.00667571688            0.000290132713           
       2.818607             0.00677509641            0.000295206073           
       2.821248             0.00657300552             0.00028714438           
       2.823888             0.00677560448            0.000296231811           
       2.826528             0.00602467544            0.000277667881           
       2.829169             0.00651533383            0.000287478621           
       2.831809             0.00648973329            0.000287164655           
       2.834449             0.00656231622            0.000283725686           
       2.837090              0.0064895587             0.00028384641           
       2.839730              0.0059512102            0.000269887848           
       2.842371              0.0066745925            0.000287811732           
       2.845011             0.00665972305            0.000286849777           
       2.847651             0.00676862655            0.000289716712           
       2.850292             0.00659062125             0.00028425742           
       2.852932             0.00660469335             0.00028507101           
       2.855573             0.00689698926            0.000293869203           
       2.858213              0.0065855324            0.000283935242           
       2.860853             0.00641972467             0.00028243636           
       2.863494             0.00674388255            0.000290176257           
       2.866134             0.00683175849            0.000296157341           
       2.868774             0.00676495133            0.000290194508           
       2.871415             0.00677664172            0.000293319805           
       2.874055             0.00674432211            0.000294068985           
       2.876696             0.00632421454            0.000282198696           
       2.879336             0.00658374679            0.000289842192           
       2.881976             0.00644397281            0.000286512985           
       2.884617             0.00711674689            0.000299425593           
       2.887257             0.00630203793            0.000279801434           
       2.889897             0.00643899444            0.000286067198           
       2.892538             0.00657781522            0.000287129764           
       2.895178             0.00693439442            0.000291803231           
       2.897819             0.00602686992            0.000274837261           
       2.900459             0.00687349868            0.000291077004           
       2.903099             0.00695218899            0.000294266944           
       2.905740             0.00655042202            0.000282449171           
       2.908380             0.00717812325             0.00029961418           
       2.911021             0.00638593043            0.000283135164           
       2.913661             0.00712782311             0.00029583827           
       2.916301              0.0065417723            0.000287447355           
       2.918942             0.00700545596            0.000292972583           
       2.921582             0.00753272723            0.000306985349           
       2.924222             0.00671792995            0.000288225865           
       2.926863              0.0070696463            0.000296459999           
       2.929503             0.00703638051            0.000299044923           
       2.932144             0.00695707987              0.0002924781           
       2.934784              0.0071812037            0.000298414708           
       2.937424             0.00753077058            0.000306156752           
       2.940065             0.00695790157            0.000294521221           
       2.942705             0.00642848541            0.000283954926           
       2.945346             0.00605899299            0.000274045423           
       2.947986             0.00653120397            0.000285519012           
       2.950626             0.00758969542            0.000308733585           
       2.953267             0.00853555821            0.000323928606           
       2.955907              0.0106065181             0.00036586756           
       2.958547             0.00863334698            0.000326701351           
       2.961188             0.00784928916            0.000314232681           
       2.963828             0.00769201285            0.000309305766           
       2.966469             0.00693557309            0.000293776698           
       2.969109             0.00686471065             0.00029376682           
       2.971749             0.00707222907            0.000297296984           
       2.974390             0.00744462006            0.000305860709           
       2.977030             0.00947584087             0.00034441653           
       2.979670              0.0098659887            0.000349169567           
       2.982311             0.00891460439            0.000334302879           
       2.984951             0.00771856168            0.000311873694           
       2.987592             0.00692778595            0.000294468917           
       2.990232             0.00675954155            0.000291614031           
       2.992872             0.00739208319            0.000302567349           
       2.995513             0.00778655189            0.000312974765           
       2.998153             0.00829172893            0.000325051492           
       3.000794               0.010201574            0.000355301578           
       3.003434              0.0266183085              0.0005800088           
       3.006074              0.0654062972            0.000912119078           
       3.008715              0.0368743036            0.000690077976           
       3.011355               0.025665476            0.000581706759           
       3.013995              0.0206622498            0.000519384816           
       3.016636              0.0304579814            0.000631778046           
       3.019276               0.148111225             0.00142647582           
       3.021917               0.233903353             0.00176221894           
       3.024557               0.143700626             0.00139227293           
       3.027197               0.123658614             0.00131321513           
       3.029838               0.124390657             0.00131079818           
       3.032478              0.0593914088            0.000911152663           
       3.035118              0.0400683695            0.000752246057           
       3.037759               0.098151644             0.00117942979           
       3.040399               0.180069626              0.0016157896           
       3.043040              0.0762598236              0.0010617206           
       3.045680              0.0541676921            0.000881032402           
       3.048320               0.131199197             0.00139316001           
       3.050961                0.30988143             0.00216255099           
       3.053601               0.088842085             0.00115279768           
       3.056242              0.0493621503            0.000864811569           
       3.058882               0.203532267             0.00178218991           
       3.061522               0.163072249             0.00158419236           
       3.064163              0.0254897709            0.000627466268           
       3.066803              0.0212288523            0.000583698388           
       3.069443              0.0333802836            0.000727056384           
       3.072084              0.0813298909             0.00114497776           
       3.074724               0.029563768            0.000694398533           
       3.077365              0.0110804937            0.000424812621           
       3.080005             0.00999749448            0.000407993222           
       3.082645             0.00932032481            0.000395939251           
       3.085286             0.00855810534            0.000379473146           
       3.087926             0.00763317806            0.000360661161           
       3.090566             0.00802872277              0.0003736978           
       3.093207             0.00778498486             0.00036400595           
       3.095847             0.00719532788            0.000357284445           
       3.098488             0.00757274363            0.000365870382           
       3.101128             0.00766372935            0.000370066739           
       3.103768             0.00923302846            0.000408481044           
       3.106409              0.0103248752            0.000434851938           
       3.109049              0.0108543974            0.000449329527           
       3.111690              0.0104117718            0.000438339946           
       3.114330              0.0109164356            0.000452831163           
       3.116970              0.0115924634            0.000473133573           
       3.119611              0.0157544486            0.000547977069           
       3.122251              0.0140612129            0.000521932566           
       3.124891               0.010935508            0.000462514969           
       3.127532             0.00842266413            0.000413223224           
       3.130172             0.00760110865            0.000384477681           
       3.132813             0.00789593966            0.000399838649           
       3.135453             0.00935722334            0.000444449291           
       3.138093             0.00766854243            0.000392804363           
       3.140734             0.00617268203            0.000358975834           
       3.143374             0.00606029556            0.000361130244           
       3.146014             0.00674376533             0.00037818486           
       3.148655             0.00595492255            0.000358176311           
       3.151295             0.00528144124            0.000339984436           
       3.153936             0.00692756077            0.000395127655           
       3.156576             0.00699821264            0.000392578513           
       3.159216             0.00605817236            0.000368248793           
       3.161857             0.00606029241            0.000372831427           
       3.164497             0.00688464561            0.000405759363           
       3.167138             0.00652516662            0.000385546807           
       3.169778             0.00563740633            0.000364832084           
       3.172418             0.00574999132             0.00037061015           
       3.175059             0.00541060624            0.000364211245           
       3.177699             0.00607152035            0.000384291113           
       3.180339             0.00577001849              0.0003779766           
       3.182980             0.00635507902            0.000402031856           
       3.185620             0.00592294572             0.00039236382           
       3.188261             0.00639198678            0.000402263435           
       3.190901             0.00638303686            0.000408175837           
       3.193541             0.00537353514            0.000375744294           
       3.196182              0.0051646134            0.000376031891           
       3.198822             0.00637405579            0.000412683216           
       3.201463              0.0055575483            0.000390328858           
       3.204103             0.00537741505            0.000389063786           
       3.206743             0.00580598868            0.000407688535           
       3.209384             0.00555137392             0.00039687188           
       3.212024              0.0057857585            0.000406602747           
       3.214664             0.00551432866            0.000404516627           
       3.217305              0.0066726858            0.000455361473           
       3.219945             0.00543725432            0.000407613833           
       3.222586             0.00620766785             0.00043800008           
       3.225226             0.00549318162            0.000421305659           
       3.227866             0.00527047196            0.000415869369           
       3.230507             0.00564272829            0.000435440102           
       3.233147             0.00568356844            0.000430549138           
       3.235787             0.00642132001            0.000457764774           
       3.238428             0.00594065791            0.000448074978           
       3.241068             0.00556306836            0.000442393767           
       3.243709              0.0058184023             0.00044992118           
       3.246349             0.00593071582            0.000451701364           
       3.248989             0.00580809739            0.000457224721           
       3.251630             0.00615470565            0.000472752199           
       3.254270             0.00552250439            0.000461579526           
       3.256911             0.00644449741            0.000486130356           
       3.259551             0.00616845525            0.000486114596           
       3.262191             0.00577674428             0.00047475462           
       3.264832             0.00456551835            0.000426018718           
       3.267472             0.00614070029            0.000501081375           
       3.270112             0.00473589499            0.000441301001           
       3.272753             0.00467886161            0.000444026157           
       3.275393             0.00515367063             0.00046841035           
       3.278034             0.00505936978            0.000473559426           
       3.280674             0.00594552645            0.000514849202           
       3.283314             0.00492556401            0.000471200732           
       3.285955             0.00464604658            0.000466231356           
       3.288595             0.00560287398            0.000517706145           
       3.291235             0.00508772487            0.000496230453           
       3.293876             0.00455642852             0.00047238687           
       3.296516             0.00688192978            0.000592392534           
       3.299157             0.00599333116            0.000561181819           
       3.301797             0.00494877399            0.000510155747           
       3.304437             0.00539463158            0.000542625482           
       3.307078             0.00495917019            0.000525318166           
       3.309718             0.00534226372            0.000550673652           
       3.312359             0.00568056209            0.000579315324           
       3.314999             0.00549478347            0.000575740638           
       3.317639             0.00452443077            0.000528062154           
       3.320280             0.00521742871            0.000575343886           
       3.322920             0.00491693976            0.000566886863           
       3.325560             0.00470537846            0.000565265383           
       3.328201             0.00522978784            0.000598451752           
       3.330841             0.00598174257            0.000655597006           
       3.333482             0.00605104662            0.000667756174           
       3.336122             0.00479565604            0.000607385981           
       3.338762             0.00635130302            0.000705385168           
       3.341403              0.0060295467            0.000693661501           
       3.344043             0.00476611646            0.000640257856           
       3.346683             0.00530936402            0.000682616037           
       3.349324             0.00529389036            0.000692172115           
       3.351964             0.00447499407            0.000656848215           
       3.354605             0.00546902811            0.000734368633           
       3.357245             0.00512766965            0.000736075223           
       3.359885              0.0042611589            0.000671246627           
       3.362526             0.00574798833            0.000819470078           
       3.365166             0.00587513554            0.000818255325           
       3.367807             0.00592791195            0.000879838946           
       3.370447             0.00519043574            0.000823611811           
       3.373087             0.00592862554            0.000928996548           
       3.375728             0.00656066401            0.000969874553           
       3.378368             0.00480771327            0.000897151522           
       3.381008             0.00421853076            0.000833055076           
       3.383649              0.0059381328             0.00106963755           
       3.386289             0.00647189562             0.00111713719           
       3.388930             0.00596750413             0.00117811351           
       3.391570             0.00665430653             0.00124458407           
       3.394210             0.00526681913             0.00118639786           
       3.396851             0.00521110278             0.00127833315           
       3.399491              0.0060224675             0.00139919386           
       3.402131             0.00398993941             0.00134809845           
       3.404772             0.00440977017             0.00141785731           
       3.407412             0.00675455537             0.00217746224           
       3.410053             0.00499858606             0.00195048506           
       3.412693             0.00566911792              0.0029388256           
       3.415333           -2.44367246e-05                         0           
