################################################################################
# EDF_DataBlockID                     0.Image.Psd
# EDF_BinarySize                      2105344
# EDF_HeaderSize                      2560
# ByteOrder                           LowByteFirst
# DataType                            FloatValue
# Dim_1                               512
# Dim_2                               1028
# Image                               0
# HeaderID                            EH:000000:000000:000000
# Size                                2105344
# Center_1                            304.9000
# Center_2                            588.7000
# Comment                             Xenocs_Cell_Window - front_window_open_only
# DDummy                              0.6
# Date                                2025-10-20T05:46:42
# Delta                               21.910000
# Dummy                               -1.5
# ExposureTime                        360
# Gamma                               15.360000
# Intensity1                          8.81413e-10
# PSize_1                             7.5e-05
# PSize_2                             7.5e-05
# Pressure                            0.0326633
# SampleDistance                      0.115750
# SampleEnvKind                       large
# SampleEnvPN                         ElectroChemical cell
# SampleEnvSN                         1141
# Thickness                           0
# Wavelength                          1.541891e-10
# Wavelength                          1.54189e-10
# aux                                 0
# aux_dial                            0.002375
# beamx                               588.429
# beamx_dial                          588.429
# beamz                               657.855
# beamz_dial                          657.855
# det0x                               -0.000396875
# det0x_dial                          6.36905
# det0xvd                             -0.0005
# det0xvd_dial                        -0.0005
# det0y                               450.002
# det0y_dial                          481.635
# det0z                               0
# det0z_dial                          1.2295
# det0zvd                             0
# det0zvd_dial                        0
# mag                                 1.818
# mag_dial                            1.818
# om                                  0.2499
# om_dial                             -0.610199
# phi                                 -0.0120535
# phi_dial                            0
# ry                                  0.599993
# ry_dial                             0.599993
# s1bot                               0.8
# s1bot_dial                          -1.66094
# s1hl                                0.8
# s1hl_dial                           -0.608437
# s1hr                                0.8
# s1hr_dial                           0.970938
# s1top                               0.8
# s1top_dial                          -0.461562
# s2bot                               0.45
# s2bot_dial                          1.36109
# s2hl                                0.45
# s2hl_dial                           -0.83375
# s2hr                                0.45
# s2hr_dial                           -0.118594
# s2top                               0.45
# s2top_dial                          1.44734
# w2theta                             32
# w2theta_dial                        32
# waxsch                              19.2605
# waxsch_dial                         -32.7238
# waxsh                               137.085
# waxsh_dial                          -43.5335
# waxsth                              26.0607
# waxsth_dial                         -19.4068
# waxsz                               67.0407
# waxsz_dial                          -23.7962
# wind                                65.9854
# wind_dial                           66.0041
# wpsi                                124
# wpsi_dial                           124
# wstod                               115
# wstod_dial                          115
# x                                   0
# x_dial                              1.00969
# z                                   0
# z_dial                              13.3172
# CountCutoff                         6807993
# DetectorModel                       Dectris EIGER2 Si 500K, S/N E-01-0554
# ThresholdSetting                    4023.88989258
# Saturation                          0
# FlatField                           Corrected
# BackgroundReductionExtra            0.02
# BackgroundCorrectionConstant        0.0026712
# Detector                            0
# Monitor                             0
# Pil_Roi0                            0
# SumForIntensity1                    3.17309e+08
# TransmittedFlux                     881413
# det                                 0
# mon                                 0
# pilai0                              3.17309e+08
# pilai1                              684336
# pilct0                              5.48817e+08
# pilct1                              684336
# pilroi0                             0
# pilroi1                             0
# sec                                 1
# title                               20251017__1_00542.edf
# usaxs0                              0
# Operation                           Azimuthal average I(q)
# Error_model                         ErrorModel.poisson
# Geometrical_correction              True
# Transmission_correction             True
# Thickness_correction                False
# Binning mode                        Uniform
# Binning factor                      1.0
# Psi                                 0.0
# Omega                               0.2499
# MaskInvalidPixels                   True
# DetectorEdge                        3
# MaskFiles                           ['20251017__1_00233_mask.edf']
################################################################################
    q(A⁻¹)                Intensity(a.u.)            Sigma_I(a.u.)            
       0.690460              0.0156720017              0.0116272606           
       0.693100           -2.30293807e-05                         0           
       0.695741             0.00592350877             0.00269996762           
       0.698381              0.0134327497             0.00380274904           
       0.701021             0.00835679595              0.0024479355           
       0.703662             0.00768916241             0.00217351142           
       0.706302             0.00619820665             0.00188465251           
       0.708942             0.00795135237             0.00189610633           
       0.711583             0.00444865374             0.00141800233           
       0.714223             0.00470930921               0.001271351           
       0.716864             0.00668615572              0.0015458481           
       0.719504             0.00757849192             0.00152316459           
       0.722144             0.00501984555             0.00119725404           
       0.724785             0.00546304878             0.00122851815           
       0.727425             0.00769126342             0.00135207489           
       0.730065             0.00573843453             0.00120168372           
       0.732706             0.00825619955             0.00129616831           
       0.735346             0.00634624268             0.00122750137           
       0.737987             0.00526677833            0.000967885789           
       0.740627              0.0069864873             0.00122120572           
       0.743267             0.00832664757             0.00114677974           
       0.745908             0.00554617525             0.00100305527           
       0.748548             0.00611670792            0.000982465138           
       0.751189             0.00689048007             0.00103293274           
       0.753829             0.00645434465             0.00100872662           
       0.756469             0.00552068149            0.000877452838           
       0.759110             0.00679424708             0.00100684287           
       0.761750             0.00594729917            0.000862122743           
       0.764390             0.00601182521            0.000930448092           
       0.767031             0.00735466646            0.000931243643           
       0.769671             0.00551677379            0.000855359289           
       0.772312             0.00753568855            0.000910990149           
       0.774952             0.00612331334            0.000880362966           
       0.777592             0.00599232787            0.000796565306           
       0.780233              0.0055013314             0.00080460802           
       0.782873             0.00625354669             0.00078446293           
       0.785513             0.00585658978            0.000807562286           
       0.788154             0.00670763466            0.000793822412           
       0.790794             0.00579642832            0.000763742903           
       0.793435             0.00516054195            0.000692161664           
       0.796075             0.00640891403            0.000775426424           
       0.798715             0.00642369762            0.000771888394           
       0.801356             0.00660709234             0.00076187956           
       0.803996             0.00766447734            0.000833696137           
       0.806637             0.00795020435             0.00080261779           
       0.809277             0.00757944793             0.00081985644           
       0.811917             0.00680371583            0.000735049604           
       0.814558             0.00645669666            0.000733556399           
       0.817198             0.00631927417            0.000691963196           
       0.819838             0.00671449589            0.000744020645           
       0.822479             0.00834395875            0.000764337466           
       0.825119             0.00611791052             0.00070308652           
       0.827760             0.00690513784            0.000692128825           
       0.830400             0.00649974345            0.000707514927           
       0.833040             0.00572767786            0.000619856318           
       0.835681             0.00717955783            0.000726751105           
       0.838321             0.00742755239            0.000691873892           
       0.840961             0.00804389033            0.000752583468           
       0.843602             0.00670344363            0.000647147382           
       0.846242             0.00706682639            0.000687915927           
       0.848883             0.00623635803            0.000628638896           
       0.851523             0.00600978621            0.000621738603           
       0.854163             0.00736748239            0.000680397723           
       0.856804             0.00778359439            0.000681453843           
       0.859444             0.00728362226            0.000663943905           
       0.862085             0.00696093275            0.000639628175           
       0.864725             0.00584962307            0.000584198485           
       0.867365             0.00600347183            0.000587592638           
       0.870006              0.0068179142            0.000634919013           
       0.872646             0.00760240505            0.000641273965           
       0.875286             0.00702150442            0.000637286123           
       0.877927             0.00631834593            0.000578816883           
       0.880567             0.00620126855            0.000584631505           
       0.883208             0.00760353046            0.000628669606           
       0.885848              0.0069061938            0.000614685978           
       0.888488             0.00664621217            0.000573349605           
       0.891129             0.00788927065            0.000656640148           
       0.893769             0.00719542928            0.000592766081           
       0.896410             0.00643766334            0.000577956242           
       0.899050             0.00677626463            0.000571730392           
       0.901690             0.00688580582            0.000588363181           
       0.904331             0.00712872661             0.00057775086           
       0.906971             0.00675564391            0.000580762152           
       0.909611             0.00792260422            0.000603662342           
       0.912252             0.00766075367            0.000603888691           
       0.914892             0.00665058263             0.00054841475           
       0.917533             0.00662082651            0.000559533244           
       0.920173             0.00789106641             0.00058596118           
       0.922813             0.00617907263            0.000541859079           
       0.925454             0.00808718899            0.000588324522           
       0.928094             0.00718863105            0.000566584431           
       0.930734             0.00715417457            0.000551735444           
       0.933375             0.00662031407            0.000542064702           
       0.936015             0.00723240593              0.0005421032           
       0.938656             0.00734441979            0.000569199307           
       0.941296             0.00727458028            0.000546091336           
       0.943936             0.00705607222            0.000547513411           
       0.946577              0.0069673412            0.000523963404           
       0.949217             0.00736226944              0.0005576302           
       0.951858             0.00815806115            0.000554934165           
       0.954498              0.0070202792            0.000541575307           
       0.957138             0.00694579028            0.000517765279           
       0.959779              0.0066932202            0.000519381537           
       0.962419             0.00766420912            0.000535046618           
       0.965059             0.00746596208            0.000543081215           
       0.967700              0.0082622213              0.0005528331           
       0.970340              0.0076656088            0.000547462249           
       0.972981              0.0081947634            0.000546530332           
       0.975621             0.00730953506            0.000526975474           
       0.978261             0.00805887021            0.000527944245           
       0.980902             0.00717778007            0.000521972748           
       0.983542             0.00688411201            0.000496299154           
       0.986182             0.00720245162            0.000514329874           
       0.988823             0.00791564806            0.000521796305           
       0.991463              0.0089903998            0.000569375055           
       0.994104             0.00683444577            0.000479699491           
       0.996744             0.00725665739             0.00051032404           
       0.999384             0.00714866024             0.00048932114           
       1.002025              0.0074101796            0.000512062243           
       1.004665             0.00667536839            0.000466102905           
       1.007306             0.00782170984            0.000521445477           
       1.009946              0.0077166344            0.000498007109           
       1.012586              0.0080033395            0.000521763369           
       1.015227             0.00700960448            0.000473517242           
       1.017867             0.00788934926            0.000516749514           
       1.020507             0.00762305702            0.000488831405           
       1.023148             0.00792423344            0.000504414232           
       1.025788             0.00765317793            0.000490636231           
       1.028429             0.00759298225            0.000499386297           
       1.031069             0.00762802847            0.000482243049           
       1.033709             0.00825616675            0.000511339933           
       1.036350             0.00754429141            0.000475981075           
       1.038990             0.00731162439            0.000480152244           
       1.041630             0.00837159671             0.00050389445           
       1.044271             0.00821917881            0.000499342352           
       1.046911             0.00868343136            0.000503714973           
       1.049552             0.00810761886            0.000504267949           
       1.052192             0.00824694046            0.000485711972           
       1.054832             0.00768104861            0.000477867305           
       1.057473             0.00785833794            0.000477231703           
       1.060113             0.00756867802            0.000473425355           
       1.062754             0.00803254908            0.000482323144           
       1.065394             0.00773851856            0.000468432222           
       1.068034              0.0078818237            0.000470919382           
       1.070675             0.00764628973            0.000471987952           
       1.073315             0.00859728827            0.000485181469           
       1.075955             0.00716754405            0.000450434823           
       1.078596             0.00812186626            0.000478536873           
       1.081236             0.00766139974             0.00045788014           
       1.083877             0.00791903789            0.000480057429           
       1.086517             0.00846692574            0.000485157451           
       1.089157             0.00738701357            0.000456485294           
       1.091798             0.00697183866            0.000434075836           
       1.094438             0.00870007868            0.000492608075           
       1.097078             0.00792554365            0.000458087329           
       1.099719             0.00857628131            0.000488735108           
       1.102359             0.00820108094            0.000452747415           
       1.105000             0.00869399699            0.000484513703           
       1.107640              0.0081639431            0.000454206646           
       1.110280              0.0091452728            0.000490356585           
       1.112921             0.00828655964            0.000458321871           
       1.115561             0.00825438331            0.000463236285           
       1.118202              0.0088285746            0.000465094524           
       1.120842             0.00857119572             0.00047270382           
       1.123482             0.00860402152            0.000460322625           
       1.126123             0.00857226813            0.000462339925           
       1.128763             0.00816467693             0.00044897648           
       1.131403              0.0079172401            0.000441433558           
       1.134044             0.00893413454            0.000468112492           
       1.136684             0.00810898142            0.000449323084           
       1.139325             0.00786901509            0.000430153662           
       1.141965             0.00827241995             0.00044680991           
       1.144605             0.00959184152            0.000483950594           
       1.147246             0.00856842014            0.000448741769           
       1.149886             0.00862719353            0.000453480492           
       1.152527             0.00816591561            0.000441632715           
       1.155167             0.00965814755            0.000473539479           
       1.157807             0.00915383967            0.000461328212           
       1.160448              0.0084093754            0.000448220898           
       1.163088             0.00879547103            0.000441388596           
       1.165728             0.00918955013            0.000469764717           
       1.168369              0.0088761931            0.000445203983           
       1.171009             0.00875238346            0.000445753405           
       1.173650             0.00909247925            0.000451055062           
       1.176290             0.00927578822            0.000460924749           
       1.178930             0.00953708574            0.000454233398           
       1.181571             0.00892438548            0.000453751829           
       1.184211             0.00912179218            0.000444888098           
       1.186851             0.00891715524            0.000443925352           
       1.189492             0.00860848298            0.000438596401           
       1.192132             0.00844531116             0.00042798591           
       1.194773             0.00884651863            0.000435391334           
       1.197413             0.00932951369            0.000450766286           
       1.200053             0.00846721147            0.000426727887           
       1.202694             0.00873589971            0.000430179319           
       1.205334             0.00976581807            0.000459802959           
       1.207975              0.0086039832            0.000423129535           
       1.210615              0.0090387777            0.000442859865           
       1.213255             0.00943338124            0.000440454518           
       1.215896             0.00884816023            0.000434659226           
       1.218536             0.00936852843            0.000434375883           
       1.221176              0.0100347253            0.000460285261           
       1.223817             0.00923491803            0.000432360076           
       1.226457             0.00912027579            0.000435125533           
       1.229098             0.00914325064             0.00042906372           
       1.231738             0.00934725779            0.000439932929           
       1.234378              0.0100234747            0.000446716459           
       1.237019             0.00986441548            0.000446732363           
       1.239659             0.00998336345            0.000449174546           
       1.242299              0.0103369995            0.000454724123           
       1.244940              0.0100313535            0.000443115689           
       1.247580             0.00938814558            0.000430566912           
       1.250221              0.0104491587            0.000461661158           
       1.252861              0.0104396328            0.000444258648           
       1.255501             0.00966709472            0.000439575303           
       1.258142               0.010069522            0.000439762047           
       1.260782             0.00962772797            0.000434863917           
       1.263423              0.0103316022             0.00044155497           
       1.266063              0.0101479125            0.000445768572           
       1.268703             0.00960539547              0.0004227625           
       1.271344              0.0102734152            0.000446738783           
       1.273984             0.00922345837            0.000416687039           
       1.276624             0.00974424118               0.000425676           
       1.279265              0.0098461924            0.000428831306           
       1.281905             0.00896076345            0.000411617207           
       1.284546              0.0100670686            0.000431521072           
       1.287186             0.00993199198            0.000429028059           
       1.289826              0.0097235667            0.000426703897           
       1.292467              0.0101962665            0.000429153899           
       1.295107               0.010296046            0.000438849985           
       1.297747              0.0102942615            0.000427302125           
       1.300388              0.0102981528            0.000438357739           
       1.303028             0.00945132416            0.000409268898           
       1.305669              0.0106567718            0.000440200349           
       1.308309              0.0103257253            0.000426793872           
       1.310949              0.0103564629            0.000432756095           
       1.313590              0.0102867641            0.000424622745           
       1.316230              0.0107785843            0.000442478856           
       1.318871              0.0101892566            0.000420931178           
       1.321511              0.0104975533            0.000429392881           
       1.324151              0.0109672678            0.000440628649           
       1.326792             0.00996684486            0.000416648672           
       1.329432              0.0101680676            0.000423028751           
       1.332072              0.0107005436            0.000426522466           
       1.334713              0.0102690492             0.00042301625           
       1.337353              0.0105196583            0.000421560948           
       1.339994              0.0102607119            0.000422270323           
       1.342634              0.0104459877            0.000416473919           
       1.345274              0.0103490364             0.00041995608           
       1.347915              0.0104816542            0.000423761889           
       1.350555              0.0101352288            0.000415072292           
       1.353195              0.0113646082            0.000431117321           
       1.355836                0.01020378             0.00041621397           
       1.358476               0.010737917            0.000425767952           
       1.361117              0.0105475927            0.000411392115           
       1.363757               0.010844757            0.000430971626           
       1.366397              0.0104781893            0.000410433249           
       1.369038              0.0102562271            0.000414621481           
       1.371678              0.0101465523            0.000404071434           
       1.374319              0.0100706864            0.000405750708           
       1.376959              0.0101309706            0.000401360695           
       1.379599              0.0105651519            0.000417860191           
       1.382240              0.0107309128            0.000413126742           
       1.384880              0.0104773015            0.000413227748           
       1.387520              0.0099680978            0.000398348594           
       1.390161              0.0107513013            0.000412577612           
       1.392801              0.0101667914            0.000403596966           
       1.395442              0.0107744726            0.000411178667           
       1.398082              0.0103839132            0.000405038916           
       1.400722              0.0112562109            0.000419803377           
       1.403363              0.0107114014            0.000413318213           
       1.406003              0.0108398188            0.000405578686           
       1.408644                0.01078574            0.000413059066           
       1.411284              0.0112660001            0.000419839944           
       1.413924              0.0107988023             0.00040597279           
       1.416565              0.0102547792            0.000395149518           
       1.419205              0.0114660236            0.000421950785           
       1.421845              0.0106242167             0.00040106004           
       1.424486               0.011349513            0.000416353885           
       1.427126              0.0104438688            0.000399144925           
       1.429767              0.0104016651             0.00039219931           
       1.432407              0.0110643132            0.000414689066           
       1.435047              0.0113272984            0.000406979561           
       1.437688              0.0103567376            0.000397771235           
       1.440328              0.0105483439            0.000393654604           
       1.442968             0.00971071917            0.000382930164           
       1.445609              0.0104840053            0.000391340494           
       1.448249              0.0101659883            0.000387851098           
       1.450890              0.0103532638            0.000388615133           
       1.453530              0.0102293299            0.000389143408           
       1.456170             0.00970886871            0.000378260981           
       1.458811              0.0107424536            0.000394720788           
       1.461451               0.010001777              0.0003836698           
       1.464092              0.0101127731            0.000382430015           
       1.466732             0.00978270069            0.000373830085           
       1.469372              0.0105082838            0.000386254658           
       1.472013             0.00999141915            0.000383374003           
       1.474653              0.0107616938            0.000388053213           
       1.477293              0.0103395319            0.000386768183           
       1.479934              0.0105093583            0.000385850369           
       1.482574              0.0103385006            0.000381756509           
       1.485215              0.0109694199            0.000394245159           
       1.487855              0.0103315394            0.000382531613           
       1.490495              0.0104842115            0.000384518234           
       1.493136              0.0106397135            0.000382279447           
       1.495776             0.00933602156            0.000364337118           
       1.498416             0.00977245907            0.000365514225           
       1.501057              0.0106747196            0.000385300986           
       1.503697              0.0100815299            0.000370842317           
       1.506338              0.0105777928            0.000382653549           
       1.508978             0.00949699073             0.00036043703           
       1.511618              0.0104606846            0.000378091501           
       1.514259              0.0103039086            0.000375925261           
       1.516899              0.0104299467            0.000378393573           
       1.519540             0.00995347873            0.000367598194           
       1.522180              0.0103085499            0.000369425569           
       1.524820               0.010228414            0.000375419293           
       1.527461              0.0100521757             0.00036393783           
       1.530101              0.0105843277            0.000377308034           
       1.532741              0.0101957983            0.000368563663           
       1.535382             0.00926670992              0.0003521438           
       1.538022              0.0105077151            0.000371665169           
       1.540663              0.0101225383            0.000368237213           
       1.543303              0.0102039603            0.000365114386           
       1.545943             0.00975034533            0.000358906815           
       1.548584              0.0101717366            0.000368532472           
       1.551224              0.0107409813            0.000368995375           
       1.553864              0.0100965813             0.00036710112           
       1.556505             0.00979131471            0.000355947847           
       1.559145             0.00973819176            0.000355801579           
       1.561786             0.00953269671            0.000350432728           
       1.564426             0.00949182983            0.000349364917           
       1.567066             0.00934146078            0.000343881408           
       1.569707             0.00947123101            0.000351274737           
       1.572347              0.0104796202            0.000364707733           
       1.574988             0.00884996185            0.000333826961           
       1.577628             0.00949759995            0.000353612204           
       1.580268             0.00950590842            0.000341558418           
       1.582909             0.00941857051            0.000346344836           
       1.585549              0.0087839324            0.000331346975           
       1.588189             0.00936881754            0.000346022752           
       1.590830             0.00886181358            0.000330753091           
       1.593470             0.00939590011            0.000343355472           
       1.596111             0.00953234034            0.000342851152           
       1.598751             0.00921768235            0.000340591541           
       1.601391             0.00869037756            0.000328591792           
       1.604032             0.00915164583             0.00033438365           
       1.606672             0.00910281968            0.000340202536           
       1.609312             0.00911748153            0.000330345472           
       1.611953             0.00855881274            0.000324703115           
       1.614593             0.00894001894            0.000329331417           
       1.617234             0.00881985994            0.000328964917           
       1.619874             0.00864721001            0.000321897283           
       1.622514             0.00880144355            0.000327627495           
       1.625155             0.00949838057            0.000339510188           
       1.627795             0.00921260188            0.000330984949           
       1.630436             0.00910073398            0.000332275857           
       1.633076             0.00846493898            0.000318830873           
       1.635716             0.00873854626            0.000323377673           
       1.638357             0.00916951151            0.000329848428           
       1.640997             0.00876988732             0.00032510336           
       1.643637             0.00857082712            0.000315424611           
       1.646278             0.00811178705            0.000311454772           
       1.648918             0.00857683854            0.000316129471           
       1.651559             0.00922267978            0.000331937536           
       1.654199             0.00851931037            0.000314655872           
       1.656839             0.00886791584            0.000320942664           
       1.659480              0.0080578544            0.000308627463           
       1.662120             0.00820811495            0.000307317667           
       1.664761             0.00846890109            0.000315541326           
       1.667401             0.00871563503            0.000317122778           
       1.670041             0.00819866204            0.000307925832           
       1.672682             0.00847481973            0.000310122927           
       1.675322             0.00847450612            0.000315600353           
       1.677962              0.0084985079            0.000309770267           
       1.680603             0.00830780712            0.000308993206           
       1.683243             0.00830581086             0.00030667051           
       1.685884             0.00822900427            0.000306410856           
       1.688524             0.00847376669            0.000310059577           
       1.691164             0.00862828091             0.00031206951           
       1.693805             0.00861232275            0.000314302042           
       1.696445             0.00862378059            0.000310145834           
       1.699085             0.00843043981            0.000307873735           
       1.701726             0.00887987891            0.000311863741           
       1.704366             0.00834550582            0.000309690969           
       1.707007             0.00834607162             0.00030309263           
       1.709647             0.00832211814             0.00030641791           
       1.712287              0.0085031056            0.000304555718           
       1.714928             0.00807626547            0.000299797791           
       1.717568             0.00838008776            0.000302576601           
       1.720209             0.00875301621            0.000311145478           
       1.722849             0.00848916963            0.000306911397           
       1.725489             0.00814844266            0.000295896484           
       1.728130             0.00792407941            0.000297734393           
       1.730770             0.00811365849            0.000294906693           
       1.733410             0.00837134775             0.00030348563           
       1.736051             0.00859753952            0.000302784461           
       1.738691              0.0087013802            0.000307716655           
       1.741332             0.00800571034            0.000293342622           
       1.743972              0.0080840274            0.000294883298           
       1.746612             0.00821703533             0.00029736768           
       1.749253              0.0077648938            0.000290319865           
       1.751893             0.00810919695            0.000294906622           
       1.754533             0.00806970297            0.000290149938           
       1.757174             0.00786027015            0.000291714031           
       1.759814             0.00887666883            0.000305275215           
       1.762455             0.00840574507            0.000299596224           
       1.765095             0.00837048641            0.000294768748           
       1.767735             0.00848209128            0.000301769431           
       1.770376              0.0079572985            0.000287852476           
       1.773016             0.00830181135            0.000294481791           
       1.775657             0.00894948546            0.000306379644           
       1.778297             0.00850635365            0.000300159428           
       1.780937             0.00833696268             0.00029576913           
       1.783578             0.00816783744            0.000291379058           
       1.786218             0.00822043878            0.000296980435           
       1.788858             0.00856519985            0.000295612388           
       1.791499             0.00875920375            0.000304451027           
       1.794139              0.0084304137            0.000293166902           
       1.796780             0.00874794309            0.000300411356           
       1.799420             0.00858679569            0.000297252597           
       1.802060             0.00929005705            0.000305382824           
       1.804701             0.00916407409            0.000307374189           
       1.807341             0.00881183656            0.000298496669           
       1.809981             0.00913287441            0.000305903707           
       1.812622             0.00967314321            0.000313106573           
       1.815262             0.00884190811            0.000300418816           
       1.817903             0.00903636245            0.000299952185           
       1.820543             0.00911489529            0.000304976274           
       1.823183              0.0086816492            0.000293053971           
       1.825824             0.00899173291            0.000302726633           
       1.828464             0.00898440884            0.000301674876           
       1.831105             0.00880790196            0.000299853233           
       1.833745             0.00873205858            0.000298373095           
       1.836385              0.0086251327            0.000295387304           
       1.839026             0.00855474684            0.000298601794           
       1.841666             0.00873362058            0.000297789838           
       1.844306             0.00876803467            0.000302142863           
       1.846947             0.00881667744            0.000299086281           
       1.849587             0.00893658007            0.000305197081           
       1.852228             0.00854015134            0.000295177779           
       1.854868             0.00898484027            0.000308318199           
       1.857508             0.00870551203            0.000297883881           
       1.860149             0.00880358538            0.000301958202           
       1.862789             0.00855371229            0.000298959144           
       1.865429             0.00862467749            0.000301101784           
       1.868070             0.00897844421            0.000306153456           
       1.870710             0.00834128354            0.000295894016           
       1.873351             0.00861056039            0.000302551431           
       1.875991             0.00916726407            0.000313867451           
       1.878631             0.00887170541            0.000305896497           
       1.881272             0.00856222622            0.000299809772           
       1.883912             0.00932570543            0.000316560679           
       1.886553             0.00955940891            0.000316658078           
       1.889193              0.0086335499            0.000304409223           
       1.891833             0.00936045985            0.000313358255           
       1.894474             0.00841040618            0.000299381335           
       1.897114             0.00905984385            0.000308315081           
       1.899754             0.00914525766            0.000313238997           
       1.902395               0.008335824            0.000299119479           
       1.905035              0.0094361894            0.000317003053           
       1.907676             0.00891380461            0.000308461719           
       1.910316             0.00858517177            0.000304652364           
       1.912956             0.00923102226            0.000315891324           
       1.915597             0.00866848118            0.000302923417           
       1.918237             0.00909013803            0.000314912244           
       1.920878             0.00885617244            0.000305332163           
       1.923518             0.00901966183            0.000316324352           
       1.926158             0.00918441832            0.000311865418           
       1.928799             0.00898426102            0.000312547244           
       1.931439             0.00902313783            0.000310712596           
       1.934079             0.00890718569            0.000311835992           
       1.936720             0.00886928587             0.00030934038           
       1.939360             0.00885441494            0.000312059805           
       1.942001             0.00850457354            0.000304656341           
       1.944641             0.00831495224            0.000299942744           
       1.947281             0.00848168157            0.000304398589           
       1.949922             0.00881904257            0.000310781819           
       1.952562              0.0082819746            0.000303761672           
       1.955202             0.00856424493            0.000301133875           
       1.957843             0.00861573281            0.000311632467           
       1.960483             0.00904709315            0.000314244692           
       1.963124             0.00837053118             0.00030204229           
       1.965764             0.00834902069            0.000301761797           
       1.968404             0.00836964264             0.00030753705           
       1.971045             0.00877685469            0.000307035176           
       1.973685             0.00803193992            0.000299198015           
       1.976326             0.00871059214            0.000310223516           
       1.978966             0.00840813108            0.000306232191           
       1.981606             0.00818957003            0.000299029676           
       1.984247             0.00817696763            0.000301404946           
       1.986887             0.00861156027            0.000312203644           
       1.989527             0.00824218072            0.000299071273           
       1.992168              0.0081183751            0.000303977899           
       1.994808             0.00803329444            0.000298863707           
       1.997449              0.0078916423             0.00029578264           
       2.000089              0.0077154049            0.000290739147           
       2.002729             0.00767007083            0.000296526247           
       2.005370             0.00837529097            0.000303968253           
       2.008010               0.008623798            0.000312539998           
       2.010650             0.00810019608             0.00030203684           
       2.013291             0.00786683984            0.000299348622           
       2.015931             0.00811096585            0.000301782409           
       2.018572             0.00830109274             0.00030935363           
       2.021212             0.00808646396            0.000302587964           
       2.023852             0.00814715166            0.000305316792           
       2.026493             0.00797010197            0.000300657694           
       2.029133             0.00778266641            0.000294834903           
       2.031774             0.00825827423            0.000306655452           
       2.034414              0.0080370353            0.000300714536           
       2.037054             0.00773700544            0.000298768508           
       2.039695             0.00763336469            0.000290915278           
       2.042335             0.00817244063             0.00030613607           
       2.044975             0.00765179677            0.000293856597           
       2.047616             0.00818234369            0.000305175449           
       2.050256             0.00804968409            0.000299130903           
       2.052897             0.00832816899            0.000313272561           
       2.055537             0.00775011103            0.000293965656           
       2.058177             0.00826494604             0.00030625419           
       2.060818             0.00811214274            0.000304320832           
       2.063458              0.0069214503            0.000281488203           
       2.066098             0.00823841092            0.000305739664           
       2.068739             0.00776788191            0.000299975765           
       2.071379              0.0075051589            0.000290504899           
       2.074020             0.00803795032            0.000304756505           
       2.076660             0.00753392722            0.000293046917           
       2.079300             0.00743155955            0.000291007046           
       2.081941             0.00728697787            0.000289914232           
       2.084581             0.00743320966            0.000293025611           
       2.087222              0.0075378643            0.000295282224           
       2.089862             0.00763339837             0.00029344387           
       2.092502             0.00740882717            0.000294347998           
       2.095143             0.00753955113              0.0002926897           
       2.097783             0.00764574148            0.000299228736           
       2.100423             0.00728141786            0.000286413295           
       2.103064             0.00764364855            0.000298517623           
       2.105704             0.00777366803             0.00029989414           
       2.108345              0.0076056555            0.000297997477           
       2.110985             0.00801058761             0.00030153181           
       2.113625             0.00775863894            0.000301427584           
       2.116266             0.00768120545            0.000297699794           
       2.118906             0.00853260228            0.000313536932           
       2.121546             0.00756847871            0.000295057925           
       2.124187             0.00773894247            0.000302489038           
       2.126827              0.0076615967            0.000296253531           
       2.129468             0.00766322259            0.000299376896           
       2.132108             0.00774710994            0.000300388169           
       2.134748             0.00777566918            0.000299807193           
       2.137389             0.00780384718            0.000302865554           
       2.140029             0.00741165858            0.000294440308           
       2.142670             0.00716556832            0.000289983928           
       2.145310             0.00778427979            0.000303398816           
       2.147950             0.00804350198            0.000309601406           
       2.150591             0.00743338692             0.00029489843           
       2.153231             0.00722071685            0.000294946318           
       2.155871             0.00714408492            0.000289140026           
       2.158512             0.00722281208            0.000295967525           
       2.161152             0.00803005805            0.000304273302           
       2.163793             0.00740569944            0.000296959513           
       2.166433              0.0075434891            0.000294512132           
       2.169073              0.0071065661            0.000292529833           
       2.171714             0.00796523461            0.000303393788           
       2.174354             0.00730408132            0.000294969053           
       2.176995             0.00774251458            0.000301173741           
       2.179635             0.00748228856            0.000301672421           
       2.182275             0.00748075787            0.000295653725           
       2.184916             0.00760593098            0.000304417665           
       2.187556             0.00692742283            0.000285845174           
       2.190196             0.00699778804            0.000291808886           
       2.192837             0.00781065957            0.000304915832           
       2.195477             0.00700616496            0.000291571794           
       2.198118              0.0076798914            0.000299633306           
       2.200758             0.00768201224             0.00030432841           
       2.203398             0.00700189756             0.00028572641           
       2.206039             0.00779193631            0.000306022328           
       2.208679             0.00807252293            0.000308434414           
       2.211319             0.00719963411            0.000292652888           
       2.213960             0.00699696634            0.000285436934           
       2.216600             0.00723551069            0.000297100815           
       2.219241             0.00719711349            0.000292003559           
       2.221881             0.00759800524            0.000301589793           
       2.224521             0.00693954974            0.000287225854           
       2.227162             0.00762858477            0.000305878019           
       2.229802             0.00762513726            0.000300844887           
       2.232443             0.00767842653            0.000303081164           
       2.235083             0.00783250753            0.000304271473           
       2.237723             0.00726857183            0.000295359459           
       2.240364             0.00760192732            0.000300520126           
       2.243004             0.00687744218            0.000286704986           
       2.245644             0.00797070943            0.000307940074           
       2.248285             0.00692849124            0.000288966304           
       2.250925             0.00719881533            0.000293172194           
       2.253566             0.00746945028             0.00029936238           
       2.256206             0.00728771371            0.000294812361           
       2.258846             0.00745531723            0.000298185811           
       2.261487             0.00737859461             0.00029716069           
       2.264127             0.00739214874            0.000300247741           
       2.266767             0.00687114736            0.000284794894           
       2.269408             0.00766386254            0.000304347027           
       2.272048             0.00753795714            0.000299979993           
       2.274689             0.00674132928            0.000284801746           
       2.277329             0.00771508252            0.000304272492           
       2.279969             0.00726008872            0.000296058614           
       2.282610             0.00707790328            0.000289469629           
       2.285250             0.00757118295            0.000304095359           
       2.287891             0.00659515318            0.000280954244           
       2.290531              0.0069673342            0.000290196959           
       2.293171             0.00749618736            0.000300994348           
       2.295812              0.0071561048            0.000292526546           
       2.298452             0.00742124562            0.000299804403           
       2.301092             0.00774334441            0.000308186701           
       2.303733             0.00800972319            0.000307243109           
       2.306373             0.00676275856            0.000289221102           
       2.309014             0.00730626594            0.000294825578           
       2.311654             0.00716118631            0.000294653858           
       2.314294             0.00699289223            0.000290535297           
       2.316935             0.00691370984             0.00029002747           
       2.319575             0.00680154872            0.000286588097           
       2.322215             0.00705432603            0.000296024004           
       2.324856             0.00719356023            0.000291424234           
       2.327496             0.00785180408            0.000311927541           
       2.330137             0.00730408428            0.000295302844           
       2.332777             0.00718383012            0.000296064912           
       2.335417             0.00668424801            0.000284727525           
       2.338058             0.00736047296            0.000299978927           
       2.340698             0.00709458817            0.000291611265           
       2.343339             0.00643517457            0.000283028597           
       2.345979             0.00770164722            0.000303450673           
       2.348619             0.00755689958            0.000306262043           
       2.351260             0.00757375608            0.000300085897           
       2.353900             0.00758651928            0.000306700572           
       2.356540             0.00761867988            0.000303122904           
       2.359181             0.00734533664            0.000301615535           
       2.361821             0.00664026952            0.000283280469           
       2.364462              0.0075166535            0.000306432169           
       2.367102             0.00647352736            0.000276152289           
       2.369742             0.00767244421            0.000311412744           
       2.372383             0.00696045396            0.000287965211           
       2.375023             0.00762542059            0.000309259775           
       2.377663             0.00698074027            0.000289610162           
       2.380304             0.00675590139            0.000288860208           
       2.382944             0.00689996769            0.000289068548           
       2.385585             0.00770628234            0.000308379971           
       2.388225             0.00672472663            0.000286770406           
       2.390865             0.00726195454            0.000298768262           
       2.393506              0.0073948191            0.000300099602           
       2.396146             0.00714431548            0.000295950477           
       2.398787             0.00696014603            0.000292366506           
       2.401427             0.00673697066            0.000285894439           
       2.404067             0.00736997008            0.000303588149           
       2.406708             0.00708611815            0.000293942847           
       2.409348             0.00770414247            0.000308798872           
       2.411988             0.00648238617            0.000282352574           
       2.414629             0.00751847809            0.000305075924           
       2.417269             0.00694748941            0.000290599513           
       2.419910             0.00730197774            0.000301678065           
       2.422550             0.00731293003            0.000297321382           
       2.425190             0.00720391121            0.000304387971           
       2.427831             0.00725222439            0.000293920991           
       2.430471             0.00755957502            0.000308856477           
       2.433112             0.00697504152            0.000289674913           
       2.435752             0.00672652863            0.000291669343           
       2.438392             0.00704168606            0.000293407962           
       2.441033             0.00710526656            0.000296080163           
       2.443673             0.00735035619            0.000301947543           
       2.446313             0.00718126257            0.000296864062           
       2.448954             0.00747226126            0.000305476225           
       2.451594             0.00696753767            0.000293209044           
       2.454235             0.00676619753            0.000288042513           
       2.456875             0.00720418096            0.000298724509           
       2.459515             0.00844978919            0.000324019095           
       2.462156             0.00726803519            0.000298959013           
       2.464796              0.0078560606            0.000316300171           
       2.467436             0.00796691035            0.000311844932           
       2.470077             0.00756413538            0.000308049985           
       2.472717             0.00779693783            0.000308841145           
       2.475358             0.00789051282            0.000314208847           
       2.477998             0.00686097884            0.000291430915           
       2.480638             0.00698277095             0.00029472056           
       2.483279             0.00721806394            0.000300932175           
       2.485919             0.00758914036            0.000306410012           
       2.488560             0.00720785651            0.000299852326           
       2.491200             0.00693828774            0.000293788416           
       2.493840             0.00677327763             0.00028869346           
       2.496481             0.00700245163            0.000297375341           
       2.499121              0.0069546051            0.000292411778           
       2.501761             0.00756682676            0.000310190268           
       2.504402             0.00713096999            0.000295353383           
       2.507042             0.00736774006             0.00030520725           
       2.509683             0.00697202237             0.00029419406           
       2.512323             0.00761622312            0.000308689278           
       2.514963              0.0144009378            0.000425314283           
       2.517604              0.0177018325            0.000469699535           
       2.520244             0.00893327817            0.000333742404           
       2.522884             0.00685743299            0.000291766681           
       2.525525             0.00777884886            0.000313303559           
       2.528165              0.0184121582            0.000479812998           
       2.530806              0.0331698462             0.00064159075           
       2.533446              0.0161313129            0.000451402168           
       2.536086             0.00921216486            0.000338258979           
       2.538727             0.00879278626            0.000332588371           
       2.541367              0.0096504188            0.000347434755           
       2.544008             0.00724040872            0.000301196184           
       2.546648             0.00682184251            0.000292692532           
       2.549288             0.00720932298             0.00030093351           
       2.551929             0.00763878634            0.000310790455           
       2.554569             0.00726736035            0.000300370248           
       2.557209             0.00649928647            0.000287263789           
       2.559850             0.00652533531             0.00028452898           
       2.562490             0.00701941216            0.000297252958           
       2.565131             0.00703665713            0.000298135693           
       2.567771             0.00682865124            0.000292139547           
       2.570411             0.00637631547            0.000285733253           
       2.573052             0.00726218195            0.000301377033           
       2.575692             0.00715843158            0.000300010235           
       2.578332             0.00693592946            0.000294438528           
       2.580973             0.00762716097            0.000311265388           
       2.583613             0.00694344986            0.000294280327           
       2.586254             0.00684267105            0.000294721406           
       2.588894             0.00705768114            0.000297719305           
       2.591534             0.00644752002            0.000285082414           
       2.594175             0.00666980072            0.000291638056           
       2.596815             0.00700697849            0.000296139544           
       2.599456              0.0074076094            0.000306979146           
       2.602096             0.00690184251            0.000295205247           
       2.604736             0.00746787974            0.000307877339           
       2.607377             0.00680281616            0.000292724757           
       2.610017             0.00665594902            0.000289446512           
       2.612657             0.00682978583            0.000295273122           
       2.615298             0.00702224527            0.000296475838           
       2.617938             0.00698954662            0.000298372332           
       2.620579             0.00722427199            0.000300863101           
       2.623219             0.00696009879            0.000300034724           
       2.625859             0.00635863587             0.00028194468           
       2.628500             0.00704333126            0.000301478979           
       2.631140             0.00664853337            0.000287742486           
       2.633780             0.00733665482            0.000306148896           
       2.636421             0.00718424987             0.00030019561           
       2.639061             0.00748679133            0.000310115367           
       2.641702             0.00707008461            0.000298139917           
       2.644342             0.00707886167            0.000300772107           
       2.646982             0.00715047076            0.000302032934           
       2.649623             0.00757061059            0.000312642633           
       2.652263             0.00721091515            0.000302697135           
       2.654904             0.00760430948             0.00031253218           
       2.657544             0.00714742671            0.000300866182           
       2.660184             0.00637639177            0.000284538589           
       2.662825             0.00686022306            0.000295843832           
       2.665465             0.00680302772            0.000295152867           
       2.668105             0.00704420478            0.000300458018           
       2.670746             0.00676098714            0.000291865325           
       2.673386             0.00714586926            0.000303694409           
       2.676027             0.00718288292            0.000301891527           
       2.678667             0.00708735439            0.000301436282           
       2.681307             0.00705838175            0.000298454038           
       2.683948              0.0078221073            0.000317306227           
       2.686588             0.00700986497             0.00029762389           
       2.689229             0.00705139854            0.000301183328           
       2.691869             0.00818487146            0.000321249547           
       2.694509             0.00770981219            0.000316063152           
       2.697150             0.00770101155            0.000310841103           
       2.699790             0.00749489989            0.000313023055           
       2.702430             0.00725032602            0.000301970576           
       2.705071             0.00752612644            0.000311871029           
       2.707711             0.00672871377            0.000291962603           
       2.710352             0.00668893705            0.000292755243           
       2.712992             0.00698115314            0.000300054008           
       2.715632             0.00679056101            0.000294246452           
       2.718273             0.00636719997            0.000285872273           
       2.720913             0.00669521637            0.000293632806           
       2.723553             0.00685212377            0.000296021409           
       2.726194             0.00654477033            0.000290701465           
       2.728834             0.00630386595            0.000282765007           
       2.731475             0.00706725599            0.000302013748           
       2.734115             0.00751933754             0.00030966741           
       2.736755             0.00698305449            0.000300393038           
       2.739396             0.00691595137             0.00029736543           
       2.742036              0.0073587348            0.000308830592           
       2.744677             0.00725220434            0.000307035259           
       2.747317               0.007919003            0.000319281281           
       2.749957              0.0076362584            0.000315804089           
       2.752598              0.0069629912            0.000302469249           
       2.755238             0.00701746431            0.000303513235           
       2.757878             0.00728618781            0.000308389381           
       2.760519              0.0075023617            0.000309626651           
       2.763159             0.00771969305            0.000319186206           
       2.765800             0.00723304263            0.000303727938           
       2.768440             0.00712868359            0.000305501048           
       2.771080             0.00698722658            0.000299905981           
       2.773721             0.00675849038            0.000298574717           
       2.776361             0.00663276974            0.000292607829           
       2.779001              0.0070686636            0.000305244917           
       2.781642             0.00674045627            0.000296040327           
       2.784282             0.00653472828            0.000291589227           
       2.786923             0.00659504292            0.000290703953           
       2.789563             0.00660115482            0.000291422868           
       2.792203             0.00683239389            0.000298370472           
       2.794844             0.00663301621            0.000292647148           
       2.797484             0.00680133517            0.000296754522           
       2.800125             0.00684721662            0.000297369005           
       2.802765              0.0065562875            0.000296377295           
       2.805405             0.00717567494            0.000305585386           
       2.808046             0.00696797127            0.000305747634           
       2.810686             0.00667491966            0.000296060521           
       2.813326             0.00684618687            0.000303544282           
       2.815967             0.00641545502            0.000291988547           
       2.818607             0.00775420971             0.00032422064           
       2.821248             0.00644606877             0.00029192422           
       2.823888              0.0066088862             0.00030034897           
       2.826528             0.00618691732            0.000288868585           
       2.829169             0.00676200569             0.00030066254           
       2.831809              0.0065040788            0.000295130978           
       2.834449             0.00672570382            0.000294878621           
       2.837090             0.00648328518            0.000291257908           
       2.839730             0.00732425838            0.000307373805           
       2.842371             0.00678358183            0.000297872211           
       2.845011             0.00681844229             0.00029797056           
       2.847651             0.00694352569            0.000301243465           
       2.850292             0.00685621877            0.000297642749           
       2.852932             0.00668831587            0.000294502817           
       2.855573             0.00615925267            0.000285097002           
       2.858213             0.00716900927            0.000304128953           
       2.860853             0.00698859117            0.000302525204           
       2.863494              0.0070450829            0.000304476844           
       2.866134              0.0072258044            0.000312682583           
       2.868774             0.00722916653            0.000307967796           
       2.871415             0.00682368324            0.000302167599           
       2.874055             0.00659360381             0.00029850103           
       2.876696             0.00667024521            0.000297527385           
       2.879336              0.0073232353            0.000313820189           
       2.881976              0.0071941508            0.000310786087           
       2.884617             0.00673867059            0.000299115978           
       2.887257              0.0068971572            0.000300503013           
       2.889897             0.00628016447            0.000290033982           
       2.892538             0.00671665603            0.000297864176           
       2.895178             0.00625455109             0.00028450391           
       2.897819             0.00718078318            0.000307978181           
       2.900459             0.00650212667            0.000290637081           
       2.903099             0.00705322946            0.000304283946           
       2.905740             0.00716035489            0.000303163755           
       2.908380             0.00640215159            0.000290485343           
       2.911021             0.00657416777             0.00029492151           
       2.913661             0.00694703346            0.000299833347           
       2.916301             0.00686576404            0.000302314781           
       2.918942             0.00701911018            0.000301060755           
       2.921582             0.00645431244            0.000291723128           
       2.924222             0.00693785138            0.000300699047           
       2.926863             0.00693256037            0.000301382777           
       2.929503              0.0069702628            0.000305555912           
       2.932144             0.00753449434            0.000312472106           
       2.934784              0.0063496726            0.000288072372           
       2.937424             0.00684764183            0.000299708453           
       2.940065             0.00717023762            0.000306936521           
       2.942705             0.00701482359             0.00030451437           
       2.945346             0.00718477448            0.000306360831           
       2.947986             0.00869861222            0.000338273311           
       2.950626             0.00846352515            0.000334696897           
       2.953267              0.0101262206             0.00036221078           
       2.955907             0.00794399223            0.000325058279           
       2.958547             0.00798648157            0.000322584443           
       2.961188             0.00683351425            0.000300997285           
       2.963828             0.00666238387            0.000295520206           
       2.966469             0.00715112691            0.000306244115           
       2.969109             0.00778106984            0.000321081749           
       2.971749             0.00942474779            0.000352331564           
       2.974390             0.00882763704            0.000341923535           
       2.977030             0.00910299394            0.000346554525           
       2.979670             0.00754073778            0.000313384374           
       2.982311             0.00750325483            0.000314860563           
       2.984951             0.00676032215            0.000299639174           
       2.987592             0.00761589347            0.000316961854           
       2.990232             0.00762705361            0.000318003965           
       2.992872             0.00944338954            0.000351080679           
       2.995513              0.0110887015            0.000383425874           
       2.998153              0.0172019279            0.000480642884           
       3.000794              0.0258663667            0.000580812023           
       3.003434              0.0219837373            0.000541127318           
       3.006074              0.0154083822            0.000454490301           
       3.008715              0.0143167368            0.000441430782           
       3.011355              0.0159627578            0.000470964042           
       3.013995              0.0151598356            0.000456722105           
       3.016636              0.0296402697             0.00063982232           
       3.019276               0.203378901             0.00171604122           
       3.021917               0.363867657              0.0022564084           
       3.024557               0.139942222             0.00141050221           
       3.027197              0.0815518349             0.00109482548           
       3.029838               0.180087616             0.00161915421           
       3.032478               0.110018893             0.00127311405           
       3.035118               0.087513545             0.00114130327           
       3.037759              0.0701963298             0.00102396437           
       3.040399              0.0675434674             0.00101592253           
       3.043040              0.0662089028             0.00101560512           
       3.045680              0.0531966988            0.000896330956           
       3.048320              0.0710352672             0.00105239011           
       3.050961              0.0524960833            0.000913768899           
       3.053601              0.0819189601             0.00113642369           
       3.056242                 0.0788292             0.00112194703           
       3.058882              0.0943202168               0.001245501           
       3.061522               0.256900026             0.00204128808           
       3.064163              0.0706226738             0.00107221983           
       3.066803              0.0228351328            0.000621485996           
       3.069443              0.0228549672            0.000617614838           
       3.072084              0.0596624241             0.00100676184           
       3.074724              0.0701951916             0.00109846677           
       3.077365              0.0143341617            0.000496030459           
       3.080005             0.00872892582            0.000391374119           
       3.082645             0.00959884192            0.000412502697           
       3.085286             0.00890251637            0.000397331471           
       3.087926             0.00738288958            0.000364136494           
       3.090566             0.00705657478             0.00035966537           
       3.093207             0.00719806205            0.000359328553           
       3.095847             0.00752987667            0.000375220956           
       3.098488             0.00793619907             0.00038451319           
       3.101128             0.00789535974            0.000385611764           
       3.103768             0.00809700025            0.000392704825           
       3.106409             0.00910773817            0.000419284311           
       3.109049              0.0105915975            0.000455666577           
       3.111690              0.0133912838            0.000510345368           
       3.114330              0.0212176382            0.000648110021           
       3.116970              0.0163744796            0.000577276651           
       3.119611               0.012341714            0.000497912307           
       3.122251              0.0111145583            0.000476379922           
       3.124891             0.00857358039            0.000420428128           
       3.127532             0.00806884115            0.000415212006           
       3.130172             0.00925367459            0.000435505973           
       3.132813             0.00743666497            0.000398360537           
       3.135453             0.00742976541            0.000406574944           
       3.138093             0.00670292684            0.000377013126           
       3.140734             0.00590684914            0.000360504375           
       3.143374             0.00640359571               0.000381095           
       3.146014             0.00562080596            0.000354451282           
       3.148655             0.00669926554            0.000390010893           
       3.151295             0.00756603549            0.000417754693           
       3.153936             0.00704966064            0.000409200071           
       3.156576             0.00588674301            0.000369636489           
       3.159216             0.00617492476            0.000381672346           
       3.161857             0.00628529363            0.000389791935           
       3.164497             0.00639878844            0.000401588226           
       3.167138             0.00682729952            0.000404864899           
       3.169778             0.00655411748            0.000403845088           
       3.172418             0.00645336852            0.000403070754           
       3.175059             0.00652880001            0.000410725255           
       3.177699             0.00619595996            0.000398538475           
       3.180339             0.00622842393            0.000403152849           
       3.182980             0.00712151356            0.000436908488           
       3.185620             0.00620749788            0.000412365865           
       3.188261             0.00633370094            0.000411079425           
       3.190901             0.00614970946            0.000411306198           
       3.193541             0.00665167377            0.000429172769           
       3.196182             0.00550767101            0.000398652145           
       3.198822             0.00557398765            0.000396183347           
       3.201463              0.0057453826             0.00040742986           
       3.204103             0.00632333474            0.000433123208           
       3.206743              0.0061419675            0.000430475563           
       3.209384             0.00605861357            0.000425638648           
       3.212024             0.00638014965            0.000438338816           
       3.214664             0.00575375359            0.000424199373           
       3.217305               0.006063648            0.000445632931           
       3.219945             0.00615293794            0.000445148278           
       3.222586             0.00540825189            0.000419703653           
       3.225226             0.00572116493            0.000441399552           
       3.227866             0.00667973167            0.000480635702           
       3.230507             0.00590836626            0.000457427108           
       3.233147              0.0058834576            0.000449710297           
       3.235787             0.00601632876            0.000454883656           
       3.238428             0.00664697479            0.000486574983           
       3.241068              0.0054178161            0.000448196304           
       3.243709             0.00520872138            0.000437023175           
       3.246349             0.00515937118              0.0004325144           
       3.248989             0.00637608577            0.000491806397           
       3.251630             0.00470308326            0.000424253651           
       3.254270             0.00618944915            0.000501659269           
       3.256911             0.00526335203            0.000451017885           
       3.259551             0.00524672193            0.000460255319           
       3.262191             0.00513752696            0.000459630696           
       3.264832             0.00518712267             0.00046617742           
       3.267472             0.00522169668            0.000474361539           
       3.270112             0.00576365216             0.00049978947           
       3.272753             0.00626107214            0.000527311386           
       3.275393             0.00521972259             0.00048394522           
       3.278034             0.00537870061            0.000501267214           
       3.280674             0.00657214261            0.000555702967           
       3.283314             0.00509559425            0.000492016573           
       3.285955             0.00583122071             0.00053622095           
       3.288595             0.00571088978            0.000536579556           
       3.291235             0.00531508249            0.000520692052           
       3.293876             0.00624906571            0.000567933416           
       3.296516             0.00553161981            0.000545236548           
       3.299157             0.00553259511            0.000553526272           
       3.301797             0.00478110108            0.000514780724           
       3.304437             0.00605029462            0.000589945498           
       3.307078              0.0053964838            0.000562571455           
       3.309718             0.00527890545            0.000561963252           
       3.312359              0.0060525692            0.000613894274           
       3.314999             0.00630672526            0.000633224761           
       3.317639             0.00536651971            0.000590410093           
       3.320280             0.00496913245            0.000576426404           
       3.322920             0.00652214163             0.00067026787           
       3.325560              0.0049703498            0.000596421001           
       3.328201                0.00703683             0.00071265605           
       3.330841             0.00503030738            0.000617198276           
       3.333482             0.00546883177            0.000651709849           
       3.336122             0.00383645351            0.000557712092           
       3.338762             0.00531986328            0.000662749612           
       3.341403             0.00541373246            0.000674773462           
       3.344043             0.00531145234             0.00069387873           
       3.346683             0.00459850975            0.000652180984           
       3.349324             0.00642094959             0.00078258334           
       3.351964             0.00553080462            0.000749665095           
       3.354605             0.00598235524            0.000788495974           
       3.357245             0.00486863014             0.00073632562           
       3.359885             0.00461948021            0.000717495443           
       3.362526             0.00558261894            0.000829083924           
       3.365166             0.00498381111            0.000773686505           
       3.367807             0.00531480487            0.000855264236           
       3.370447             0.00616812867            0.000921725725           
       3.373087             0.00607252307            0.000965219343           
       3.375728             0.00582958763            0.000938566229           
       3.378368             0.00524402355            0.000961907199           
       3.381008             0.00652213533             0.00106338945           
       3.383649             0.00462166948            0.000968758373           
       3.386289             0.00521363373             0.00102935542           
       3.388930             0.00547865613              0.0011588631           
       3.391570             0.00508249871             0.00111664678           
       3.394210             0.00580025456             0.00127815646           
       3.396851             0.00456062072             0.00122770931           
       3.399491             0.00768027006             0.00162212098           
       3.402131             0.00652950486             0.00177044697           
       3.404772             0.00556830771             0.00163565047           
       3.407412             0.00359858411             0.00163163277           
       3.410053             0.00457069396             0.00191476047           
       3.412693             0.00454134204              0.0027003031           
       3.415333           -2.57544141e-05                         0           
