################################################################################
# EDF_DataBlockID                     0.Image.Psd
# EDF_BinarySize                      2105344
# EDF_HeaderSize                      2560
# ByteOrder                           LowByteFirst
# DataType                            FloatValue
# Dim_1                               512
# Dim_2                               1028
# Image                               0
# HeaderID                            EH:000000:000000:000000
# Size                                2105344
# Center_1                            304.9000
# Center_2                            588.7000
# Comment                             Xenocs_Cell_Window - front_window_open_only
# DDummy                              0.6
# Date                                2025-10-20T08:51:51
# Delta                               21.910000
# Dummy                               -1.5
# ExposureTime                        360
# Gamma                               15.360000
# Intensity1                          8.82385e-10
# PSize_1                             7.5e-05
# PSize_2                             7.5e-05
# Pressure                            0.032588
# SampleDistance                      0.115750
# SampleEnvKind                       large
# SampleEnvPN                         ElectroChemical cell
# SampleEnvSN                         1141
# Thickness                           0
# Wavelength                          1.541891e-10
# Wavelength                          1.54189e-10
# aux                                 0
# aux_dial                            0.002375
# beamx                               588.429
# beamx_dial                          588.429
# beamz                               657.855
# beamz_dial                          657.855
# det0x                               -0.000396875
# det0x_dial                          6.36905
# det0xvd                             -0.0005
# det0xvd_dial                        -0.0005
# det0y                               450.002
# det0y_dial                          481.635
# det0z                               0
# det0z_dial                          1.2295
# det0zvd                             0
# det0zvd_dial                        0
# mag                                 1.818
# mag_dial                            1.818
# om                                  0.2499
# om_dial                             -0.610199
# phi                                 -0.0120535
# phi_dial                            0
# ry                                  0.599993
# ry_dial                             0.599993
# s1bot                               0.8
# s1bot_dial                          -1.66094
# s1hl                                0.8
# s1hl_dial                           -0.608437
# s1hr                                0.8
# s1hr_dial                           0.970938
# s1top                               0.8
# s1top_dial                          -0.461562
# s2bot                               0.45
# s2bot_dial                          1.36109
# s2hl                                0.45
# s2hl_dial                           -0.83375
# s2hr                                0.45
# s2hr_dial                           -0.118594
# s2top                               0.45
# s2top_dial                          1.44734
# w2theta                             32
# w2theta_dial                        32
# waxsch                              19.2605
# waxsch_dial                         -32.7238
# waxsh                               137.085
# waxsh_dial                          -43.5335
# waxsth                              26.0607
# waxsth_dial                         -19.4068
# waxsz                               67.0407
# waxsz_dial                          -23.7962
# wind                                65.9854
# wind_dial                           66.0041
# wpsi                                124
# wpsi_dial                           124
# wstod                               115
# wstod_dial                          115
# x                                   0
# x_dial                              1.00969
# z                                   0
# z_dial                              13.3172
# CountCutoff                         6807993
# DetectorModel                       Dectris EIGER2 Si 500K, S/N E-01-0554
# ThresholdSetting                    4023.88989258
# Saturation                          0
# FlatField                           Corrected
# BackgroundReductionExtra            0.02
# BackgroundCorrectionConstant        0.0026712
# Detector                            0
# Monitor                             0
# Pil_Roi0                            0
# SumForIntensity1                    3.17659e+08
# TransmittedFlux                     882385
# det                                 0
# mon                                 0
# pilai0                              3.17659e+08
# pilai1                              681636
# pilct0                              5.49647e+08
# pilct1                              681636
# pilroi0                             0
# pilroi1                             0
# sec                                 1
# title                               20251017__1_00570.edf
# usaxs0                              0
# Operation                           Azimuthal average I(q)
# Error_model                         ErrorModel.poisson
# Geometrical_correction              True
# Transmission_correction             True
# Thickness_correction                False
# Binning mode                        Uniform
# Binning factor                      1.0
# Psi                                 0.0
# Omega                               0.2499
# MaskInvalidPixels                   True
# DetectorEdge                        3
# MaskFiles                           ['20251017__1_00233_mask.edf']
################################################################################
    q(A⁻¹)                Intensity(a.u.)            Sigma_I(a.u.)            
       0.690460           -2.30174971e-05                         0           
       0.693100              0.0112437171             0.00440066735           
       0.695741             0.00931567771             0.00338405126           
       0.698381              0.0113535252             0.00349414751           
       0.701021             0.00688395402             0.00222054572           
       0.703662             0.00894839216              0.0023434494           
       0.706302              0.0123575222             0.00265965085           
       0.708942             0.00575879501               0.001612756           
       0.711583             0.00530231211             0.00154723383           
       0.714223             0.00403151725             0.00117566014           
       0.716864             0.00728658163             0.00161287666           
       0.719504             0.00899646033             0.00165863926           
       0.722144              0.0109811555             0.00176980664           
       0.724785             0.00679804479             0.00136967243           
       0.727425             0.00982281737             0.00152714616           
       0.730065             0.00696424631              0.0013230955           
       0.732706               0.010280963             0.00144560245           
       0.735346             0.00914206348             0.00147246992           
       0.737987             0.00720794924             0.00113166562           
       0.740627             0.00783450678             0.00129248612           
       0.743267             0.00732091832             0.00107470277           
       0.745908             0.00592283079             0.00103598484           
       0.748548             0.00486367502            0.000875590859           
       0.751189             0.00734020589             0.00106552119           
       0.753829             0.00625283166            0.000992307883           
       0.756469             0.00732267391             0.00101000367           
       0.759110             0.00575478759            0.000926118046           
       0.761750             0.00608476072            0.000871548638           
       0.764390              0.0082266236             0.00108782856           
       0.767031             0.00583940449            0.000829328857           
       0.769671             0.00723138953            0.000978762977           
       0.772312             0.00785085962            0.000929333267           
       0.774952             0.00611723306            0.000879440991           
       0.777592             0.00620541481            0.000810157915           
       0.780233             0.00713025467            0.000915511157           
       0.782873             0.00634776295            0.000789914789           
       0.785513             0.00565060088            0.000792796291           
       0.788154             0.00633752911            0.000771186302           
       0.790794             0.00628109998            0.000794594351           
       0.793435             0.00726887686            0.000821020892           
       0.796075             0.00763591226            0.000845939891           
       0.798715             0.00762204346              0.0008403464           
       0.801356             0.00687726305             0.00077687227           
       0.803996             0.00738875279            0.000818111981           
       0.806637             0.00667904315            0.000735254054           
       0.809277             0.00669685875            0.000770220835           
       0.811917             0.00693746129            0.000741830216           
       0.814558             0.00628533658            0.000723357944           
       0.817198             0.00783209729            0.000769926204           
       0.819838             0.00772250772             0.00079747692           
       0.822479             0.00536372036            0.000612481261           
       0.825119             0.00698373904            0.000750778591           
       0.827760             0.00704498322             0.00069871716           
       0.830400             0.00664713274            0.000715097636           
       0.833040             0.00673008656            0.000671541309           
       0.835681             0.00671412506            0.000702412501           
       0.838321              0.0070536113            0.000673861292           
       0.840961             0.00733452591            0.000718237861           
       0.843602              0.0061405883            0.000619041658           
       0.846242             0.00797713584            0.000730478293           
       0.848883             0.00742381609            0.000685504008           
       0.851523             0.00689624237            0.000665648944           
       0.854163             0.00642153725            0.000634868046           
       0.856804              0.0075239858             0.00066962398           
       0.859444              0.0071115008            0.000655690634           
       0.862085             0.00695512728            0.000639009147           
       0.864725             0.00671811551            0.000625721223           
       0.867365             0.00679646188            0.000624852077           
       0.870006             0.00741510994            0.000661777552           
       0.872646             0.00736533069            0.000630848244           
       0.875286              0.0079659261            0.000678419275           
       0.877927             0.00647504874            0.000585627792           
       0.880567             0.00601474301            0.000575454713           
       0.883208             0.00671130324            0.000590308338           
       0.885848             0.00645497493            0.000593939041           
       0.888488             0.00751691246            0.000609414567           
       0.891129             0.00640374428            0.000591271115           
       0.893769              0.0073296499            0.000597939541           
       0.896410             0.00660069467            0.000584906325           
       0.899050              0.0071040846            0.000585074041           
       0.901690             0.00749120828            0.000613344825           
       0.904331             0.00800614513            0.000611937428           
       0.906971             0.00688451277            0.000585952219           
       0.909611             0.00759138414            0.000590583427           
       0.912252             0.00748091003            0.000596429383           
       0.914892             0.00668490471             0.00054952513           
       0.917533             0.00789862773              0.0006108102           
       0.920173             0.00735396259            0.000565356476           
       0.922813             0.00702714278            0.000577530282           
       0.925454             0.00667389063            0.000534156312           
       0.928094             0.00675796385            0.000549047779           
       0.930734             0.00653328863             0.00052696007           
       0.933375             0.00695081402            0.000555124421           
       0.936015             0.00722678945            0.000541594122           
       0.938656             0.00707009357            0.000558160199           
       0.941296             0.00738107227            0.000549770854           
       0.943936             0.00653890653            0.000526776612           
       0.946577             0.00739600075            0.000539543614           
       0.949217             0.00722143735            0.000551966758           
       0.951858             0.00706650716            0.000516191745           
       0.954498             0.00702040759            0.000541281886           
       0.957138              0.0075151863            0.000538273047           
       0.959779             0.00773499753            0.000558032776           
       0.962419             0.00763825959            0.000533845793           
       0.965059             0.00715646705             0.00053141266           
       0.967700             0.00744909046            0.000524635794           
       0.970340             0.00833222225            0.000570455723           
       0.972981             0.00746729286            0.000521420762           
       0.975621             0.00802176581            0.000551748528           
       0.978261             0.00764187374            0.000513820676           
       0.980902             0.00674900989            0.000505863629           
       0.983542             0.00800897913            0.000535018525           
       0.986182             0.00775429557            0.000533375937           
       0.988823             0.00683161338            0.000484484703           
       0.991463              0.0072436448            0.000510796808           
       0.994104             0.00813929549            0.000523204754           
       0.996744             0.00652408285             0.00048361317           
       0.999384             0.00703640673            0.000485196642           
       1.002025             0.00809351641            0.000534856996           
       1.004665             0.00803478448            0.000511083634           
       1.007306             0.00748761519             0.00050990642           
       1.009946             0.00761485452            0.000494439379           
       1.012586             0.00775885344            0.000513449112           
       1.015227             0.00763421439            0.000493891878           
       1.017867             0.00748005633            0.000502889523           
       1.020507             0.00761632789            0.000488346409           
       1.023148             0.00763298445            0.000494785037           
       1.025788             0.00679907362            0.000462193942           
       1.028429             0.00790814873            0.000509364309           
       1.031069              0.0080134164            0.000494002728           
       1.033709             0.00692781169            0.000468143704           
       1.036350              0.0081400415            0.000494145034           
       1.038990             0.00832039947            0.000511923165           
       1.041630             0.00746019331            0.000475413088           
       1.044271             0.00769581748            0.000482916712           
       1.046911             0.00751693392            0.000468403581           
       1.049552             0.00803171523            0.000501625403           
       1.052192              0.0074909406            0.000462659222           
       1.054832             0.00802789134            0.000488268235           
       1.057473             0.00798638474            0.000480839035           
       1.060113             0.00764444727            0.000475527033           
       1.062754             0.00764692111            0.000470343753           
       1.065394             0.00783844446             0.00047118717           
       1.068034             0.00842827457            0.000486702091           
       1.070675             0.00807484891            0.000484767402           
       1.073315             0.00834559726            0.000477763359           
       1.075955             0.00770263723            0.000466688568           
       1.078596             0.00811051751            0.000477938968           
       1.081236             0.00869112881            0.000487412324           
       1.083877             0.00761713093            0.000470558218           
       1.086517             0.00828986073            0.000479793229           
       1.089157             0.00841751512            0.000487017944           
       1.091798             0.00809467384            0.000467468434           
       1.094438             0.00774720214            0.000464593413           
       1.097078             0.00895219072            0.000486585405           
       1.099719             0.00861664813            0.000489614054           
       1.102359             0.00874771971            0.000467335237           
       1.105000             0.00874219547            0.000485587217           
       1.107640              0.0088498795            0.000472642582           
       1.110280             0.00899726594            0.000486104483           
       1.112921             0.00830137958            0.000458478797           
       1.115561             0.00849858377            0.000469779651           
       1.118202             0.00828246549            0.000450232058           
       1.120842             0.00835353372            0.000466406064           
       1.123482             0.00880491721            0.000465409114           
       1.126123             0.00888695586            0.000470490332           
       1.128763             0.00815435209            0.000448445309           
       1.131403             0.00800697003            0.000443683427           
       1.134044             0.00882288357            0.000464932524           
       1.136684              0.0092694355            0.000480134473           
       1.139325             0.00812194356            0.000436771293           
       1.141965             0.00945751377            0.000477480532           
       1.144605             0.00841292475            0.000452985394           
       1.147246             0.00890730105             0.00045727752           
       1.149886             0.00847380789            0.000449183519           
       1.152527             0.00779180181            0.000431159947           
       1.155167             0.00949699986            0.000469313619           
       1.157807             0.00802996841            0.000431843065           
       1.160448              0.0093314425            0.000471894907           
       1.163088             0.00828669343            0.000428196251           
       1.165728             0.00879516829            0.000459320695           
       1.168369             0.00913691536            0.000451446343           
       1.171009             0.00858151284            0.000441137621           
       1.173650               0.008302395            0.000430775272           
       1.176290             0.00784731508            0.000423716941           
       1.178930             0.00857228147            0.000430407765           
       1.181571             0.00874897357            0.000449022856           
       1.184211             0.00871938104             0.00043472458           
       1.186851             0.00903576673             0.00044662184           
       1.189492             0.00886524925             0.00044484416           
       1.192132             0.00866031095            0.000433160707           
       1.194773             0.00898602211            0.000438569061           
       1.197413             0.00881578888            0.000437938555           
       1.200053             0.00881297018            0.000435113582           
       1.202694             0.00888103248            0.000433499004           
       1.205334             0.00948353977            0.000452859361           
       1.207975              0.0100797101            0.000457728814           
       1.210615             0.00930495273            0.000449085697           
       1.213255             0.00956910479            0.000443367341           
       1.215896             0.00978314704            0.000456796083           
       1.218536              0.0100752217            0.000450212956           
       1.221176              0.0106375201            0.000473647433           
       1.223817             0.00932909896            0.000434319751           
       1.226457             0.00932134764            0.000439653569           
       1.229098              0.0088387322            0.000421625759           
       1.231738             0.00956507233               0.000444784           
       1.234378              0.0100577869            0.000447233872           
       1.237019             0.00861800914             0.00041732642           
       1.239659             0.00841671405            0.000412200629           
       1.242299             0.00925153511            0.000429950356           
       1.244940             0.00951022941            0.000431214667           
       1.247580             0.00997117899            0.000443490854           
       1.250221             0.00959572339            0.000442162799           
       1.252861              0.0106172021            0.000447774118           
       1.255501              0.0100533774            0.000448024699           
       1.258142              0.0107671212             0.00045448943           
       1.260782              0.0110543785            0.000465714007           
       1.263423              0.0101897137            0.000438270863           
       1.266063              0.0102322666            0.000447370847           
       1.268703              0.0100696331            0.000432619732           
       1.271344              0.0102485103            0.000445951137           
       1.273984              0.0107547714             0.00044970152           
       1.276624             0.00986486717            0.000428066696           
       1.279265              0.0101132783            0.000434369148           
       1.281905              0.0102468348            0.000439922879           
       1.284546             0.00989481416            0.000427577637           
       1.287186              0.0105135299            0.000441166433           
       1.289826             0.00964536591            0.000424750434           
       1.292467              0.0102419221            0.000429876667           
       1.295107              0.0110675277            0.000454743843           
       1.297747             0.00917806805            0.000403249426           
       1.300388             0.00991291411            0.000429843489           
       1.303028             0.00953110966            0.000410766307           
       1.305669              0.0102417791            0.000431306416           
       1.308309               0.010240909            0.000424803232           
       1.310949              0.0101892121            0.000429011006           
       1.313590              0.0107826846            0.000434498199           
       1.316230              0.0100216948            0.000426425251           
       1.318871              0.0105338061            0.000427753106           
       1.321511              0.0102827485            0.000424742844           
       1.324151              0.0100541548            0.000421654711           
       1.326792              0.0107193729            0.000431853565           
       1.329432              0.0110611329            0.000440972134           
       1.332072              0.0102961149             0.00041815409           
       1.334713              0.0104591798            0.000426679145           
       1.337353              0.0105925079            0.000422785051           
       1.339994              0.0106456883            0.000429882093           
       1.342634              0.0110118451            0.000427369739           
       1.345274              0.0109793141            0.000432316876           
       1.347915              0.0106591415            0.000427099206           
       1.350555              0.0100916905            0.000413951626           
       1.353195              0.0109670646            0.000423276449           
       1.355836              0.0104344743            0.000420660821           
       1.358476              0.0101531687            0.000413784688           
       1.361117              0.0107765577            0.000415604254           
       1.363757              0.0103375176            0.000420540246           
       1.366397              0.0104989166            0.000410612651           
       1.369038              0.0110910371            0.000430928016           
       1.371678              0.0104617411            0.000410073356           
       1.374319              0.0110329527            0.000424459536           
       1.376959              0.0110235482            0.000418437582           
       1.379599              0.0109819132            0.000425787389           
       1.382240              0.0102898611            0.000404324818           
       1.384880              0.0112362676            0.000427697252           
       1.387520              0.0103382998             0.00040545473           
       1.390161              0.0112707451            0.000422194065           
       1.392801              0.0110047011            0.000419667878           
       1.395442              0.0113927252            0.000422578154           
       1.398082              0.0110417487            0.000417441694           
       1.400722              0.0101881955            0.000399171126           
       1.403363              0.0108127464            0.000415040114           
       1.406003                0.01093688            0.000407165998           
       1.408644              0.0103320995            0.000404056542           
       1.411284              0.0110405771            0.000415389425           
       1.413924              0.0107907171            0.000405597205           
       1.416565              0.0111104931            0.000411079325           
       1.419205              0.0110268462            0.000413563031           
       1.421845              0.0110061384            0.000407980198           
       1.424486              0.0104772745            0.000399814774           
       1.427126              0.0103677266            0.000397468159           
       1.429767              0.0104532903             0.00039295477           
       1.432407              0.0105075248            0.000403897564           
       1.435047               0.010452018            0.000390724074           
       1.437688              0.0116724568            0.000422049792           
       1.440328              0.0109306588             0.00040050416           
       1.442968              0.0102533984            0.000393267868           
       1.445609             0.00969035281            0.000376029256           
       1.448249              0.0102817749            0.000389838688           
       1.450890              0.0100673109            0.000382999737           
       1.453530              0.0111675574             0.00040637394           
       1.456170              0.0101654011            0.000386838917           
       1.458811              0.0108477615             0.00039643226           
       1.461451              0.0107371768            0.000397305659           
       1.464092              0.0108655531            0.000396189925           
       1.466732              0.0107437954             0.00039154745           
       1.469372              0.0104208623            0.000384432707           
       1.472013              0.0102271222            0.000387655955           
       1.474653              0.0102301323            0.000378139686           
       1.477293              0.0104612035            0.000388822863           
       1.479934              0.0100583665            0.000377272559           
       1.482574              0.0108988115            0.000391749011           
       1.485215              0.0107869359            0.000390736745           
       1.487855              0.0101857003            0.000379612871           
       1.490495              0.0105694312            0.000385865125           
       1.493136               0.010865811            0.000386107043           
       1.495776              0.0112782431              0.0004002247           
       1.498416               0.010529017            0.000379190051           
       1.501057              0.0104037793            0.000380170238           
       1.503697              0.0113676942             0.00039357085           
       1.506338              0.0108116335            0.000386646911           
       1.508978              0.0104587997            0.000378040202           
       1.511618               0.010240447             0.00037388409           
       1.514259              0.0107418485            0.000383619513           
       1.516899              0.0103330556            0.000376424393           
       1.519540               0.010611401            0.000379343768           
       1.522180              0.0107154612              0.0003764387           
       1.524820             0.00952376967            0.000362057499           
       1.527461             0.00944714077             0.00035262088           
       1.530101             0.00976421548            0.000362196091           
       1.532741              0.0107832542            0.000378824002           
       1.535382             0.00978619777            0.000361680358           
       1.538022              0.0101668042            0.000365384916           
       1.540663              0.0102730104            0.000370759674           
       1.543303              0.0102694814            0.000366082939           
       1.545943              0.0107476999            0.000376608518           
       1.548584              0.0101874327            0.000368613513           
       1.551224              0.0100189504            0.000356180979           
       1.553864             0.00980895951            0.000361635182           
       1.556505              0.0102037425            0.000363166917           
       1.559145             0.00935859738            0.000348605921           
       1.561786             0.00950336435              0.0003497004           
       1.564426              0.0101382684            0.000360866759           
       1.567066             0.00914377836            0.000340035932           
       1.569707               0.010159551            0.000363614863           
       1.572347             0.00934323135            0.000344176663           
       1.574988             0.00955868644            0.000346745222           
       1.577628             0.00893677705            0.000342824174           
       1.580268             0.00917153284            0.000335312551           
       1.582909              0.0100002762             0.00035668339           
       1.585549             0.00944327614            0.000343368563           
       1.588189              0.0100227145            0.000357697259           
       1.590830             0.00910958233            0.000335160251           
       1.593470              0.0094585046             0.00034430766           
       1.596111             0.00905542743            0.000333980406           
       1.598751             0.00934140539            0.000342680795           
       1.601391             0.00898971503            0.000334018882           
       1.604032             0.00853921651            0.000322823478           
       1.606672             0.00881858944            0.000334664624           
       1.609312             0.00882633547            0.000324849195           
       1.611953             0.00877632159            0.000328621993           
       1.614593             0.00838291263            0.000318729367           
       1.617234             0.00859263555            0.000324520849           
       1.619874             0.00899829537            0.000328186036           
       1.622514             0.00924288118             0.00033555811           
       1.625155             0.00887635877            0.000328024377           
       1.627795             0.00881589377            0.000323601805           
       1.630436             0.00878117218            0.000326210166           
       1.633076             0.00916482068            0.000331566852           
       1.635716             0.00919217806            0.000331482281           
       1.638357             0.00868781616            0.000320890823           
       1.640997             0.00919314477            0.000332672704           
       1.643637             0.00876095334            0.000318728251           
       1.646278             0.00904561533             0.00032871267           
       1.648918             0.00923597297            0.000327871269           
       1.651559             0.00924801606            0.000332210042           
       1.654199             0.00846941142            0.000313560179           
       1.656839             0.00914908486            0.000325811318           
       1.659480             0.00882154952            0.000322743844           
       1.662120             0.00864197472            0.000315161368           
       1.664761             0.00817652218            0.000309875823           
       1.667401             0.00859609304            0.000314766961           
       1.670041             0.00866094773            0.000316313703           
       1.672682             0.00912689547            0.000321655399           
       1.675322             0.00890567701            0.000323351156           
       1.677962             0.00930848612            0.000324017587           
       1.680603             0.00823224893            0.000307415416           
       1.683243             0.00913829867            0.000321495085           
       1.685884             0.00892333425            0.000318900171           
       1.688524             0.00845010868            0.000309455862           
       1.691164             0.00847946344            0.000309196133           
       1.693805             0.00885458824            0.000318516479           
       1.696445             0.00842729388            0.000306423339           
       1.699085             0.00799125828            0.000299582041           
       1.701726             0.00896101278            0.000313112624           
       1.704366             0.00878386411            0.000317545294           
       1.707007             0.00823712762            0.000300942058           
       1.709647             0.00797568839            0.000299807135           
       1.712287             0.00837941865            0.000302165992           
       1.714928             0.00845121245            0.000306509058           
       1.717568             0.00913326921            0.000315707467           
       1.720209             0.00820250009            0.000301035988           
       1.722849             0.00814694038            0.000300495759           
       1.725489             0.00865872993            0.000304852852           
       1.728130              0.0083197621            0.000304909333           
       1.730770             0.00797038325            0.000292130254           
       1.733410             0.00817434268            0.000299728146           
       1.736051             0.00855469291            0.000301862644           
       1.738691              0.0085656533            0.000305139088           
       1.741332             0.00866825808            0.000305071626           
       1.743972             0.00839345118            0.000300308233           
       1.746612             0.00896615075            0.000310455868           
       1.749253             0.00810191025            0.000296389882           
       1.751893              0.0086451577            0.000304328572           
       1.754533             0.00826623685             0.00029350013           
       1.757174             0.00775186774            0.000289535905           
       1.759814             0.00843298242            0.000297384139           
       1.762455              0.0089608359              0.0003091599           
       1.765095             0.00853574218            0.000297500295           
       1.767735             0.00840585024            0.000300244641           
       1.770376             0.00933105102            0.000311539483           
       1.773016             0.00862819102            0.000300049259           
       1.775657             0.00868343502             0.00030162499           
       1.778297             0.00828927141            0.000296141396           
       1.780937             0.00878509396            0.000303446958           
       1.783578             0.00805635396            0.000289224267           
       1.786218             0.00895622801            0.000309815811           
       1.788858             0.00811847547            0.000287641661           
       1.791499             0.00861012042            0.000301682702           
       1.794139             0.00777350966            0.000281358301           
       1.796780              0.0086934183             0.00029930869           
       1.799420             0.00940145485             0.00031086247           
       1.802060             0.00892855762            0.000299217325           
       1.804701              0.0100163592            0.000321172767           
       1.807341              0.0084757138            0.000292587037           
       1.809981              0.0086897976            0.000298226681           
       1.812622             0.00911487662            0.000303769692           
       1.815262             0.00867508731             0.00029740737           
       1.817903             0.00869852614            0.000294129587           
       1.820543             0.00857790235            0.000295693262           
       1.823183             0.00907340676             0.00029942796           
       1.825824             0.00876488478            0.000298718902           
       1.828464             0.00869948097            0.000296689194           
       1.831105             0.00852440035            0.000294825529           
       1.833745             0.00826489353            0.000290121983           
       1.836385               0.008528574            0.000293567389           
       1.839026             0.00904048043            0.000306792864           
       1.841666             0.00830038481            0.000290149946           
       1.844306             0.00880540579            0.000302619261           
       1.846947              0.0083495999            0.000290895844           
       1.849587             0.00868163462            0.000300646477           
       1.852228             0.00897362428            0.000302409539           
       1.854868             0.00860622136             0.00030158581           
       1.857508             0.00822259849            0.000289344381           
       1.860149             0.00840052838            0.000294802397           
       1.862789             0.00800033253            0.000288967639           
       1.865429             0.00838160102            0.000296664825           
       1.868070             0.00847831713            0.000297340534           
       1.870710             0.00824094553            0.000293946931           
       1.873351             0.00805829586            0.000292526877           
       1.875991             0.00881732623            0.000307649017           
       1.878631             0.00858053197            0.000300669047           
       1.881272             0.00846096657             0.00029786748           
       1.883912             0.00836421272             0.00029963278           
       1.886553             0.00793159345            0.000288280948           
       1.889193             0.00843345778             0.00030069528           
       1.891833             0.00858915269             0.00030000492           
       1.894474             0.00872555719            0.000304770893           
       1.897114             0.00834477044            0.000295734694           
       1.899754             0.00878857635            0.000306900633           
       1.902395             0.00892487116            0.000309337145           
       1.905035             0.00832742254            0.000297633004           
       1.907676             0.00868591942            0.000304325458           
       1.910316             0.00868355651            0.000306224224           
       1.912956             0.00860811558               0.000304879           
       1.915597             0.00899750055            0.000308448704           
       1.918237             0.00850310997            0.000304406466           
       1.920878             0.00785600009            0.000287415993           
       1.923518             0.00867734761            0.000310092787           
       1.926158              0.0090902206            0.000310091078           
       1.928799             0.00897808932            0.000312267741           
       1.931439              0.0083024781            0.000297882233           
       1.934079             0.00889718793            0.000311489231           
       1.936720             0.00863009871            0.000304972611           
       1.939360             0.00844775559            0.000304641619           
       1.942001             0.00813749011            0.000297844686           
       1.944641             0.00834704014            0.000300355369           
       1.947281             0.00808004587            0.000296940362           
       1.949922             0.00820369919            0.000299578344           
       1.952562               0.007906433            0.000296631312           
       1.955202             0.00828423939            0.000296007054           
       1.957843             0.00767767467            0.000294016773           
       1.960483             0.00748141678            0.000285605135           
       1.963124             0.00861609043            0.000306271819           
       1.965764             0.00811825591             0.00029739833           
       1.968404             0.00799354835            0.000300382382           
       1.971045             0.00825449493            0.000297594294           
       1.973685             0.00768508767            0.000292505181           
       1.976326             0.00839552566            0.000304393582           
       1.978966              0.0076180515            0.000291329004           
       1.981606             0.00829057058            0.000300702208           
       1.984247             0.00821464174             0.00030193205           
       1.986887             0.00739661901            0.000289184051           
       1.989527             0.00780628319             0.00029089513           
       1.992168             0.00822215662            0.000305746147           
       1.994808             0.00816137661            0.000301070853           
       1.997449             0.00810311478            0.000299554362           
       2.000089             0.00778568555             0.00029189943           
       2.002729             0.00796436679            0.000301994997           
       2.005370             0.00795863702            0.000296147651           
       2.008010             0.00759913508            0.000293223699           
       2.010650              0.0086357784            0.000311690498           
       2.013291             0.00711980859            0.000284624274           
       2.015931             0.00720332793            0.000284239805           
       2.018572             0.00793262084            0.000302243243           
       2.021212             0.00793432803            0.000299562927           
       2.023852             0.00781104738            0.000298787961           
       2.026493             0.00749635721            0.000291424586           
       2.029133              0.0074972643            0.000289218964           
       2.031774             0.00735745597            0.000289288083           
       2.034414             0.00739300759            0.000288255583           
       2.037054              0.0073369567            0.000290781661           
       2.039695              0.0078306196            0.000294487764           
       2.042335             0.00723404621            0.000287865701           
       2.044975             0.00782777652            0.000297052771           
       2.047616             0.00772675787             0.00029639444           
       2.050256             0.00765238407            0.000291494867           
       2.052897             0.00748139676            0.000296756065           
       2.055537             0.00746678498             0.00028838331           
       2.058177             0.00723036404            0.000286287758           
       2.060818             0.00797674142            0.000301604151           
       2.063458             0.00812220899            0.000304761003           
       2.066098             0.00790100399            0.000299248421           
       2.068739             0.00795339804            0.000303369481           
       2.071379             0.00780490692            0.000296086118           
       2.074020             0.00760695067             0.00029630999           
       2.076660             0.00752366147            0.000292685857           
       2.079300             0.00801440339            0.000302036751           
       2.081941             0.00689126967            0.000281777362           
       2.084581             0.00747484776            0.000293683287           
       2.087222             0.00760112876            0.000296355409           
       2.089862             0.00729429588            0.000286693887           
       2.092502             0.00800273218            0.000305749787           
       2.095143             0.00712847305            0.000284441931           
       2.097783             0.00717742863            0.000289760113           
       2.100423             0.00713095055            0.000283282389           
       2.103064             0.00728912666            0.000291352021           
       2.105704             0.00744073214            0.000293240187           
       2.108345             0.00742198443            0.000294215094           
       2.110985             0.00705988162            0.000282917834           
       2.113625             0.00713025352            0.000288804113           
       2.116266             0.00758605615            0.000295687209           
       2.118906              0.0075730008            0.000295217856           
       2.121546             0.00717533011            0.000287133984           
       2.124187             0.00712851739            0.000290154363           
       2.126827             0.00748061636             0.00029257233           
       2.129468             0.00733650163            0.000292764044           
       2.132108             0.00748575843            0.000295115171           
       2.134748              0.0075239393            0.000294751803           
       2.137389             0.00754781686            0.000297691784           
       2.140029             0.00798790955            0.000305503927           
       2.142670             0.00726950264            0.000291918504           
       2.145310             0.00734231371            0.000294497626           
       2.147950             0.00774806094            0.000303694914           
       2.150591             0.00812225262            0.000308090285           
       2.153231             0.00739317141            0.000298283258           
       2.155871             0.00777693425            0.000301508661           
       2.158512             0.00728969634            0.000297170906           
       2.161152             0.00711034804            0.000286161103           
       2.163793              0.0070297201            0.000289163774           
       2.166433              0.0070871583            0.000285307896           
       2.169073             0.00753774902            0.000301107635           
       2.171714             0.00701660437            0.000284597814           
       2.174354             0.00760682681            0.000300854205           
       2.176995             0.00653108122            0.000276458086           
       2.179635             0.00771842624            0.000306226964           
       2.182275             0.00762832809            0.000298391127           
       2.184916             0.00691014992            0.000290000043           
       2.187556             0.00755352473            0.000298318723           
       2.190196             0.00756331793            0.000303204028           
       2.192837             0.00728063349             0.00029422622           
       2.195477             0.00760142946            0.000303538394           
       2.198118             0.00720570328            0.000290075735           
       2.200758             0.00694652696            0.000289234124           
       2.203398             0.00728376325            0.000291260162           
       2.206039              0.0075324152             0.00030071716           
       2.208679             0.00735869701            0.000294319688           
       2.211319             0.00756256781            0.000299773273           
       2.213960             0.00660073704            0.000277084453           
       2.216600             0.00677970834            0.000287432202           
       2.219241             0.00767458499            0.000301367966           
       2.221881             0.00742572332            0.000297986709           
       2.224521             0.00726807656            0.000293784107           
       2.227162             0.00737229149            0.000300530253           
       2.229802              0.0073305573            0.000294813907           
       2.232443             0.00764049038            0.000302164969           
       2.235083             0.00771951111             0.00030190228           
       2.237723             0.00687052158            0.000286999977           
       2.240364             0.00750543901            0.000298442331           
       2.243004             0.00728397443            0.000294894481           
       2.245644             0.00792118414            0.000306812779           
       2.248285             0.00710602014            0.000292483756           
       2.250925             0.00819478526            0.000312623569           
       2.253566             0.00740458376            0.000297895467           
       2.256206             0.00767887039            0.000302454029           
       2.258846             0.00706563992            0.000290128457           
       2.261487             0.00690269361            0.000287259565           
       2.264127             0.00749138167            0.000302089778           
       2.266767              0.0067130441            0.000281344212           
       2.269408             0.00680042281            0.000286532465           
       2.272048             0.00736816298            0.000296418796           
       2.274689              0.0071165246            0.000292458684           
       2.277329             0.00697698942            0.000289192552           
       2.279969             0.00742879455            0.000299313688           
       2.282610             0.00736401629            0.000295099674           
       2.285250             0.00736672242            0.000299795937           
       2.287891              0.0074238159            0.000297918463           
       2.290531             0.00713248575            0.000293454423           
       2.293171             0.00742684164            0.000299433836           
       2.295812             0.00672464987            0.000283414746           
       2.298452              0.0072231199            0.000295612424           
       2.301092             0.00730630787            0.000299198393           
       2.303733             0.00721957457            0.000291534441           
       2.306373             0.00719370525            0.000298129549           
       2.309014             0.00717865062            0.000292078438           
       2.311654             0.00703043047            0.000291790583           
       2.314294             0.00740676085            0.000298844532           
       2.316935             0.00737876457            0.000299458093           
       2.319575             0.00688732947            0.000288230768           
       2.322215              0.0073818989             0.00030265223           
       2.324856             0.00740199868            0.000295453331           
       2.327496             0.00744392805            0.000303550355           
       2.330137              0.0072207942            0.000293452554           
       2.332777             0.00734653913            0.000299234028           
       2.335417             0.00697466495            0.000290686938           
       2.338058             0.00713439653            0.000295173371           
       2.340698              0.0067609821            0.000284515717           
       2.343339             0.00699507693             0.00029492193           
       2.345979               0.007648205            0.000302229409           
       2.348619             0.00708750658            0.000296434505           
       2.351260             0.00789835014            0.000306280105           
       2.353900             0.00712875067            0.000297139702           
       2.356540             0.00738847286            0.000298343719           
       2.359181             0.00749752181            0.000304556162           
       2.361821             0.00673718485             0.00028518303           
       2.364462             0.00732196127            0.000302270992           
       2.367102             0.00691125027             0.00028517873           
       2.369742             0.00748725829            0.000307462099           
       2.372383              0.0070237862            0.000289112954           
       2.375023             0.00765850002            0.000309759091           
       2.377663             0.00700531887            0.000289959725           
       2.380304             0.00690800311             0.00029193287           
       2.382944             0.00713642657            0.000293817988           
       2.385585             0.00677049421            0.000288891363           
       2.388225             0.00745904499             0.00030185564           
       2.390865             0.00693074213            0.000291714647           
       2.393506             0.00718011383            0.000295547966           
       2.396146             0.00735647212            0.000300147131           
       2.398787             0.00673890029            0.000287523685           
       2.401427             0.00695232987            0.000290268048           
       2.404067             0.00706041907            0.000296980449           
       2.406708             0.00730057137            0.000298193241           
       2.409348             0.00707406319            0.000295739059           
       2.411988             0.00706774399            0.000294662843           
       2.414629              0.0068256417             0.00029051956           
       2.417269             0.00737502659            0.000299242585           
       2.419910             0.00705619992            0.000296394122           
       2.422550             0.00693308789            0.000289337319           
       2.425190             0.00728144173            0.000305852945           
       2.427831             0.00655026097            0.000279180419           
       2.430471             0.00661201279             0.00028869252           
       2.433112             0.00718984357            0.000293939448           
       2.435752             0.00671485653            0.000291255625           
       2.438392             0.00686236303            0.000289488341           
       2.441033             0.00673719847            0.000288150555           
       2.443673             0.00708719566            0.000296329703           
       2.446313             0.00666509831            0.000285838793           
       2.448954             0.00733104814            0.000302409266           
       2.451594             0.00701935724            0.000294135226           
       2.454235             0.00750550419            0.000303203953           
       2.456875             0.00723982201             0.00029929755           
       2.459515             0.00706457334            0.000296108793           
       2.462156             0.00778008735            0.000309140599           
       2.464796             0.00748613773            0.000308593368           
       2.467436             0.00749667484            0.000302335211           
       2.470077             0.00785693626            0.000313782579           
       2.472717             0.00823120226            0.000317150516           
       2.475358             0.00753209277            0.000306820443           
       2.477998             0.00741103175            0.000302721024           
       2.480638             0.00737119803             0.00030263994           
       2.483279             0.00778590112            0.000312372915           
       2.485919             0.00720332798            0.000298355413           
       2.488560             0.00699378363            0.000295203239           
       2.491200              0.0075020661            0.000305323073           
       2.493840             0.00736187262            0.000300810038           
       2.496481             0.00714408142            0.000300202123           
       2.499121             0.00710020306            0.000295294036           
       2.501761             0.00685291164             0.00029503226           
       2.504402             0.00720176288            0.000296652302           
       2.507042                0.00650118            0.000286539475           
       2.509683             0.00721749123            0.000299163299           
       2.512323             0.00755845141            0.000307346871           
       2.514963              0.0151510901            0.000436010742           
       2.517604              0.0230184488            0.000535315367           
       2.520244              0.0113737886            0.000376373645           
       2.522884             0.00790205087            0.000313029658           
       2.525525             0.00791003542            0.000315760313           
       2.528165              0.0193013386            0.000490991577           
       2.530806              0.0347594578            0.000656422606           
       2.533446              0.0195887819             0.00049715655           
       2.536086             0.00974310385            0.000347678485           
       2.538727              0.0090226498            0.000336722022           
       2.541367             0.00901455451            0.000335608523           
       2.544008             0.00756667232            0.000307737949           
       2.546648             0.00744687364             0.00030563878           
       2.549288             0.00686130391            0.000293418373           
       2.551929             0.00698158467            0.000296956724           
       2.554569             0.00728930722             0.00030065772           
       2.557209             0.00708724401            0.000299810891           
       2.559850             0.00684484922            0.000291251185           
       2.562490             0.00735068103            0.000304018681           
       2.565131             0.00681303884            0.000293198591           
       2.567771             0.00716676275            0.000299119735           
       2.570411             0.00687059445            0.000296437889           
       2.573052             0.00768227706             0.00030980059           
       2.575692             0.00774843003            0.000311956944           
       2.578332             0.00690436048            0.000293605848           
       2.580973             0.00729844198            0.000304316235           
       2.583613             0.00670066265            0.000288930323           
       2.586254             0.00700149629             0.00029795793           
       2.588894             0.00725855785            0.000301760102           
       2.591534             0.00767358308            0.000310837813           
       2.594175             0.00741248153            0.000307277135           
       2.596815             0.00666412071             0.00028864438           
       2.599456             0.00675558654            0.000292996232           
       2.602096             0.00751729455            0.000307916528           
       2.604736              0.0068645568            0.000295016282           
       2.607377             0.00681631963            0.000292853709           
       2.610017             0.00683835548            0.000293224214           
       2.612657             0.00670761812            0.000292459144           
       2.615298             0.00693870237            0.000294544627           
       2.617938             0.00684283429            0.000295061622           
       2.620579             0.00712925138            0.000298713269           
       2.623219             0.00709488677             0.00030275911           
       2.625859              0.0067143647            0.000289564327           
       2.628500             0.00711523269            0.000302846947           
       2.631140             0.00667707221            0.000288200526           
       2.633780             0.00695659549            0.000297949524           
       2.636421             0.00672456653            0.000290272864           
       2.639061             0.00705531902            0.000300880761           
       2.641702              0.0073393275            0.000303596403           
       2.644342             0.00732860704            0.000305863202           
       2.646982              0.0073611309            0.000306280905           
       2.649623             0.00760126122            0.000313102288           
       2.652263             0.00729832315            0.000304358426           
       2.654904             0.00699795333            0.000299647762           
       2.657544             0.00712936357            0.000300320217           
       2.660184              0.0072923707            0.000304122613           
       2.662825             0.00725213762            0.000304009452           
       2.665465             0.00680610232             0.00029505691           
       2.668105             0.00679547281            0.000294943153           
       2.670746             0.00679709406            0.000292482411           
       2.673386             0.00728356423            0.000306437499           
       2.676027             0.00687898079            0.000295273346           
       2.678667             0.00739515703            0.000307742741           
       2.681307             0.00694467769             0.00029587727           
       2.683948             0.00754288293            0.000311419685           
       2.686588             0.00767861687            0.000311325812           
       2.689229             0.00758991761            0.000312300367           
       2.691869             0.00745561482             0.00030643544           
       2.694509             0.00767113126            0.000315095602           
       2.697150             0.00738330634            0.000304194015           
       2.699790             0.00712769234            0.000305090404           
       2.702430             0.00705898703            0.000297795217           
       2.705071             0.00663405499            0.000292643903           
       2.707711             0.00643516363            0.000285365629           
       2.710352             0.00634112073            0.000284885146           
       2.712992             0.00688944807            0.000297912504           
       2.715632             0.00676708859            0.000293575632           
       2.718273             0.00699833801            0.000299540751           
       2.720913              0.0071587751            0.000303460588           
       2.723553             0.00713461019            0.000301895274           
       2.726194             0.00734960109            0.000307887861           
       2.728834             0.00615054404            0.000279151273           
       2.731475             0.00697763479            0.000299927361           
       2.734115             0.00681854435            0.000294721768           
       2.736755             0.00708075773             0.00030232056           
       2.739396             0.00704084031            0.000299873043           
       2.742036             0.00715534592            0.000304365009           
       2.744677             0.00774816806            0.000317185568           
       2.747317             0.00765498671            0.000313740867           
       2.749957             0.00757469227            0.000314355168           
       2.752598             0.00665280477            0.000295492432           
       2.755238             0.00720653439            0.000307405354           
       2.757878             0.00738561299             0.00031031529           
       2.760519             0.00707581388            0.000300530258           
       2.763159             0.00757902332             0.00031609046           
       2.765800             0.00710234136            0.000300805428           
       2.768440             0.00686179544            0.000299562596           
       2.771080              0.0067959778            0.000295610161           
       2.773721             0.00714460697             0.00030681601           
       2.776361             0.00665249677            0.000292881193           
       2.779001             0.00703580544            0.000304366858           
       2.781642              0.0068399822            0.000298053606           
       2.784282             0.00667104459            0.000294452535           
       2.786923             0.00666362561            0.000292050589           
       2.789563             0.00676590388            0.000294874521           
       2.792203             0.00676665119            0.000296767923           
       2.794844             0.00675691252            0.000295204914           
       2.797484             0.00662374923            0.000292693357           
       2.800125             0.00665106398            0.000292917215           
       2.802765             0.00680922872            0.000301873899           
       2.805405             0.00744182031            0.000311029412           
       2.808046             0.00678822552            0.000301612077           
       2.810686             0.00695719643            0.000302089254           
       2.813326             0.00658188947            0.000297463471           
       2.815967             0.00702382736            0.000305351225           
       2.818607             0.00707982028            0.000309630456           
       2.821248             0.00606239341            0.000282947191           
       2.823888             0.00674838049            0.000303334954           
       2.826528             0.00670358167            0.000300522697           
       2.829169              0.0065841175            0.000296517964           
       2.831809             0.00729868861            0.000312467595           
       2.834449             0.00635971729            0.000286585353           
       2.837090              0.0065977082            0.000293654988           
       2.839730             0.00714926916            0.000303512454           
       2.842371             0.00746982421            0.000312403804           
       2.845011              0.0069874864            0.000301475433           
       2.847651             0.00665728369            0.000294806334           
       2.850292             0.00720305943            0.000304910331           
       2.852932             0.00728400474            0.000307168617           
       2.855573             0.00708084551            0.000305514528           
       2.858213             0.00738037611            0.000308409758           
       2.860853             0.00678773332             0.00029798184           
       2.863494             0.00728232782            0.000309390515           
       2.866134             0.00724105066            0.000312839837           
       2.868774             0.00745630316            0.000312596159           
       2.871415             0.00634162414            0.000291138327           
       2.874055             0.00652186294            0.000296709131           
       2.876696              0.0062955178            0.000288889955           
       2.879336             0.00663672772            0.000298584358           
       2.881976             0.00752815961            0.000317743647           
       2.884617             0.00647800073            0.000293112043           
       2.887257             0.00657253977            0.000293184528           
       2.889897             0.00680821215            0.000301814836           
       2.892538             0.00671388222            0.000297638595           
       2.895178             0.00638453255            0.000287286612           
       2.897819             0.00663231296            0.000295819784           
       2.900459             0.00697419837            0.000300836914           
       2.903099             0.00729237206            0.000309228925           
       2.905740             0.00649843753            0.000288652382           
       2.908380             0.00698097511            0.000303165628           
       2.911021             0.00674819237            0.000298634826           
       2.913661             0.00647098916            0.000289218615           
       2.916301             0.00703148731            0.000305773054           
       2.918942              0.0071386942            0.000303447227           
       2.921582             0.00683811304            0.000300105997           
       2.924222             0.00733464897            0.000309008119           
       2.926863             0.00682163166            0.000298797115           
       2.929503             0.00755471484            0.000317933155           
       2.932144             0.00735705411            0.000308600653           
       2.934784              0.0073658082            0.000310096463           
       2.937424             0.00664207536            0.000295012923           
       2.940065             0.00715499566            0.000306441195           
       2.942705             0.00669545839             0.00029733788           
       2.945346             0.00753738155            0.000313615548           
       2.947986             0.00835676946            0.000331377202           
       2.950626             0.00910794219            0.000347013876           
       2.953267              0.0105187167            0.000368960373           
       2.955907              0.0084914649            0.000335887469           
       2.958547             0.00749914024            0.000312415144           
       2.961188             0.00704807461            0.000305517745           
       2.963828             0.00621334264             0.00028523031           
       2.966469             0.00714314728            0.000305904579           
       2.969109             0.00721504481            0.000309012571           
       2.971749             0.00946815656            0.000352947464           
       2.974390              0.0095415114            0.000355284299           
       2.977030             0.00884273194            0.000341376283           
       2.979670             0.00784510643            0.000319470312           
       2.982311             0.00668952438             0.00029713356           
       2.984951             0.00722018704            0.000309492256           
       2.987592             0.00804692251            0.000325628303           
       2.990232             0.00687370596            0.000301724293           
       2.992872             0.00886273901            0.000339928537           
       2.995513              0.0100651424            0.000365099887           
       2.998153              0.0158410709            0.000460985104           
       3.000794              0.0257382622            0.000579052793           
       3.003434               0.027221542            0.000601818765           
       3.006074              0.0175300313             0.00048450483           
       3.008715              0.0143354579            0.000441475947           
       3.011355              0.0171142135            0.000487385863           
       3.013995              0.0157101067            0.000464681113           
       3.016636              0.0293985966            0.000636857515           
       3.019276               0.197697337             0.00169096977           
       3.021917               0.400631495             0.00236635115           
       3.024557               0.145066767             0.00143530442           
       3.027197              0.0756351309             0.00105378128           
       3.029838               0.157279107             0.00151231574           
       3.032478              0.0964390368             0.00119129899           
       3.035118              0.0753804183             0.00105865235           
       3.037759              0.0814957596             0.00110269604           
       3.040399              0.0692957758             0.00102844949           
       3.043040              0.0672493005             0.00102298965           
       3.045680              0.0513212586            0.000879904161           
       3.048320               0.068656532             0.00103404955           
       3.050961              0.0396769556            0.000793967561           
       3.053601              0.0655184534             0.00101575869           
       3.056242              0.0926242492             0.00121549118           
       3.058882              0.0750870188             0.00111066934           
       3.061522               0.236901473             0.00195914587           
       3.064163              0.0817347822             0.00115285817           
       3.066803              0.0259985544            0.000662773055           
       3.069443              0.0231243401            0.000620901576           
       3.072084                 0.0485627            0.000907796236           
       3.074724              0.0687873975             0.00108679679           
       3.077365              0.0139079073            0.000488330394           
       3.080005             0.00886131407            0.000394113611           
       3.082645             0.00854820035            0.000389058928           
       3.085286              0.0084512531            0.000386916986           
       3.087926             0.00752163463            0.000367339647           
       3.090566             0.00738962685            0.000367852381           
       3.093207             0.00742593717            0.000364770945           
       3.095847             0.00682566756            0.000357047821           
       3.098488              0.0084938064            0.000397572935           
       3.101128              0.0083495538            0.000396329697           
       3.103768             0.00726423185            0.000371757447           
       3.106409             0.00888721002              0.0004139489           
       3.109049             0.00896898378            0.000419081728           
       3.111690              0.0126783279            0.000496300516           
       3.114330              0.0206015506            0.000638279416           
       3.116970              0.0179223666               0.000603613           
       3.119611              0.0136939403            0.000524191537           
       3.122251             0.00991034804            0.000449585675           
       3.124891             0.00792652321            0.000404029138           
       3.127532             0.00771439581            0.000405766274           
       3.130172              0.0103257003            0.000459787784           
       3.132813             0.00764971205             0.00040380381           
       3.135453             0.00793506014            0.000419941542           
       3.138093             0.00698883317            0.000384757625           
       3.140734               0.006344936             0.00037342801           
       3.143374             0.00669081256            0.000389333163           
       3.146014             0.00610997647            0.000369349649           
       3.148655             0.00622203773            0.000375655826           
       3.151295             0.00711213976            0.000404806948           
       3.153936             0.00653405151            0.000393734562           
       3.156576             0.00684820896            0.000398461594           
       3.159216             0.00644359634            0.000389672439           
       3.161857             0.00729128255            0.000419597309           
       3.164497             0.00633428911            0.000399338979           
       3.167138             0.00622380441            0.000386344099           
       3.169778             0.00541149864            0.000366755925           
       3.172418             0.00569708283            0.000378507936           
       3.175059             0.00546261289            0.000375487605           
       3.177699             0.00611731211            0.000395782822           
       3.180339             0.00588675369            0.000391723162           
       3.182980              0.0063605252             0.00041267816           
       3.185620             0.00530245275            0.000380910977           
       3.188261             0.00553979253            0.000384241599           
       3.190901             0.00556753721            0.000391138158           
       3.193541             0.00563708684            0.000394870525           
       3.196182             0.00647912298              0.0004321444           
       3.198822             0.00600846504            0.000411107739           
       3.201463             0.00622314304            0.000423798033           
       3.204103             0.00613131723            0.000426261324           
       3.206743             0.00579477344            0.000417901225           
       3.209384             0.00487095867            0.000381436561           
       3.212024             0.00612046911            0.000429089137           
       3.214664             0.00612410542            0.000437397594           
       3.217305             0.00600912901            0.000443380631           
       3.219945             0.00514435723            0.000406808162           
       3.222586             0.00565343703            0.000428875504           
       3.225226             0.00537651048            0.000427661909           
       3.227866             0.00538525888            0.000431320877           
       3.230507             0.00569612004            0.000448888446           
       3.233147             0.00600495158            0.000454079546           
       3.235787              0.0056956212            0.000442349733           
       3.238428              0.0061619808            0.000468229312           
       3.241068             0.00585288326            0.000465587958           
       3.243709             0.00572578006            0.000457948776           
       3.246349             0.00577501002            0.000457340037           
       3.248989             0.00534605697            0.000450085018           
       3.251630             0.00614028375            0.000484494825           
       3.254270              0.0062714727            0.000504694157           
       3.256911             0.00517615097            0.000447019727           
       3.259551             0.00520349993            0.000458103106           
       3.262191             0.00541961044            0.000471820353           
       3.264832              0.0060608475            0.000503634324           
       3.267472             0.00602534701            0.000509278508           
       3.270112             0.00607289435            0.000512739471           
       3.272753             0.00532578543            0.000486066057           
       3.275393             0.00627777765            0.000530439828           
       3.278034              0.0046827888            0.000467459045           
       3.280674             0.00417585328            0.000442713239           
       3.283314             0.00493334801            0.000483853466           
       3.285955             0.00548115272            0.000519589847           
       3.288595              0.0055450281            0.000528438895           
       3.291235             0.00480072355            0.000494583883           
       3.293876             0.00664056428            0.000585130905           
       3.296516             0.00512050923            0.000524295393           
       3.299157              0.0047792794            0.000514180583           
       3.301797             0.00577918934            0.000565656058           
       3.304437              0.0053058444             0.00055215569           
       3.307078             0.00645661963            0.000615014736           
       3.309718               0.005699159             0.00058358219           
       3.312359             0.00602945975            0.000612383624           
       3.314999              0.0065453621            0.000644738254           
       3.317639             0.00592245496            0.000619896179           
       3.320280             0.00674844655            0.000671376528           
       3.322920             0.00574737916             0.00062885263           
       3.325560             0.00466837663            0.000577700922           
       3.328201             0.00478492125            0.000587339909           
       3.330841             0.00526593222            0.000631140053           
       3.333482             0.00513171251            0.000630955643           
       3.336122             0.00512773807            0.000644419502           
       3.338762             0.00565219759            0.000682760806           
       3.341403              0.0065780793            0.000743395314           
       3.344043             0.00482563691            0.000661020486           
       3.346683             0.00604253921             0.00074718816           
       3.349324             0.00444027854            0.000650424276           
       3.351964             0.00461446934            0.000684375859           
       3.354605             0.00546518705            0.000753228188           
       3.357245             0.00672954285            0.000865206889           
       3.359885             0.00620724297            0.000831251863           
       3.362526             0.00556359797            0.000827214311           
       3.365166             0.00484887114            0.000762720156           
       3.367807             0.00584934325            0.000896748938           
       3.370447             0.00792366775              0.0010441161           
       3.373087             0.00604607211            0.000962584266           
       3.375728             0.00597504314            0.000949679791           
       3.378368             0.00574846027              0.0010065545           
       3.381008             0.00618719182             0.00103515385           
       3.383649             0.00459728153            0.000965666676           
       3.386289             0.00421815958            0.000925373949           
       3.388930             0.00531016755             0.00114027576           
       3.391570             0.00529094863             0.00113868767           
       3.394210             0.00828272094              0.0015265382           
       3.396851             0.00542212148             0.00133791605           
       3.399491             0.00599252993             0.00143205854           
       3.402131             0.00745222215             0.00189036802           
       3.404772             0.00418068354             0.00141648899           
       3.407412             0.00776081611              0.0023948094           
       3.410053             0.00762337769             0.00247148379           
       3.412693             0.00152152242             0.00156214109           
       3.415333             0.00443488268             0.00326771647           
