################################################################################
# EDF_DataBlockID                     0.Image.Psd
# EDF_BinarySize                      2105344
# EDF_HeaderSize                      2560
# ByteOrder                           LowByteFirst
# DataType                            FloatValue
# Dim_1                               512
# Dim_2                               1028
# Image                               0
# HeaderID                            EH:000000:000000:000000
# Size                                2105344
# Center_1                            304.9000
# Center_2                            588.7000
# Comment                             Xenocs_Cell_Window - front_window_open_only
# DDummy                              0.6
# Date                                2025-10-18T20:58:51
# Delta                               21.910000
# Dummy                               -1.5
# ExposureTime                        360
# Gamma                               15.360000
# Intensity1                          8.98511e-10
# PSize_1                             7.5e-05
# PSize_2                             7.5e-05
# Pressure                            0.0332613
# SampleDistance                      0.115750
# SampleEnvKind                       large
# SampleEnvPN                         ElectroChemical cell
# SampleEnvSN                         1141
# Thickness                           0
# Wavelength                          1.541891e-10
# Wavelength                          1.54189e-10
# aux                                 0
# aux_dial                            0.002375
# beamx                               588.429
# beamx_dial                          588.429
# beamz                               657.855
# beamz_dial                          657.855
# det0x                               -0.000396875
# det0x_dial                          6.36905
# det0xvd                             -0.0005
# det0xvd_dial                        -0.0005
# det0y                               450.002
# det0y_dial                          481.635
# det0z                               0
# det0z_dial                          1.2295
# det0zvd                             0
# det0zvd_dial                        0
# mag                                 1.818
# mag_dial                            1.818
# om                                  0.2499
# om_dial                             -0.610199
# phi                                 -0.0120535
# phi_dial                            0
# ry                                  0.599993
# ry_dial                             0.599993
# s1bot                               0.8
# s1bot_dial                          -1.66094
# s1hl                                0.8
# s1hl_dial                           -0.608437
# s1hr                                0.8
# s1hr_dial                           0.970938
# s1top                               0.8
# s1top_dial                          -0.461562
# s2bot                               0.45
# s2bot_dial                          1.36109
# s2hl                                0.45
# s2hl_dial                           -0.83375
# s2hr                                0.45
# s2hr_dial                           -0.118594
# s2top                               0.45
# s2top_dial                          1.44734
# w2theta                             32
# w2theta_dial                        32
# waxsch                              19.2605
# waxsch_dial                         -32.7238
# waxsh                               137.085
# waxsh_dial                          -43.5335
# waxsth                              26.0607
# waxsth_dial                         -19.4068
# waxsz                               67.0407
# waxsz_dial                          -23.7962
# wind                                65.9854
# wind_dial                           66.0041
# wpsi                                124
# wpsi_dial                           124
# wstod                               115
# wstod_dial                          115
# x                                   0
# x_dial                              1.00969
# z                                   0
# z_dial                              13.3172
# CountCutoff                         6807993
# DetectorModel                       Dectris EIGER2 Si 500K, S/N E-01-0554
# ThresholdSetting                    4023.88989258
# Saturation                          0
# FlatField                           Corrected
# BackgroundReductionExtra            0.02
# BackgroundCorrectionConstant        0.0026712
# Detector                            0
# Monitor                             0
# Pil_Roi0                            0
# SumForIntensity1                    3.23464e+08
# TransmittedFlux                     898511
# det                                 0
# mon                                 0
# pilai0                              3.23464e+08
# pilai1                              704535
# pilct0                              5.60038e+08
# pilct1                              704535
# pilroi0                             0
# pilroi1                             0
# sec                                 1
# title                               20251017__1_00244.edf
# usaxs0                              0
# Operation                           Azimuthal average I(q)
# Error_model                         ErrorModel.poisson
# Geometrical_correction              True
# Transmission_correction             True
# Thickness_correction                False
# Binning mode                        Uniform
# Binning factor                      1.0
# Psi                                 0.0
# Omega                               0.2499
# MaskInvalidPixels                   True
# DetectorEdge                        3
# MaskFiles                           ['20251017__1_00233_mask.edf']
################################################################################
    q(A⁻¹)                Intensity(a.u.)            Sigma_I(a.u.)            
       0.690460           -2.26043912e-05                         0           
       0.693100                0.00471567             0.00282424681           
       0.695741             0.00575872057             0.00263669605           
       0.698381             0.00604398179             0.00252641566           
       0.701021               0.010219133             0.00268111303           
       0.703662             0.00822637145             0.00222666352           
       0.706302             0.00551522147             0.00176079082           
       0.708942             0.00558314874             0.00157365604           
       0.711583              0.0095717856             0.00206009453           
       0.714223             0.00525318056             0.00132992165           
       0.716864             0.00583343305             0.00143010758           
       0.719504             0.00472026761             0.00119060246           
       0.722144             0.00688962104             0.00138920656           
       0.724785             0.00590352274             0.00126487522           
       0.727425             0.00715215539             0.00129136318           
       0.730065             0.00608880763             0.00122599194           
       0.732706             0.00886000417             0.00132989177           
       0.735346             0.00713810494             0.00128938656           
       0.737987             0.00655880012             0.00106977346           
       0.740627             0.00853087492             0.00133654691           
       0.743267              0.0086132521             0.00115519826           
       0.745908             0.00760859858             0.00116361265           
       0.748548             0.00721045839             0.00105649572           
       0.751189             0.00615843133            0.000967186842           
       0.753829             0.00661974107             0.00101180293           
       0.756469             0.00636533219            0.000933181242           
       0.759110             0.00752379779             0.00104939167           
       0.761750             0.00717166145            0.000937663748           
       0.764390             0.00686988712            0.000985126052           
       0.767031             0.00674169726            0.000883068676           
       0.769671             0.00905543708             0.00108539727           
       0.772312             0.00655412397            0.000841467919           
       0.774952             0.00624258285            0.000880397311           
       0.777592             0.00630389049             0.00080920016           
       0.780233             0.00780929855            0.000949477096           
       0.782873             0.00717231348            0.000832083453           
       0.785513             0.00651585834            0.000843660021           
       0.788154             0.00640910537            0.000768538076           
       0.790794             0.00538199808            0.000728897983           
       0.793435             0.00525576976            0.000691840653           
       0.796075             0.00704289186            0.000805103862           
       0.798715             0.00577704336            0.000725008013           
       0.801356             0.00665875356            0.000757540109           
       0.803996              0.0076056641             0.00082255153           
       0.806637             0.00663609969            0.000726280047           
       0.809277             0.00718646831            0.000790687384           
       0.811917             0.00587961701             0.00067677781           
       0.814558             0.00747343935            0.000781657685           
       0.817198             0.00635349736            0.000687201107           
       0.819838              0.0066560034            0.000733690802           
       0.822479             0.00641594783            0.000663830975           
       0.825119             0.00675887295            0.000731934771           
       0.827760             0.00628965346            0.000654247612           
       0.830400             0.00614356827            0.000681280362           
       0.833040             0.00864082714            0.000754062642           
       0.835681             0.00660634349            0.000690471018           
       0.838321             0.00832066238            0.000725288945           
       0.840961             0.00741439119            0.000715628089           
       0.843602             0.00613568796            0.000613216563           
       0.846242             0.00725707216             0.00069044947           
       0.848883             0.00766307966            0.000690184856           
       0.851523             0.00779332302            0.000701241624           
       0.854163             0.00619307287            0.000617851948           
       0.856804             0.00796858191            0.000682912236           
       0.859444              0.0069680026            0.000643190853           
       0.862085             0.00698635183            0.000634668757           
       0.864725             0.00682220554            0.000624866024           
       0.867365              0.0067250097             0.00061595586           
       0.870006             0.00721608366            0.000646950977           
       0.872646             0.00647035404            0.000585949455           
       0.875286             0.00702847929             0.00063150688           
       0.877927              0.0079103081            0.000641452078           
       0.880567             0.00758193802             0.00064026548           
       0.883208             0.00608487524            0.000557017302           
       0.885848             0.00699196094            0.000612578076           
       0.888488             0.00705616923            0.000585119993           
       0.891129             0.00805415324            0.000657123466           
       0.893769             0.00638798346            0.000553178011           
       0.896410             0.00647328955            0.000574012529           
       0.899050             0.00645718555            0.000552771648           
       0.901690             0.00666010077            0.000573108076           
       0.904331             0.00660921678            0.000550982297           
       0.906971             0.00638684743            0.000559288937           
       0.909611             0.00703726663            0.000563495086           
       0.912252             0.00795169125            0.000609366996           
       0.914892             0.00687072017            0.000552088165           
       0.917533             0.00630441255            0.000540779388           
       0.920173             0.00760883569             0.00056988618           
       0.922813              0.0086289997            0.000634209814           
       0.925454             0.00725867901             0.00055204563           
       0.928094             0.00713831444             0.00055920031           
       0.930734             0.00693043562            0.000537847818           
       0.933375             0.00711201404            0.000556462831           
       0.936015             0.00669277191            0.000516501531           
       0.938656             0.00659433872            0.000534194323           
       0.941296             0.00856493878            0.000586882925           
       0.943936             0.00741843357            0.000556028926           
       0.946577             0.00727348499            0.000530232954           
       0.949217             0.00664897681             0.00052486289           
       0.951858             0.00723127483            0.000517467938           
       0.954498             0.00720990451            0.000543593738           
       0.957138             0.00657882538            0.000499084746           
       0.959779             0.00739771017            0.000540811145           
       0.962419             0.00772881602            0.000532160287           
       0.965059             0.00612644003            0.000487252427           
       0.967700             0.00775765973            0.000530565512           
       0.970340             0.00684097313            0.000512233314           
       0.972981             0.00691054456            0.000497084502           
       0.975621             0.00712419166            0.000515277704           
       0.978261             0.00679769312            0.000480241607           
       0.980902             0.00724589982            0.000519429899           
       0.983542              0.0080115845            0.000530281904           
       0.986182             0.00801053831            0.000537230243           
       0.988823             0.00728905457            0.000495931151           
       0.991463              0.0075405196            0.000516461078           
       0.994104             0.00775816238            0.000506203409           
       0.996744             0.00700793443            0.000496707548           
       0.999384             0.00760510633            0.000499876042           
       1.002025             0.00726660934            0.000502229618           
       1.004665             0.00776654197            0.000497950376           
       1.007306             0.00781024672            0.000516081698           
       1.009946             0.00706871939            0.000472084756           
       1.012586             0.00750571309            0.000500451473           
       1.015227             0.00762719519              0.0004892147           
       1.017867             0.00837055048            0.000527186794           
       1.020507             0.00756371918            0.000482269992           
       1.023148             0.00754899894            0.000487619887           
       1.025788             0.00711238488            0.000468461993           
       1.028429              0.0075110067            0.000491934783           
       1.031069             0.00779134056            0.000482718502           
       1.033709             0.00791378165            0.000495838838           
       1.036350             0.00799099135            0.000485186619           
       1.038990              0.0070208135            0.000466008428           
       1.041630             0.00693427604             0.00045421766           
       1.044271             0.00719342628            0.000462679347           
       1.046911             0.00806216704            0.000480721001           
       1.049552             0.00742359731            0.000477914198           
       1.052192             0.00778024491            0.000467258316           
       1.054832             0.00831646803            0.000492486748           
       1.057473             0.00719660846            0.000452330529           
       1.060113             0.00895546642            0.000510051032           
       1.062754             0.00719423355            0.000452097079           
       1.065394             0.00782084236             0.00046641514           
       1.068034             0.00784724274            0.000465392926           
       1.070675             0.00732236635            0.000457466495           
       1.073315             0.00841206331             0.00047533824           
       1.075955             0.00733490516             0.00045130698           
       1.078596             0.00710811192            0.000443396893           
       1.081236             0.00784352766             0.00045886136           
       1.083877              0.0083033765            0.000486869284           
       1.086517               0.007631552             0.00045619896           
       1.089157             0.00801826697            0.000471043077           
       1.091798             0.00813066844            0.000464283338           
       1.094438             0.00783579676            0.000463030442           
       1.097078             0.00829923557            0.000464280903           
       1.099719              0.0079517635            0.000466105023           
       1.102359             0.00826797033            0.000450243977           
       1.105000             0.00889242113            0.000485326895           
       1.107640             0.00923798539            0.000478542112           
       1.110280             0.00891911533            0.000479625866           
       1.112921             0.00780568182            0.000440572009           
       1.115561             0.00809805216            0.000454442107           
       1.118202             0.00872957221            0.000458057963           
       1.120842             0.00837190059             0.00046270955           
       1.123482             0.00780797626            0.000434319018           
       1.126123             0.00828364317            0.000450144805           
       1.128763             0.00839692385            0.000450964362           
       1.131403             0.00817879065            0.000444376425           
       1.134044             0.00815664727            0.000443004211           
       1.136684             0.00854116989            0.000456732888           
       1.139325             0.00876206267            0.000449567223           
       1.141965             0.00880163949            0.000456474293           
       1.144605             0.00799826952            0.000437699523           
       1.147246             0.00863512394            0.000446178289           
       1.149886             0.00909781145            0.000461232957           
       1.152527             0.00863587932             0.00044982139           
       1.155167             0.00828683096            0.000434441736           
       1.157807             0.00872333186            0.000446043883           
       1.160448             0.00839556766            0.000443571149           
       1.163088               0.008817028            0.000437704179           
       1.165728             0.00755992855            0.000422007473           
       1.168369             0.00873702837            0.000437477348           
       1.171009             0.00891008717            0.000445451581           
       1.173650              0.0080201497            0.000419573129           
       1.176290             0.00882383662            0.000445257631           
       1.178930             0.00923956126            0.000442817648           
       1.181571             0.00851661006              0.0004390264           
       1.184211             0.00875961144            0.000431798519           
       1.186851             0.00811654336            0.000419479138           
       1.189492              0.0084196727            0.000429612968           
       1.192132              0.0086666778            0.000429413799           
       1.194773             0.00945511657            0.000445815386           
       1.197413             0.00921218174            0.000443640513           
       1.200053             0.00826895719            0.000417670903           
       1.202694             0.00858499433            0.000422370658           
       1.205334             0.00864203473            0.000428403961           
       1.207975              0.0100022632            0.000451856704           
       1.210615             0.00893633973            0.000436133385           
       1.213255             0.00940026167            0.000435477153           
       1.215896             0.00955964875            0.000447477711           
       1.218536             0.00871776311            0.000415011923           
       1.221176             0.00922587817            0.000437125567           
       1.223817             0.00987086179            0.000442725589           
       1.226457             0.00953591904            0.000440676496           
       1.229098             0.00869338824            0.000414375477           
       1.231738             0.00908643317             0.00042960478           
       1.234378             0.00952992087            0.000431415237           
       1.237019                 0.0082627            0.000404949397           
       1.239659             0.00953215577            0.000434710659           
       1.242299             0.00964222438            0.000434978096           
       1.244940             0.00945542368            0.000426094456           
       1.247580             0.00921134387            0.000422415912           
       1.250221              0.0103082728            0.000454154531           
       1.252861             0.00996476674            0.000429887556           
       1.255501              0.0101058386            0.000445142954           
       1.258142             0.00965607943            0.000426522318           
       1.260782             0.00984849978            0.000435616714           
       1.263423             0.00926584621            0.000414163203           
       1.266063             0.00965306953            0.000430607741           
       1.268703             0.00976417228            0.000422167285           
       1.271344             0.00981129442            0.000432401724           
       1.273984              0.0103024892            0.000436176444           
       1.276624              0.0092680557            0.000411175753           
       1.279265              0.0101422157            0.000431068978           
       1.281905             0.00991518426            0.000428844097           
       1.284546              0.0100380536             0.00042677923           
       1.287186              0.0107035628            0.000441123023           
       1.289826             0.00969803372             0.00042206922           
       1.292467              0.0105771962            0.000432918135           
       1.295107              0.0100590642            0.000429623141           
       1.297747             0.00970335499            0.000410890822           
       1.300388             0.00974272168            0.000422296214           
       1.303028              0.0108041625            0.000433397092           
       1.305669              0.0104899429            0.000432565759           
       1.308309              0.0103550229            0.000423312849           
       1.310949              0.0100207902            0.000421615412           
       1.313590             0.00998632556            0.000414376148           
       1.316230              0.0106274041            0.000435164325           
       1.318871              0.0102564794            0.000418279931           
       1.321511             0.00949045726            0.000404373225           
       1.324151               0.010444096            0.000425879719           
       1.326792              0.0108065215             0.00042969682           
       1.329432             0.00981395297            0.000411623997           
       1.332072               0.010840491            0.000425198276           
       1.334713              0.0105078318            0.000423815189           
       1.337353              0.0105680186            0.000418489308           
       1.339994              0.0106090269            0.000425272809           
       1.342634              0.0105570081            0.000414678489           
       1.345274              0.0113247206             0.00043510662           
       1.347915              0.0114115137            0.000437931956           
       1.350555              0.0109411624            0.000427136536           
       1.353195              0.0107948444            0.000416154367           
       1.355836               0.010875993            0.000425597037           
       1.358476              0.0102302713            0.000411608702           
       1.361117              0.0104724475            0.000406005026           
       1.363757              0.0109928565             0.00042975612           
       1.366397              0.0110827665            0.000418072436           
       1.369038              0.0104544593             0.00041460716           
       1.371678              0.0100182595            0.000397670216           
       1.374319              0.0110098347            0.000420192384           
       1.376959              0.0108461477             0.00041131552           
       1.379599              0.0104932545            0.000412454698           
       1.382240              0.0103740084            0.000402315068           
       1.384880              0.0107835998            0.000415216559           
       1.387520              0.0108033876            0.000410738251           
       1.390161              0.0116101039            0.000424640313           
       1.392801              0.0103672787            0.000403660588           
       1.395442              0.0104330047            0.000400742397           
       1.398082              0.0100495627            0.000394655205           
       1.400722              0.0103175943            0.000398076983           
       1.403363              0.0103104063            0.000401631081           
       1.406003              0.0109685275            0.000404079022           
       1.408644              0.0104984492            0.000403624748           
       1.411284              0.0105210743            0.000401843503           
       1.413924              0.0100594547            0.000388082784           
       1.416565              0.0105686155            0.000397315378           
       1.419205              0.0101112066            0.000392450515           
       1.421845              0.0108651172             0.00040170401           
       1.424486              0.0113551486            0.000412475774           
       1.427126              0.0104480729            0.000395408529           
       1.429767              0.0107499486            0.000394899526           
       1.432407               0.010350066            0.000397246372           
       1.435047               0.010307232            0.000384510745           
       1.437688             0.00973780386            0.000382015008           
       1.440328              0.0107103068            0.000392872995           
       1.442968              0.0102419106            0.000389504426           
       1.445609               0.010325368            0.000384655521           
       1.448249              0.0104916416            0.000390247359           
       1.450890              0.0104876668            0.000387390115           
       1.453530              0.0110511413            0.000400606211           
       1.456170              0.0105958354            0.000391383811           
       1.458811             0.00967105861            0.000370939678           
       1.461451              0.0101832082            0.000383432896           
       1.464092             0.00991767952             0.00037510245           
       1.466732              0.0109113507            0.000391031866           
       1.469372              0.0104731816            0.000381922441           
       1.472013              0.0111384124            0.000400911712           
       1.474653              0.0102101043            0.000374364004           
       1.477293              0.0108077894            0.000391648768           
       1.479934              0.0108630348            0.000388538835           
       1.482574              0.0105511737            0.000381976008           
       1.485215              0.0102682096            0.000377789539           
       1.487855              0.0101653159            0.000375814281           
       1.490495              0.0101888996            0.000375440155           
       1.493136             0.00993888866             0.00036594256           
       1.495776              0.0104453304            0.000381690731           
       1.498416               0.010107699            0.000368176895           
       1.501057              0.0104488513            0.000377558441           
       1.503697               0.010793019            0.000380036723           
       1.506338             0.00951638259            0.000359477897           
       1.508978             0.00957890884            0.000358527475           
       1.511618             0.00980739725            0.000362594965           
       1.514259              0.0102823413             0.00037194142           
       1.516899              0.0101297278            0.000369342788           
       1.519540             0.00934596509            0.000352797929           
       1.522180              0.0101188865            0.000362512138           
       1.524820             0.00962645287            0.000360722813           
       1.527461              0.0101947389            0.000363005533           
       1.530101               0.010156383            0.000366068176           
       1.532741              0.0102128299            0.000365344837           
       1.535382             0.00987831844            0.000360103051           
       1.538022             0.00908132586             0.00034221605           
       1.540663             0.00956182058            0.000354471467           
       1.543303             0.00986972141            0.000355651823           
       1.545943              0.0095789918             0.00035233812           
       1.548584              0.0098836654             0.00035980339           
       1.551224             0.00937978515             0.00034152572           
       1.553864             0.00970825751            0.000356530926           
       1.556505              0.0102350636            0.000360445133           
       1.559145             0.00994751275            0.000356167254           
       1.561786             0.00959944295            0.000348295461           
       1.564426             0.00958169009            0.000347658944           
       1.567066              0.0101602125            0.000355206351           
       1.569707             0.00935863909            0.000345842274           
       1.572347              0.0095616596            0.000345037952           
       1.574988             0.00934109862            0.000339686053           
       1.577628             0.00962628978            0.000352596341           
       1.580268             0.00985869542            0.000344513251           
       1.582909             0.00944272239            0.000343473201           
       1.585549             0.00918310965            0.000335553235           
       1.588189             0.00935412085             0.00034244575           
       1.590830             0.00920189722            0.000333817671           
       1.593470             0.00934057081            0.000339070114           
       1.596111             0.00868861244            0.000324197068           
       1.598751             0.00881681016            0.000329918569           
       1.601391             0.00893110248            0.000329927071           
       1.604032             0.00918435856            0.000331778221           
       1.606672              0.0091569555            0.000337950549           
       1.609312             0.00891019194             0.00032344651           
       1.611953             0.00871867581            0.000324588392           
       1.614593             0.00904509488            0.000328094185           
       1.617234             0.00784899415            0.000307364545           
       1.619874             0.00841503905            0.000314510684           
       1.622514             0.00872136105            0.000323015637           
       1.625155             0.00829921583            0.000314321859           
       1.627795             0.00812063458            0.000307779793           
       1.630436             0.00873816379            0.000322476962           
       1.633076              0.0082659771            0.000312049563           
       1.635716             0.00904269816            0.000325812304           
       1.638357             0.00863766879            0.000317079101           
       1.640997              0.0090869021             0.00032776336           
       1.643637             0.00899789833            0.000320097864           
       1.646278              0.0083017129            0.000312067542           
       1.648918             0.00853023963            0.000312255437           
       1.651559             0.00884806051            0.000322017793           
       1.654199             0.00881465603            0.000317003701           
       1.656839             0.00847705022            0.000310790029           
       1.659480             0.00839609691            0.000312026593           
       1.662120              0.0087665052            0.000314562601           
       1.664761             0.00812124901            0.000306042793           
       1.667401             0.00859626422            0.000311932642           
       1.670041             0.00840799375            0.000308850883           
       1.672682             0.00865089301            0.000310332412           
       1.675322             0.00803380365            0.000304346922           
       1.677962             0.00886451189            0.000313345765           
       1.680603             0.00808577011            0.000301921784           
       1.683243              0.0084825528            0.000306953301           
       1.685884             0.00865389142            0.000311217673           
       1.688524             0.00840130279            0.000305779414           
       1.691164             0.00804798575            0.000298511335           
       1.693805              0.0085311148            0.000309826081           
       1.696445              0.0087212998            0.000308912682           
       1.699085             0.00773659081             0.00029211265           
       1.701726             0.00797517342            0.000292724759           
       1.704366             0.00788311254            0.000298111753           
       1.707007              0.0084159702            0.000301449414           
       1.709647             0.00815400565            0.000300407477           
       1.712287             0.00867647575            0.000304703664           
       1.714928             0.00815639987            0.000298401098           
       1.717568             0.00868025024            0.000305003769           
       1.720209             0.00805906604            0.000295702511           
       1.722849             0.00835508217            0.000301566989           
       1.725489              0.0082090866            0.000294156157           
       1.728130             0.00826721063            0.000301204964           
       1.730770             0.00828783782             0.00029520582           
       1.733410              0.0080582183            0.000294908969           
       1.736051             0.00828519914            0.000294391994           
       1.738691             0.00841820983            0.000299774599           
       1.741332             0.00863085797            0.000301668695           
       1.743972             0.00788666485            0.000288476876           
       1.746612             0.00832267856            0.000296411995           
       1.749253             0.00792906373            0.000290568127           
       1.751893             0.00843487816            0.000297894877           
       1.754533             0.00836778863            0.000292635551           
       1.757174             0.00828016967             0.00029654201           
       1.759814             0.00862075397            0.000297966328           
       1.762455             0.00848843987            0.000298188022           
       1.765095             0.00852910568            0.000294703887           
       1.767735             0.00838748648            0.000297212941           
       1.770376             0.00790740819            0.000284205351           
       1.773016              0.0079612324            0.000285621038           
       1.775657             0.00815273088            0.000289627939           
       1.778297             0.00868920412             0.00030046805           
       1.780937             0.00826320884            0.000291642832           
       1.783578             0.00780499769            0.000282110472           
       1.786218             0.00913596508            0.000310088444           
       1.788858               0.008073298            0.000284254532           
       1.791499              0.0087433702            0.000301267712           
       1.794139             0.00900369744            0.000300074414           
       1.796780             0.00914746987             0.00030425792           
       1.799420              0.0091036095            0.000303141175           
       1.802060             0.00896812343            0.000297176341           
       1.804701             0.00906831852            0.000302840887           
       1.807341             0.00911836996            0.000300741183           
       1.809981             0.00842789355            0.000291050631           
       1.812622             0.00937880521            0.000305358604           
       1.815262             0.00894327664            0.000299247472           
       1.817903             0.00908621934            0.000297902977           
       1.820543             0.00854458023            0.000292458067           
       1.823183              0.0089281793            0.000294344532           
       1.825824             0.00887377908            0.000297859368           
       1.828464             0.00875435218            0.000294940508           
       1.831105             0.00795268633            0.000282200288           
       1.833745             0.00862367225            0.000293680754           
       1.836385              0.0088049779            0.000295597729           
       1.839026             0.00913461018            0.000305605994           
       1.841666             0.00861464772            0.000292927066           
       1.844306             0.00868539723            0.000297840725           
       1.846947             0.00879826882            0.000295917505           
       1.849587             0.00875207833            0.000299142642           
       1.852228             0.00883357191            0.000297335715           
       1.854868             0.00889193516            0.000303787675           
       1.857508             0.00845741639            0.000290801556           
       1.860149             0.00898091724            0.000302068483           
       1.862789             0.00870878058            0.000298772915           
       1.865429             0.00826725585            0.000291978325           
       1.868070             0.00872416981            0.000298901919           
       1.870710             0.00890090463            0.000302736539           
       1.873351             0.00883549063            0.000303547643           
       1.875991             0.00850276513            0.000299388096           
       1.878631             0.00866585948            0.000299436539           
       1.881272             0.00884358191            0.000301782855           
       1.883912             0.00908085136            0.000309390826           
       1.886553             0.00917432505            0.000307248761           
       1.889193             0.00897210239            0.000307353556           
       1.891833             0.00919342933            0.000307580887           
       1.894474             0.00906981595            0.000307923971           
       1.897114             0.00842866224            0.000294538292           
       1.899754             0.00889360634            0.000305946036           
       1.902395             0.00900810115            0.000307974729           
       1.905035             0.00881520818            0.000303465576           
       1.907676             0.00881315569               0.000303783           
       1.910316             0.00866146769            0.000303077593           
       1.912956             0.00915365636            0.000311557441           
       1.915597              0.0092334968            0.000309650988           
       1.918237             0.00879868116            0.000306860596           
       1.920878             0.00906132235            0.000305895677           
       1.923518             0.00874649659            0.000308519481           
       1.926158             0.00902791852            0.000306240929           
       1.928799             0.00874714429             0.00030544686           
       1.931439              0.0091007374            0.000309062549           
       1.934079             0.00883265864            0.000307559918           
       1.936720             0.00831181613            0.000296598041           
       1.939360             0.00912208952            0.000313713414           
       1.942001             0.00837805751            0.000299490911           
       1.944641             0.00864560609            0.000302924381           
       1.947281             0.00869385683            0.000305236118           
       1.949922             0.00815277035            0.000295954887           
       1.952562             0.00833110912             0.00030174874           
       1.955202             0.00861565295            0.000299148754           
       1.957843             0.00841795794            0.000305090011           
       1.960483             0.00810728959            0.000294631577           
       1.963124              0.0085943792            0.000303128331           
       1.965764             0.00817852668            0.000295809456           
       1.968404             0.00839034549            0.000304973382           
       1.971045              0.0086835066            0.000302478336           
       1.973685              0.0086563632            0.000307641021           
       1.976326             0.00816714299            0.000297518505           
       1.978966             0.00883937278            0.000310985297           
       1.981606             0.00824046282            0.000297089681           
       1.984247             0.00812153581            0.000297509846           
       1.986887             0.00870305804            0.000310857257           
       1.989527             0.00823703543            0.000296119581           
       1.992168             0.00810778874            0.000300875407           
       1.994808             0.00820594992            0.000299170518           
       1.997449             0.00742031923             0.00028407192           
       2.000089              0.0082178422            0.000297187868           
       2.002729              0.0081179883            0.000302145194           
       2.005370               0.007637563            0.000287497257           
       2.008010             0.00762595171            0.000291092737           
       2.010650             0.00773435871            0.000292315829           
       2.013291             0.00810909288            0.000301017174           
       2.015931             0.00799991276            0.000296844008           
       2.018572             0.00808462502             0.00030237477           
       2.021212             0.00803606195             0.00029875968           
       2.023852             0.00769373637            0.000293862702           
       2.026493             0.00800975836             0.00029852322           
       2.029133              0.0079108587            0.000294411336           
       2.031774             0.00781842378            0.000295524622           
       2.034414             0.00768951003            0.000291329085           
       2.037054              0.0075116679            0.000291571173           
       2.039695             0.00790078262            0.000293137653           
       2.042335             0.00783452647            0.000296874583           
       2.044975             0.00814215342            0.000300228142           
       2.047616             0.00792382281            0.000297444633           
       2.050256             0.00770483636            0.000289855537           
       2.052897             0.00786032585            0.000301436539           
       2.055537             0.00743857424            0.000285243338           
       2.058177             0.00694776961            0.000278107537           
       2.060818             0.00730763954            0.000286075375           
       2.063458             0.00744331024            0.000289116404           
       2.066098             0.00762392994            0.000291304728           
       2.068739             0.00774011396            0.000296576384           
       2.071379             0.00747911404            0.000287227897           
       2.074020             0.00766298419            0.000294718445           
       2.076660             0.00819955643            0.000302795665           
       2.079300             0.00714989212             0.00028271008           
       2.081941              0.0076462097            0.000294135158           
       2.084581             0.00757771615            0.000293031685           
       2.087222             0.00785088938            0.000298469942           
       2.089862              0.0075243316            0.000288554644           
       2.092502             0.00707399751            0.000284870077           
       2.095143             0.00734918274            0.000286208313           
       2.097783             0.00760569773            0.000295590893           
       2.100423             0.00791013899            0.000295668651           
       2.103064             0.00741193855            0.000291147825           
       2.105704             0.00722505006            0.000286354124           
       2.108345             0.00739485649            0.000291029601           
       2.110985             0.00778033109            0.000294325583           
       2.113625             0.00748603477            0.000293254151           
       2.116266             0.00774803682            0.000296133615           
       2.118906             0.00785844634            0.000298019256           
       2.121546             0.00744239399            0.000289792634           
       2.124187             0.00709054087            0.000286771865           
       2.126827             0.00733488299            0.000287096907           
       2.129468             0.00736114776            0.000290611874           
       2.132108             0.00700919687            0.000282992627           
       2.134748             0.00708696429              0.0002834858           
       2.137389             0.00792869434            0.000302360022           
       2.140029             0.00711818812            0.000285793481           
       2.142670             0.00755163702            0.000294847322           
       2.145310             0.00748196205            0.000294605222           
       2.147950             0.00734163077            0.000292957509           
       2.150591             0.00746403621            0.000292680633           
       2.153231             0.00752033262            0.000298125671           
       2.155871             0.00714214635            0.000286336894           
       2.158512             0.00724696101            0.000293627611           
       2.161152             0.00743365029            0.000289956998           
       2.163793             0.00750036329             0.00029599432           
       2.166433             0.00759289986            0.000292650263           
       2.169073             0.00736926843            0.000295039714           
       2.171714             0.00727498494            0.000287178203           
       2.174354             0.00791471655            0.000304116066           
       2.176995             0.00780599532            0.000299514779           
       2.179635              0.0075142045              0.0002994249           
       2.182275             0.00731903801            0.000289644698           
       2.184916             0.00703402647            0.000289950382           
       2.187556             0.00718949649            0.000288417946           
       2.190196             0.00747851962            0.000298781681           
       2.192837             0.00705165936            0.000286952366           
       2.195477             0.00771018986            0.000302946467           
       2.198118             0.00711044776            0.000285554526           
       2.200758             0.00721844164             0.00029218287           
       2.203398             0.00772992676            0.000297343346           
       2.206039             0.00710245651            0.000289376151           
       2.208679             0.00742353834            0.000292948778           
       2.211319             0.00708247026            0.000287486865           
       2.213960             0.00774950943            0.000297522906           
       2.216600             0.00704414907            0.000290343123           
       2.219241             0.00771225072            0.000299383296           
       2.221881             0.00738292198            0.000294448273           
       2.224521             0.00763575105            0.000298408913           
       2.227162             0.00700427635            0.000290292586           
       2.229802             0.00680063675            0.000281398396           
       2.232443             0.00755402729             0.00029774202           
       2.235083             0.00777841599            0.000300320125           
       2.237723             0.00746370431            0.000296436434           
       2.240364             0.00793221038            0.000304044285           
       2.243004             0.00698728931            0.000286222757           
       2.245644             0.00785718376            0.000302816268           
       2.248285             0.00767770774            0.000301280956           
       2.250925              0.0073233989            0.000292871177           
       2.253566             0.00722770698            0.000291662905           
       2.256206             0.00697369236            0.000285633707           
       2.258846             0.00729040169            0.000292050306           
       2.261487             0.00724840537            0.000291711665           
       2.264127             0.00662725102            0.000281571787           
       2.266767             0.00720902655            0.000288924191           
       2.269408             0.00691925177            0.000286419646           
       2.272048             0.00743651927            0.000295106204           
       2.274689             0.00667189032            0.000280622412           
       2.277329             0.00703270821            0.000287727737           
       2.279969             0.00668493668            0.000281373643           
       2.282610             0.00688415613            0.000282750951           
       2.285250             0.00701845372            0.000289985758           
       2.287891             0.00720661851            0.000290882067           
       2.290531             0.00727051033            0.000293609437           
       2.293171             0.00713559743            0.000290858206           
       2.295812             0.00697200633            0.000285978807           
       2.298452             0.00795752152            0.000307479765           
       2.301092             0.00681201702            0.000286296141           
       2.303733             0.00736216516            0.000291745524           
       2.306373             0.00749927102            0.000301651568           
       2.309014              0.0072710317               0.000291302           
       2.311654              0.0069660193            0.000287832618           
       2.314294             0.00731874922            0.000294385859           
       2.316935             0.00660553219            0.000280779563           
       2.319575             0.00716808669            0.000291396206           
       2.322215             0.00662638231             0.00028416163           
       2.324856             0.00736358883            0.000292029358           
       2.327496             0.00685162132            0.000288598252           
       2.330137             0.00755012218            0.000297364937           
       2.332777             0.00741662494            0.000297947742           
       2.335417             0.00689103117            0.000286334256           
       2.338058             0.00725885253            0.000295052908           
       2.340698             0.00762914012            0.000299506688           
       2.343339             0.00691428799            0.000290570761           
       2.345979             0.00743601406            0.000295321063           
       2.348619             0.00712552791            0.000294549235           
       2.351260              0.0066817829            0.000279167036           
       2.353900              0.0071558483            0.000295020295           
       2.356540              0.0072953941            0.000293786135           
       2.359181             0.00741233332            0.000300091263           
       2.361821              0.0071170607            0.000290470573           
       2.364462             0.00701292193            0.000293156561           
       2.367102             0.00713826435            0.000287211942           
       2.369742             0.00665113057            0.000287174105           
       2.372383              0.0069468111            0.000284932516           
       2.375023             0.00741191457            0.000301984578           
       2.377663             0.00693082244            0.000285813982           
       2.380304             0.00692777545             0.00028971501           
       2.382944             0.00637965839            0.000275298631           
       2.385585             0.00737137109            0.000298721078           
       2.388225             0.00711553785            0.000292165484           
       2.390865             0.00698254982            0.000290163477           
       2.393506             0.00681827962            0.000285408612           
       2.396146             0.00763687935            0.000303057282           
       2.398787              0.0074108634            0.000298800193           
       2.401427             0.00698516028            0.000288329843           
       2.404067             0.00692612978            0.000291491095           
       2.406708             0.00676490252            0.000284457573           
       2.409348             0.00714677463            0.000294575499           
       2.411988             0.00701131759            0.000290838669           
       2.414629             0.00687065167            0.000288848395           
       2.417269             0.00668565104            0.000282345463           
       2.419910             0.00719499052            0.000296596909           
       2.422550             0.00661360455            0.000280044838           
       2.425190              0.0072821726            0.000303111086           
       2.427831             0.00692228136            0.000284411817           
       2.430471             0.00693670556            0.000293030401           
       2.433112             0.00679083637            0.000283091706           
       2.435752             0.00718466519            0.000298556533           
       2.438392             0.00704294095            0.000290628778           
       2.441033             0.00660283029            0.000282691153           
       2.443673             0.00682331545            0.000288139673           
       2.446313             0.00747355785            0.000299950057           
       2.448954             0.00674013966            0.000287351762           
       2.451594             0.00714309686            0.000294041748           
       2.454235             0.00722793483              0.0002948624           
       2.456875             0.00743510271            0.000300573067           
       2.459515             0.00745064122            0.000301350919           
       2.462156             0.00770098967            0.000304792613           
       2.464796             0.00741602562            0.000304376172           
       2.467436              0.0077262066            0.000304161969           
       2.470077              0.0078354141            0.000310527845           
       2.472717             0.00769063459            0.000303796127           
       2.475358             0.00806388245            0.000314605213           
       2.477998             0.00739694161            0.000299706872           
       2.480638             0.00671804499            0.000286316263           
       2.483279             0.00762649664            0.000306371829           
       2.485919             0.00741147876            0.000299907357           
       2.488560             0.00738084806            0.000300528397           
       2.491200             0.00712592733            0.000294888092           
       2.493840             0.00702460116            0.000291189942           
       2.496481             0.00674489005            0.000289064898           
       2.499121             0.00712095267             0.00029305943           
       2.501761             0.00761950061            0.000308292212           
       2.504402             0.00656154161            0.000280607075           
       2.507042             0.00657885495            0.000285647798           
       2.509683             0.00785854654            0.000309352518           
       2.512323             0.00709284411            0.000295046149           
       2.514963              0.0140563201            0.000416177337           
       2.517604              0.0330749221            0.000635899462           
       2.520244              0.0275474544            0.000580463243           
       2.522884             0.00827206307            0.000317387526           
       2.525525             0.00878003158            0.000329673264           
       2.528165              0.0152872202            0.000433023978           
       2.530806              0.0175195331            0.000461823103           
       2.533446              0.0115005576            0.000377499393           
       2.536086              0.0126123535            0.000392007681           
       2.538727              0.0145781322            0.000424153223           
       2.541367              0.0118974391            0.000382080568           
       2.544008             0.00758159014             0.00030526436           
       2.546648             0.00734183429            0.000300739943           
       2.549288             0.00769728388            0.000307978279           
       2.551929             0.00707910816            0.000296328069           
       2.554569             0.00757589927            0.000303748182           
       2.557209              0.0073172051            0.000301889971           
       2.559850             0.00648483282             0.00028093284           
       2.562490             0.00735252909            0.000301316016           
       2.565131             0.00694051439            0.000293261218           
       2.567771              0.0074235232            0.000301686549           
       2.570411             0.00704256933            0.000297419528           
       2.573052             0.00675174893            0.000287814559           
       2.575692             0.00682115984            0.000290057615           
       2.578332             0.00684195132            0.000289641189           
       2.580973             0.00722859043            0.000300126408           
       2.583613             0.00639759116            0.000279775607           
       2.586254             0.00729493678             0.00030139611           
       2.588894             0.00677170124             0.00028883705           
       2.591534             0.00693655303            0.000292869375           
       2.594175             0.00666280644            0.000288698409           
       2.596815              0.0076242724            0.000305955483           
       2.599456              0.0069541395             0.00029459106           
       2.602096             0.00621520677            0.000277458074           
       2.604736             0.00684731903            0.000291989594           
       2.607377             0.00676913769            0.000289207658           
       2.610017             0.00708026214            0.000295675964           
       2.612657               0.006872776            0.000293369185           
       2.615298             0.00747521859            0.000302964179           
       2.617938             0.00651049031             0.00028521274           
       2.620579             0.00679518542            0.000289001812           
       2.623219             0.00664711894            0.000290407996           
       2.625859             0.00688981839            0.000290679123           
       2.628500             0.00734099966            0.000304841162           
       2.631140             0.00729544524             0.00029853482           
       2.633780              0.0068944988            0.000293942938           
       2.636421              0.0066313689            0.000285655929           
       2.639061             0.00686345167            0.000294086264           
       2.641702             0.00696176219            0.000293018769           
       2.644342             0.00720737519            0.000300588553           
       2.646982             0.00692550251            0.000294401932           
       2.649623             0.00763046389            0.000310875318           
       2.652263             0.00722350079            0.000300064768           
       2.654904             0.00667165777            0.000289941083           
       2.657544             0.00722781964            0.000299660983           
       2.660184              0.0072004445             0.00029947554           
       2.662825             0.00673070527             0.00029023629           
       2.665465             0.00665125754            0.000289051878           
       2.668105             0.00696229194            0.000295850258           
       2.670746             0.00660884172            0.000285803898           
       2.673386             0.00706347716            0.000299051898           
       2.676027             0.00690703774            0.000293207767           
       2.678667             0.00803605916            0.000317909159           
       2.681307             0.00683137276            0.000290808373           
       2.683948             0.00788680544            0.000315569703           
       2.686588             0.00744484204            0.000303786684           
       2.689229             0.00754123993            0.000308491145           
       2.691869             0.00708579389            0.000296045782           
       2.694509             0.00751216372            0.000309002872           
       2.697150             0.00721431337            0.000297982035           
       2.699790             0.00712376524            0.000302256907           
       2.702430             0.00697847878            0.000293423077           
       2.705071             0.00647238318            0.000286450389           
       2.707711             0.00676681891            0.000289988986           
       2.710352             0.00657908232            0.000287565522           
       2.712992             0.00663474887            0.000289718428           
       2.715632             0.00702335467            0.000296386715           
       2.718273             0.00641136486            0.000284119514           
       2.720913             0.00706888057            0.000298830978           
       2.723553             0.00657863601            0.000287280718           
       2.726194             0.00692542659            0.000296176984           
       2.728834              0.0063148454            0.000280305466           
       2.731475             0.00704443366             0.00029864302           
       2.734115             0.00699914053            0.000295907583           
       2.736755             0.00687596603            0.000295231053           
       2.739396              0.0069049627            0.000294288443           
       2.742036             0.00666663338            0.000291138776           
       2.744677             0.00725320464            0.000304120872           
       2.747317             0.00764489976             0.00031070778           
       2.749957             0.00678751862            0.000294890637           
       2.752598             0.00707475997            0.000301972355           
       2.755238             0.00730502997            0.000306709025           
       2.757878             0.00676429216            0.000294298765           
       2.760519             0.00710030947            0.000298336233           
       2.763159              0.0070047757            0.000301140552           
       2.765800              0.0070269461            0.000296507421           
       2.768440             0.00658148893             0.00029073555           
       2.771080             0.00728319242             0.00030326454           
       2.773721             0.00673102705            0.000295118798           
       2.776361             0.00635297428            0.000283631889           
       2.779001             0.00671209969            0.000294602894           
       2.781642             0.00683108734            0.000295174728           
       2.784282             0.00662602906            0.000290812053           
       2.786923             0.00684338633             0.00029329569           
       2.789563             0.00666714503            0.000290075899           
       2.792203             0.00700518172            0.000299231372           
       2.794844             0.00720159621            0.000302016852           
       2.797484             0.00644620154            0.000286141088           
       2.800125             0.00681994771            0.000293939002           
       2.802765             0.00685794593            0.000300220947           
       2.805405             0.00692326737            0.000297293067           
       2.808046              0.0067716122             0.00029852726           
       2.810686             0.00691587279            0.000298475715           
       2.813326             0.00728173266            0.000310058094           
       2.815967             0.00725204833            0.000307475457           
       2.818607             0.00751866485            0.000316206125           
       2.821248             0.00688104066            0.000298729251           
       2.823888             0.00680403492            0.000301837575           
       2.826528             0.00644875559            0.000292098377           
       2.829169             0.00648696377            0.000291669031           
       2.831809             0.00604023885            0.000281693601           
       2.834449             0.00666446303            0.000290726772           
       2.837090             0.00658129618            0.000290645704           
       2.839730             0.00670730214            0.000291331193           
       2.842371             0.00675441896            0.000294389611           
       2.845011             0.00709560931            0.000301060408           
       2.847651             0.00673718553            0.000293896823           
       2.850292             0.00631519316            0.000282926951           
       2.852932             0.00659925485            0.000289738723           
       2.855573             0.00702520639            0.000301568663           
       2.858213             0.00731059015             0.00030418125           
       2.860853             0.00634489536            0.000285500586           
       2.863494             0.00740430354            0.000309158612           
       2.866134             0.00708674662            0.000306698795           
       2.868774             0.00666889607            0.000292965305           
       2.871415             0.00686335977            0.000300147599           
       2.874055             0.00700538972            0.000304739386           
       2.876696             0.00634844477            0.000287486691           
       2.879336             0.00684351013            0.000300467061           
       2.881976             0.00668613422            0.000296747707           
       2.884617             0.00678795009            0.000297337609           
       2.887257             0.00643206125            0.000287419931           
       2.889897             0.00656882775            0.000293788871           
       2.892538             0.00677507915            0.000296296781           
       2.895178             0.00674296089            0.000292579244           
       2.897819             0.00633475158            0.000286501476           
       2.900459             0.00709144268            0.000300620529           
       2.903099             0.00715995014            0.000303646346           
       2.905740             0.00698396608            0.000296543966           
       2.908380             0.00715015561             0.00030405141           
       2.911021              0.0068885227            0.000299004092           
       2.913661             0.00712841081            0.000300818558           
       2.916301             0.00674590132            0.000296799362           
       2.918942             0.00691070283              0.0002958709           
       2.921582              0.0063202901            0.000285918596           
       2.924222             0.00634163692            0.000284739861           
       2.926863             0.00643891725            0.000287677601           
       2.929503             0.00689064454              0.0003009013           
       2.932144             0.00736592001            0.000306003028           
       2.934784             0.00758314918            0.000311801908           
       2.937424             0.00691052101            0.000298202923           
       2.940065             0.00666213411            0.000293032982           
       2.942705             0.00686722914            0.000298413325           
       2.945346             0.00665087876            0.000291940408           
       2.947986             0.00750904133            0.000311288461           
       2.950626             0.00851736831            0.000332549869           
       2.953267              0.0101495223            0.000359160449           
       2.955907             0.00903157745            0.000343282495           
       2.958547             0.00832077965            0.000326118705           
       2.961188             0.00773726603            0.000317221283           
       2.963828             0.00672433451            0.000294052609           
       2.966469             0.00633352616            0.000285450836           
       2.969109             0.00752749774            0.000312787441           
       2.971749             0.00786919288            0.000318867168           
       2.974390             0.00886810517            0.000339429986           
       2.977030              0.0102660896            0.000364510463           
       2.979670             0.00830786236            0.000325794007           
       2.982311              0.0076339897            0.000314555462           
       2.984951             0.00767853663             0.00031628759           
       2.987592              0.0082688228            0.000327111971           
       2.990232              0.0071857864            0.000305716806           
       2.992872             0.00779077024            0.000315835688           
       2.995513             0.00822192065            0.000327006012           
       2.998153              0.0101188606            0.000365113415           
       3.000794              0.0190568561            0.000493766404           
       3.003434              0.0385559979            0.000709778265           
       3.006074              0.0320474812            0.000649188885           
       3.008715              0.0196043567            0.000511616942           
       3.011355              0.0206587789            0.000530657296           
       3.013995              0.0169127932            0.000477793768           
       3.016636              0.0292315792            0.000629321367           
       3.019276               0.141087283             0.00141562013           
       3.021917               0.417326821             0.00239338275           
       3.024557               0.147148089              0.0014325333           
       3.027197              0.0888736668             0.00113199004           
       3.029838              0.0965621651             0.00117429663           
       3.032478              0.0847991088             0.00110702479           
       3.035118              0.0528348956            0.000878318193           
       3.037759              0.0966753211             0.00119018228           
       3.040399              0.0817581597             0.00110703792           
       3.043040               0.052449714            0.000895295238           
       3.045680              0.0580312524            0.000927224829           
       3.048320              0.0875730378             0.00115731874           
       3.050961               0.220418017             0.00185448999           
       3.053601               0.103417595             0.00126465861           
       3.056242              0.0483326395            0.000870115847           
       3.058882               0.210656353              0.0018435588           
       3.061522               0.217863281             0.00186183963           
       3.064163              0.0306036941             0.00069907973           
       3.066803               0.019432813             0.00056783929           
       3.069443              0.0375483335            0.000784062676           
       3.072084              0.0988603906             0.00128355796           
       3.074724              0.0360059299            0.000779198817           
       3.077365              0.0119936565            0.000449392712           
       3.080005             0.00896102983            0.000392752258           
       3.082645             0.00934691689            0.000403161999           
       3.085286             0.00865952288            0.000388124969           
       3.087926               0.007966306            0.000374634301           
       3.090566             0.00712136701            0.000357858519           
       3.093207             0.00732761958            0.000359081822           
       3.095847             0.00780146635            0.000378276446           
       3.098488             0.00819867875            0.000387083739           
       3.101128             0.00781052673            0.000379867818           
       3.103768              0.0086799651            0.000402708853           
       3.106409             0.00993992026            0.000433833237           
       3.109049             0.00989832401             0.00043629004           
       3.111690              0.0125647162            0.000489618071           
       3.114330              0.0142833451            0.000526675613           
       3.116970              0.0177850197            0.000595875379           
       3.119611              0.0159169112            0.000560044511           
       3.122251                0.01083226            0.000465795092           
       3.124891             0.00945813558            0.000437362402           
       3.127532             0.00881157885            0.000429753293           
       3.130172             0.00932869883            0.000433087418           
       3.132813             0.00896914281            0.000433302003           
       3.135453             0.00840647153            0.000428339337           
       3.138093             0.00719742962            0.000386937633           
       3.140734              0.0065522198             0.00037605802           
       3.143374             0.00645773483            0.000379043828           
       3.146014              0.0058722071            0.000358827701           
       3.148655              0.0061860569            0.000371191585           
       3.151295             0.00595854216            0.000367185214           
       3.153936             0.00739505086            0.000415097582           
       3.156576             0.00677186731            0.000392662607           
       3.159216             0.00655876052            0.000389595357           
       3.161857             0.00640478155            0.000389717807           
       3.164497             0.00696462366            0.000414962593           
       3.167138             0.00665615967              0.0003959365           
       3.169778             0.00562958277            0.000370701057           
       3.172418             0.00621994188            0.000391930665           
       3.175059             0.00587612233            0.000385929668           
       3.177699             0.00702849298            0.000420411985           
       3.180339              0.0057323091            0.000383065887           
       3.182980             0.00626525991            0.000405883972           
       3.185620             0.00631609942            0.000411980749           
       3.188261             0.00567084983            0.000385255692           
       3.190901             0.00638571619            0.000415117257           
       3.193541             0.00580255884            0.000397012783           
       3.196182             0.00570703674            0.000401923566           
       3.198822             0.00609688721            0.000410388633           
       3.201463             0.00577706992            0.000404645967           
       3.204103             0.00506549521            0.000383952368           
       3.206743             0.00576504923            0.000413070597           
       3.209384             0.00594225283            0.000417501479           
       3.212024             0.00587500354            0.000416607026           
       3.214664              0.0057302265            0.000419284024           
       3.217305             0.00652380393            0.000457813677           
       3.219945             0.00622605467            0.000443504389           
       3.222586             0.00587085197            0.000433104689           
       3.225226             0.00560950543            0.000432892406           
       3.227866             0.00566877917            0.000438540105           
       3.230507             0.00599386833            0.000456320332           
       3.233147              0.0065323854              0.0004693323           
       3.235787             0.00623615377            0.000458691811           
       3.238428             0.00660370769            0.000480352115           
       3.241068             0.00622044168            0.000475657971           
       3.243709             0.00540341261            0.000440860306           
       3.246349             0.00492330931            0.000418464645           
       3.248989             0.00677826831            0.000502232141           
       3.251630             0.00580282097            0.000466747356           
       3.254270             0.00627402192            0.000500246299           
       3.256911              0.0055925016            0.000460461835           
       3.259551             0.00578152919            0.000478524502           
       3.262191             0.00540090265            0.000466759504           
       3.264832             0.00583191802            0.000489577789           
       3.267472             0.00508262369            0.000463527659           
       3.270112              0.0053141714            0.000475317743           
       3.272753             0.00636509157            0.000526590657           
       3.275393             0.00608668532            0.000517596039           
       3.278034             0.00568591254            0.000510456488           
       3.280674             0.00585356562            0.000519430561           
       3.283314             0.00545716336             0.00050430563           
       3.285955             0.00571614881            0.000525828144           
       3.288595              0.0054424085               0.000518807           
       3.291235             0.00570518661             0.00053430458           
       3.293876             0.00642162967            0.000570217487           
       3.296516              0.0071640251            0.000614561534           
       3.299157             0.00587226075            0.000564812744           
       3.301797             0.00506818965             0.00052494375           
       3.304437                0.00559789            0.000562035615           
       3.307078             0.00535505888            0.000555050381           
       3.309718             0.00611831163             0.00059921103           
       3.312359             0.00533824511            0.000571019557           
       3.314999             0.00536228585            0.000578307654           
       3.317639             0.00589490266            0.000612877608           
       3.320280             0.00533594596            0.000591612468           
       3.322920             0.00523714585            0.000594879017           
       3.325560             0.00583866151            0.000640241949           
       3.328201              0.0039907926            0.000531556034           
       3.330841             0.00531658591            0.000628451673           
       3.333482               0.006807122            0.000720139771           
       3.336122             0.00575058416            0.000676283979           
       3.338762             0.00595123523            0.000694273889           
       3.341403             0.00557235111            0.000678042416           
       3.344043             0.00618567491             0.00074164915           
       3.346683             0.00528356236            0.000692390374           
       3.349324             0.00484199385            0.000673086858           
       3.351964             0.00513272959            0.000715278796           
       3.354605             0.00476522844             0.00069700079           
       3.357245             0.00529545763            0.000760582442           
       3.359885             0.00488525926            0.000730793081           
       3.362526             0.00645451489            0.000882956549           
       3.365166              0.0038216851            0.000671026561           
       3.367807             0.00493745228            0.000816462293           
       3.370447             0.00587377365            0.000890864445           
       3.373087             0.00536414491            0.000898503364           
       3.375728             0.00601269987            0.000944079996           
       3.378368               0.006531821             0.00106327603           
       3.381008             0.00538667186            0.000957162624           
       3.383649              0.0067060542             0.00115578641           
       3.386289             0.00491839581            0.000990227226           
       3.388930             0.00686385092             0.00128471579           
       3.391570             0.00355438084            0.000924883825           
       3.394210             0.00433607926             0.00109455383           
       3.396851             0.00731449274             0.00153993967           
       3.399491             0.00656218667             0.00148507133           
       3.402131             0.00548489497             0.00160714471           
       3.404772             0.00599052961             0.00168031044           
       3.407412             0.00276383195             0.00141625166           
       3.410053             0.00528098553             0.00203849146           
       3.412693              0.0059464039             0.00306038199           
       3.415333              0.0043030179             0.00318975432           
