################################################################################
# EDF_DataBlockID                     0.Image.Psd
# EDF_BinarySize                      2105344
# EDF_HeaderSize                      2560
# ByteOrder                           LowByteFirst
# DataType                            FloatValue
# Dim_1                               512
# Dim_2                               1028
# Image                               0
# HeaderID                            EH:000000:000000:000000
# Size                                2105344
# Center_1                            304.9000
# Center_2                            588.7000
# Comment                             Xenocs_Cell_Window - front_window_open_only
# DDummy                              0.6
# Date                                2025-10-19T01:09:38
# Delta                               21.910000
# Dummy                               -1.5
# ExposureTime                        360
# Gamma                               15.360000
# Intensity1                          9.01252e-10
# PSize_1                             7.5e-05
# PSize_2                             7.5e-05
# Pressure                            0.0332012
# SampleDistance                      0.115750
# SampleEnvKind                       large
# SampleEnvPN                         ElectroChemical cell
# SampleEnvSN                         1141
# Thickness                           0
# Wavelength                          1.541891e-10
# Wavelength                          1.54189e-10
# aux                                 0
# aux_dial                            0.002375
# beamx                               588.429
# beamx_dial                          588.429
# beamz                               657.855
# beamz_dial                          657.855
# det0x                               -0.000396875
# det0x_dial                          6.36905
# det0xvd                             -0.0005
# det0xvd_dial                        -0.0005
# det0y                               450.002
# det0y_dial                          481.635
# det0z                               0
# det0z_dial                          1.2295
# det0zvd                             0
# det0zvd_dial                        0
# mag                                 1.818
# mag_dial                            1.818
# om                                  0.2499
# om_dial                             -0.610199
# phi                                 -0.0120535
# phi_dial                            0
# ry                                  0.599993
# ry_dial                             0.599993
# s1bot                               0.8
# s1bot_dial                          -1.66094
# s1hl                                0.8
# s1hl_dial                           -0.608437
# s1hr                                0.8
# s1hr_dial                           0.970938
# s1top                               0.8
# s1top_dial                          -0.461562
# s2bot                               0.45
# s2bot_dial                          1.36109
# s2hl                                0.45
# s2hl_dial                           -0.83375
# s2hr                                0.45
# s2hr_dial                           -0.118594
# s2top                               0.45
# s2top_dial                          1.44734
# w2theta                             32
# w2theta_dial                        32
# waxsch                              19.2605
# waxsch_dial                         -32.7238
# waxsh                               137.085
# waxsh_dial                          -43.5335
# waxsth                              26.0607
# waxsth_dial                         -19.4068
# waxsz                               67.0407
# waxsz_dial                          -23.7962
# wind                                65.9854
# wind_dial                           66.0041
# wpsi                                124
# wpsi_dial                           124
# wstod                               115
# wstod_dial                          115
# x                                   0
# x_dial                              1.00969
# z                                   0
# z_dial                              13.3172
# CountCutoff                         6807993
# DetectorModel                       Dectris EIGER2 Si 500K, S/N E-01-0554
# ThresholdSetting                    4023.88989258
# Saturation                          0
# FlatField                           Corrected
# BackgroundReductionExtra            0.02
# BackgroundCorrectionConstant        0.0026712
# Detector                            0
# Monitor                             0
# Pil_Roi0                            0
# SumForIntensity1                    3.24451e+08
# TransmittedFlux                     901252
# det                                 0
# mon                                 0
# pilai0                              3.24451e+08
# pilai1                              699053
# pilct0                              5.61517e+08
# pilct1                              699053
# pilroi0                             0
# pilroi1                             0
# sec                                 1
# title                               20251017__1_00282.edf
# usaxs0                              0
# Operation                           Azimuthal average I(q)
# Error_model                         ErrorModel.poisson
# Geometrical_correction              True
# Transmission_correction             True
# Thickness_correction                False
# Binning mode                        Uniform
# Binning factor                      1.0
# Psi                                 0.0
# Omega                               0.2499
# MaskInvalidPixels                   True
# DetectorEdge                        3
# MaskFiles                           ['20251017__1_00233_mask.edf']
################################################################################
    q(A⁻¹)                Intensity(a.u.)            Sigma_I(a.u.)            
       0.690460           -2.25356439e-05                         0           
       0.693100              0.0109585414             0.00429878673           
       0.695741             0.00920341285             0.00332820521           
       0.698381             0.00803657903             0.00290882383           
       0.701021             0.00885179701             0.00249150865           
       0.703662             0.00459639576             0.00166187258           
       0.706302             0.00658137835             0.00192053973           
       0.708942             0.00734871053             0.00180266225           
       0.711583             0.00739294314             0.00180774817           
       0.714223             0.00626297459             0.00144991918           
       0.716864             0.00849000518             0.00172265836           
       0.719504             0.00856198362             0.00160106602           
       0.722144             0.00876179722             0.00156424342           
       0.724785             0.00557010027             0.00122676718           
       0.727425             0.00457056662             0.00103075044           
       0.730065             0.00580316031             0.00119506727           
       0.732706             0.00647034157             0.00113475347           
       0.735346             0.00642604076             0.00122152396           
       0.737987             0.00583914522             0.00100784289           
       0.740627             0.00746733011             0.00124855786           
       0.743267             0.00827674174             0.00113068395           
       0.745908             0.00882726597             0.00125143352           
       0.748548             0.00675436229             0.00102097958           
       0.751189             0.00859174934             0.00114065604           
       0.753829             0.00702501984             0.00104072932           
       0.756469             0.00690116385            0.000970186465           
       0.759110             0.00825694027              0.0010976584           
       0.761750              0.0071748937            0.000936447748           
       0.764390             0.00695830744            0.000989936617           
       0.767031             0.00777404764            0.000946830052           
       0.769671             0.00771937036             0.00100060699           
       0.772312             0.00661586167            0.000844135225           
       0.774952             0.00538480461            0.000816432159           
       0.777592             0.00699158888            0.000850899267           
       0.780233             0.00789205117            0.000953041921           
       0.782873             0.00785255355            0.000869323232           
       0.785513             0.00540319494            0.000767088636           
       0.788154             0.00647619299            0.000771374277           
       0.790794             0.00762546963             0.00086629709           
       0.793435              0.0075748208            0.000829301922           
       0.796075             0.00683738073            0.000792063243           
       0.798715             0.00646127342            0.000765574802           
       0.801356             0.00680538172            0.000764669881           
       0.803996              0.0067925723            0.000776158213           
       0.806637             0.00769924187            0.000781106446           
       0.809277             0.00587362295            0.000713737741           
       0.811917             0.00610052996            0.000688325648           
       0.814558             0.00678796172            0.000743814458           
       0.817198             0.00602426274            0.000668140741           
       0.819838             0.00777241835            0.000791631322           
       0.822479             0.00722502493            0.000703372451           
       0.825119             0.00651966962            0.000717772162           
       0.827760             0.00721198856            0.000699511534           
       0.830400             0.00673350808            0.000712155442           
       0.833040             0.00644242453            0.000650119234           
       0.835681             0.00742103593            0.000730694307           
       0.838321             0.00815395456            0.000716893809           
       0.840961             0.00644066312            0.000665968214           
       0.843602             0.00692242584            0.000650354244           
       0.846242             0.00644163291            0.000649512845           
       0.848883             0.00689891021            0.000653871759           
       0.851523             0.00700016776            0.000663588957           
       0.854163             0.00647014546            0.000630560738           
       0.856804             0.00660981434            0.000621022854           
       0.859444             0.00736536536              0.0006602698           
       0.862085             0.00675289295              0.0006230249           
       0.864725             0.00669469765            0.000618057063           
       0.867365             0.00693854652            0.000624706413           
       0.870006             0.00637908499            0.000607349063           
       0.872646             0.00736067157            0.000624012703           
       0.875286               0.007598365            0.000655610734           
       0.877927             0.00666052328            0.000587706198           
       0.880567             0.00744842835            0.000633637502           
       0.883208             0.00606393684            0.000555211891           
       0.885848             0.00690494817            0.000607828056           
       0.888488             0.00697933297            0.000581039933           
       0.891129             0.00770160083            0.000641602597           
       0.893769             0.00675235848            0.000567870543           
       0.896410             0.00711743356            0.000600978789           
       0.899050             0.00581296903            0.000523674841           
       0.901690             0.00762631527            0.000612339231           
       0.904331             0.00568236295              0.0005101122           
       0.906971              0.0074362617            0.000602571891           
       0.909611             0.00706315903            0.000563671662           
       0.912252             0.00687654745            0.000565813069           
       0.914892             0.00725565347            0.000566479439           
       0.917533             0.00646228184            0.000546675163           
       0.920173              0.0069871781            0.000545278667           
       0.922813             0.00752714851            0.000591434361           
       0.925454             0.00678568158            0.000532943902           
       0.928094             0.00728987643            0.000564245661           
       0.930734             0.00718891352            0.000546952174           
       0.933375              0.0065229343            0.000532108185           
       0.936015             0.00726897457            0.000537457037           
       0.938656             0.00716732891            0.000556071822           
       0.941296             0.00706471978            0.000532200639           
       0.943936             0.00640376062             0.00051581908           
       0.946577             0.00681540534            0.000512483474           
       0.949217             0.00713408867            0.000542845558           
       0.951858             0.00839272522            0.000556629338           
       0.954498              0.0080140434            0.000572234598           
       0.957138             0.00736545704            0.000527276658           
       0.959779              0.0062370212            0.000495820142           
       0.962419             0.00693363937            0.000503274795           
       0.965059             0.00723967921            0.000528869056           
       0.967700             0.00646809275            0.000483727025           
       0.970340             0.00723756674            0.000526070255           
       0.972981              0.0068765693            0.000495106443           
       0.975621             0.00699212004            0.000509702272           
       0.978261             0.00725330286            0.000495319574           
       0.980902             0.00749661293             0.00052753576           
       0.983542             0.00759786314            0.000515622558           
       0.986182             0.00715949899             0.00050711855           
       0.988823             0.00840820023            0.000531833744           
       0.991463             0.00772157629            0.000521829374           
       0.994104             0.00783738603            0.000508007157           
       0.996744             0.00709260805            0.000498938829           
       0.999384             0.00748853407             0.00049527529           
       1.002025             0.00761914036            0.000513485258           
       1.004665             0.00662845325            0.000459321627           
       1.007306             0.00741513985            0.000502093192           
       1.009946             0.00751956445            0.000486165938           
       1.012586             0.00789353587            0.000512436863           
       1.015227             0.00701872185            0.000468580986           
       1.017867             0.00685854904              0.0004764773           
       1.020507             0.00710000333            0.000466541624           
       1.023148             0.00857324276            0.000518857223           
       1.025788             0.00828258213            0.000504763788           
       1.028429             0.00765594882            0.000495902783           
       1.031069             0.00820465969            0.000494602965           
       1.033709             0.00761661193            0.000485699886           
       1.036350             0.00737630968             0.00046544314           
       1.038990             0.00770845066            0.000487553389           
       1.041630             0.00765461329            0.000476500826           
       1.044271             0.00703351216            0.000456811381           
       1.046911             0.00778102159            0.000471546025           
       1.049552             0.00740501158            0.000476589181           
       1.052192             0.00798616586            0.000472681001           
       1.054832             0.00859103391            0.000499788642           
       1.057473             0.00787964637            0.000472589322           
       1.060113             0.00705990642            0.000452176071           
       1.062754             0.00722703555            0.000452436994           
       1.065394             0.00770637346            0.000462284655           
       1.068034             0.00806696819            0.000471145432           
       1.070675             0.00810004055            0.000480414094           
       1.073315              0.0088098604            0.000485707242           
       1.075955             0.00735908516            0.000451362311           
       1.078596             0.00783536114            0.000464818714           
       1.081236             0.00792702555            0.000460595276           
       1.083877             0.00753573991            0.000463112539           
       1.086517             0.00805077659            0.000467848587           
       1.089157             0.00689435792            0.000436119857           
       1.091798             0.00808116455            0.000462163375           
       1.094438             0.00797164056            0.000466316085           
       1.097078             0.00854059254            0.000470266837           
       1.099719              0.0084120494            0.000478675876           
       1.102359             0.00812320626             0.00044560574           
       1.105000             0.00910923775            0.000490460397           
       1.107640             0.00918865834            0.000476536485           
       1.110280             0.00830050072            0.000461989846           
       1.112921             0.00830008321            0.000453619046           
       1.115561             0.00802739989            0.000451766796           
       1.118202             0.00850652001            0.000451479982           
       1.120842               0.008542571            0.000466690875           
       1.123482             0.00816447226            0.000443447531           
       1.126123              0.0081699439             0.00044636452           
       1.128763             0.00871854577              0.0004588204           
       1.131403             0.00890203022            0.000462902552           
       1.134044             0.00851396572            0.000451914775           
       1.136684             0.00857012001            0.000456810034           
       1.139325             0.00719904609            0.000406881101           
       1.141965             0.00811247596            0.000437572305           
       1.144605             0.00836525067             0.00044694709           
       1.147246             0.00878194176            0.000449270601           
       1.149886             0.00864837115            0.000449011644           
       1.152527             0.00811811386            0.000435464713           
       1.155167             0.00861018439            0.000442162701           
       1.157807             0.00875035684            0.000446054424           
       1.160448             0.00820059809            0.000437723235           
       1.163088             0.00844828713            0.000427801689           
       1.165728             0.00797915554            0.000432890784           
       1.168369             0.00849344276            0.000430679458           
       1.171009              0.0089538609            0.000445864893           
       1.173650             0.00889637653            0.000441226497           
       1.176290             0.00869999043            0.000441449072           
       1.178930             0.00932470097            0.000444176197           
       1.181571             0.00909080668            0.000452894497           
       1.184211              0.0083725761            0.000421509005           
       1.186851             0.00869986472            0.000433630318           
       1.189492             0.00830747251            0.000426091443           
       1.192132             0.00958275405            0.000450851397           
       1.194773             0.00862292637            0.000425096497           
       1.197413             0.00959208847            0.000452006954           
       1.200053             0.00890130081            0.000432687318           
       1.202694             0.00909487862            0.000434070995           
       1.205334             0.00864717111            0.000427879105           
       1.207975             0.00915911242            0.000431734608           
       1.210615             0.00901272012            0.000437326725           
       1.213255             0.00928744239            0.000432197298           
       1.215896              0.0100475559            0.000458056694           
       1.218536             0.00978667009            0.000439050114           
       1.221176              0.0088097902            0.000426504593           
       1.223817             0.00985914126            0.000441789319           
       1.226457             0.00824760088             0.00040920507           
       1.229098             0.00943754489            0.000431089655           
       1.231738             0.00957043952            0.000440227234           
       1.234378              0.0103732696             0.00044941467           
       1.237019             0.00996192399            0.000443966247           
       1.239659             0.00981573309            0.000440458172           
       1.242299             0.00987922839            0.000439621438           
       1.244940             0.00848702416            0.000403071123           
       1.247580             0.00920853425            0.000421708741           
       1.250221             0.00946657054            0.000434555865           
       1.252861             0.00978275648            0.000425295223           
       1.255501             0.00984980243            0.000438799033           
       1.258142             0.00979839929            0.000429000196           
       1.260782              0.0104966205            0.000449037717           
       1.263423             0.00993244043            0.000428149587           
       1.266063              0.0103666334            0.000445560378           
       1.268703             0.00993542706            0.000425205337           
       1.271344              0.0103193954            0.000442782011           
       1.273984              0.0108115113            0.000446141789           
       1.276624             0.00981284043             0.00042244398           
       1.279265              0.0100959407            0.000429429945           
       1.281905             0.00994414117            0.000428816276           
       1.284546              0.0102098352             0.00042976047           
       1.287186              0.0106767783            0.000439900276           
       1.289826              0.0100084872             0.00042811913           
       1.292467             0.00982660425            0.000416639854           
       1.295107             0.00986385765            0.000424786644           
       1.297747              0.0099133752            0.000414681662           
       1.300388              0.0097501369            0.000421813986           
       1.303028              0.0102166062            0.000420806408           
       1.305669              0.0103388377            0.000428785425           
       1.308309              0.0103710526            0.000422995664           
       1.310949              0.0102694942            0.000426165803           
       1.313590              0.0111245798            0.000436689023           
       1.316230              0.0109553764            0.000441155724           
       1.318871              0.0109222154            0.000430984667           
       1.321511              0.0108693836            0.000432095615           
       1.324151              0.0105027746            0.000426424486           
       1.326792               0.010298432            0.000418835332           
       1.329432              0.0105902297            0.000426943069           
       1.332072               0.010687105            0.000421536936           
       1.334713              0.0098460436            0.000409627794           
       1.337353              0.0100103242            0.000406677582           
       1.339994              0.0107911479            0.000428254802           
       1.342634             0.00966214121            0.000396110495           
       1.345274              0.0112220946            0.000432471492           
       1.347915              0.0110060412            0.000429426809           
       1.350555              0.0107751896             0.00042323934           
       1.353195              0.0109191304            0.000417906251           
       1.355836              0.0111075896             0.00042945002           
       1.358476               0.010927626            0.000424758877           
       1.361117              0.0107997943            0.000411674185           
       1.363757               0.010400656            0.000417383942           
       1.366397              0.0105889847             0.00040803102           
       1.369038               0.010645599            0.000417743441           
       1.371678              0.0115638976            0.000426596831           
       1.374319              0.0102607225            0.000405028261           
       1.376959              0.0106190338            0.000406366988           
       1.379599              0.0108196481            0.000418182927           
       1.382240              0.0104375923            0.000402931986           
       1.384880              0.0105624887            0.000410312257           
       1.387520              0.0105522054            0.000405317511           
       1.390161               0.010934453            0.000411471992           
       1.392801               0.010828488            0.000411913904           
       1.395442              0.0106596632            0.000404455654           
       1.398082              0.0104516806            0.000401861035           
       1.400722              0.0107464538            0.000405647693           
       1.403363             0.00942047752            0.000383322631           
       1.406003              0.0103915546            0.000392709113           
       1.408644              0.0102142148            0.000397517529           
       1.411284                0.01177387            0.000424448599           
       1.413924             0.00959226197             0.00037838704           
       1.416565              0.0107977699            0.000400988521           
       1.419205              0.0107118337            0.000403323846           
       1.421845              0.0110729352            0.000404910387           
       1.424486               0.010021354             0.00038690453           
       1.427126              0.0100783522            0.000387758458           
       1.429767              0.0105132469            0.000389933394           
       1.432407              0.0110446808            0.000409735453           
       1.435047              0.0104234169            0.000386083363           
       1.437688               0.010502626            0.000396129735           
       1.440328              0.0103156055            0.000384979109           
       1.442968              0.0106680708            0.000396920409           
       1.445609              0.0102359191            0.000382402921           
       1.448249              0.0103078474            0.000386225388           
       1.450890              0.0103261684            0.000383810873           
       1.453530              0.0103005625            0.000386174117           
       1.456170              0.0105041906            0.000389094535           
       1.458811               0.010063839            0.000377821529           
       1.461451              0.0104585974            0.000387991631           
       1.464092              0.0108785784             0.00039225593           
       1.466732               0.010827848            0.000388939943           
       1.469372              0.0104392718            0.000380723375           
       1.472013              0.0103041734            0.000385019083           
       1.474653              0.0100600566            0.000371037482           
       1.477293              0.0102388574            0.000380620918           
       1.479934              0.0100810728            0.000373723839           
       1.482574             0.00973580146            0.000366361755           
       1.485215              0.0101610606            0.000375241327           
       1.487855              0.0121838145            0.000410811941           
       1.490495              0.0103897472            0.000378545552           
       1.493136              0.0108774869            0.000382249452           
       1.495776              0.0103365897             0.00037912091           
       1.498416              0.0102920408            0.000370953701           
       1.501057              0.0103606529             0.00037538944           
       1.503697              0.0102757908             0.00037025446           
       1.506338              0.0105980033            0.000378779834           
       1.508978              0.0105860663             0.00037633127           
       1.511618              0.0103424811            0.000371788398           
       1.514259              0.0105311213            0.000375841233           
       1.516899              0.0101484644            0.000369121616           
       1.519540             0.00987779548            0.000362145041           
       1.522180             0.00997168105            0.000359317987           
       1.524820             0.00992375853            0.000365693413           
       1.527461              0.0100055423            0.000359074104           
       1.530101              0.0100250225            0.000363139671           
       1.532741              0.0104531999            0.000369056731           
       1.535382             0.00995027729            0.000360862256           
       1.538022              0.0104467519            0.000366483953           
       1.540663              0.0104589874            0.000370164176           
       1.543303             0.00960923351            0.000350393099           
       1.545943              0.0106167366            0.000370368321           
       1.548584              0.0106022146            0.000372085809           
       1.551224             0.00981491783            0.000348826027           
       1.553864             0.00967113949            0.000355307165           
       1.556505             0.00980730385            0.000352295655           
       1.559145              0.0100420559            0.000357311202           
       1.561786             0.00940942376            0.000344306238           
       1.564426             0.00950896118            0.000345809932           
       1.567066             0.00949682898             0.00034289189           
       1.569707              0.0103592648            0.000363307844           
       1.572347              0.0106299999            0.000363249843           
       1.574988              0.0094417481            0.000340991474           
       1.577628              0.0100255526            0.000359286644           
       1.580268             0.00934066441            0.000334829465           
       1.582909             0.00996323132            0.000352275899           
       1.585549             0.00948393451            0.000340486107           
       1.588189             0.00948507607            0.000344309717           
       1.590830             0.00898141445            0.000329292304           
       1.593470             0.00951521027            0.000341704405           
       1.596111             0.00896746678            0.000328857186           
       1.598751             0.00890620435            0.000331082268           
       1.601391             0.00887746011            0.000328434188           
       1.604032             0.00917414203            0.000331089012           
       1.606672               0.009002637            0.000334580828           
       1.609312              0.0094658949            0.000332872836           
       1.611953             0.00856233844            0.000321175562           
       1.614593             0.00963195041            0.000338055236           
       1.617234             0.00943499987            0.000336477706           
       1.619874             0.00895242793            0.000323904014           
       1.622514             0.00870451097            0.000322212349           
       1.625155             0.00834513617            0.000314710583           
       1.627795             0.00896309063            0.000322858773           
       1.630436             0.00914661871            0.000329425694           
       1.633076             0.00921469881            0.000328969497           
       1.635716             0.00906033116              0.0003256335           
       1.638357             0.00869569103            0.000317658129           
       1.640997             0.00863065775            0.000318942948           
       1.643637             0.00893009735             0.00031840429           
       1.646278             0.00856633715            0.000316519817           
       1.648918             0.00852371735            0.000311661023           
       1.651559             0.00853497911             0.00031578801           
       1.654199             0.00895207591            0.000318979008           
       1.656839             0.00848197519            0.000310407192           
       1.659480             0.00873914906            0.000317852799           
       1.662120             0.00866406056            0.000312243322           
       1.664761             0.00848685715            0.000312379674           
       1.667401             0.00844170982            0.000308645347           
       1.670041             0.00836915003            0.000307667705           
       1.672682             0.00848435165            0.000306863034           
       1.675322             0.00903587328            0.000322278959           
       1.677962             0.00816305919            0.000300235102           
       1.680603             0.00857135144            0.000310382326           
       1.683243             0.00835518291            0.000304176447           
       1.685884              0.0083067336            0.000304447387           
       1.688524             0.00806243013            0.000299093163           
       1.691164             0.00796835887            0.000296578899           
       1.693805             0.00845030014            0.000307885848           
       1.696445             0.00847998854            0.000304145462           
       1.699085             0.00838275644            0.000303604045           
       1.701726              0.0082996863            0.000298166472           
       1.704366             0.00895160189            0.000317189786           
       1.707007             0.00862147835            0.000304643417           
       1.709647             0.00893548669            0.000313995134           
       1.712287              0.0088475075            0.000307223934           
       1.714928             0.00842562174            0.000302824299           
       1.717568             0.00803180659            0.000292943781           
       1.720209             0.00850650135            0.000303337931           
       1.722849               0.008514641            0.000303969624           
       1.725489             0.00857045534            0.000300103493           
       1.728130             0.00850362109            0.000305016373           
       1.730770             0.00840635355            0.000296856592           
       1.733410             0.00852853727             0.00030293142           
       1.736051             0.00838374189            0.000295686875           
       1.738691             0.00842728686            0.000299479724           
       1.741332             0.00824650642            0.000294426461           
       1.743972             0.00838939218            0.000297076392           
       1.746612             0.00857771011            0.000300461254           
       1.749253             0.00841951104            0.000298964095           
       1.751893             0.00800237469            0.000289715444           
       1.754533             0.00842183062            0.000293132225           
       1.757174             0.00877695937            0.000304843706           
       1.759814             0.00808643754            0.000288145446           
       1.762455             0.00832168381            0.000294795221           
       1.765095             0.00831160966             0.00029047935           
       1.767735             0.00797850585            0.000289435076           
       1.770376             0.00787837668            0.000283251436           
       1.773016             0.00844142398            0.000293661138           
       1.775657             0.00864906336            0.000297859886           
       1.778297             0.00871806603            0.000300508634           
       1.780937             0.00801999777            0.000286881567           
       1.783578             0.00807664263            0.000286541038           
       1.786218             0.00836848371            0.000296326391           
       1.788858             0.00878001428            0.000295983905           
       1.791499             0.00837527531            0.000294409134           
       1.794139             0.00819518566            0.000285848882           
       1.796780             0.00809918405             0.00028585817           
       1.799420             0.00854993316            0.000293331064           
       1.802060             0.00866421328            0.000291653094           
       1.804701             0.00886309722            0.000298938921           
       1.807341             0.00897959021             0.00029798962           
       1.809981             0.00897339644            0.000299865174           
       1.812622             0.00889296893            0.000296891914           
       1.815262             0.00933710596            0.000305300053           
       1.817903             0.00863099288            0.000289902655           
       1.820543             0.00870340821            0.000294714493           
       1.823183             0.00875235684            0.000290988353           
       1.825824               0.008320042            0.000287977326           
       1.828464             0.00849024118            0.000290015366           
       1.831105             0.00845908594            0.000290603489           
       1.833745             0.00827549237            0.000287253193           
       1.836385             0.00787125601            0.000279059978           
       1.839026             0.00778665855            0.000281728642           
       1.841666             0.00819766071            0.000285314792           
       1.844306             0.00795512745            0.000284610807           
       1.846947             0.00769157589            0.000276260177           
       1.849587             0.00810457771            0.000287426298           
       1.852228             0.00859812803            0.000292900044           
       1.854868             0.00830394708            0.000293125008           
       1.857508             0.00850906168            0.000291244199           
       1.860149             0.00843277517            0.000292259682           
       1.862789             0.00837011451            0.000292460237           
       1.865429             0.00836659816            0.000293280344           
       1.868070             0.00868022073            0.000297694363           
       1.870710             0.00817996706            0.000289775807           
       1.873351             0.00854687458             0.00029809437           
       1.875991             0.00845542765            0.000298099195           
       1.878631             0.00865207146            0.000298742906           
       1.881272             0.00802388135            0.000287019424           
       1.883912             0.00823570082            0.000294193456           
       1.886553             0.00930153284            0.000308900719           
       1.889193             0.00828214508            0.000294849997           
       1.891833             0.00871705821             0.00029905022           
       1.894474              0.0083687649            0.000295334052           
       1.897114             0.00874045511            0.000299480149           
       1.899754             0.00830175317            0.000295140879           
       1.902395             0.00841151069            0.000297148836           
       1.905035             0.00835337583            0.000294959736           
       1.907676              0.0083301379            0.000294891612           
       1.910316             0.00774143333             0.00028609308           
       1.912956             0.00854015716            0.000300477761           
       1.915597             0.00864143983             0.00029910316           
       1.918237             0.00880439981            0.000306493163           
       1.920878             0.00843810912             0.00029473974           
       1.923518             0.00833776965            0.000300766215           
       1.926158             0.00824366113            0.000292191826           
       1.928799             0.00832011839            0.000297444437           
       1.931439             0.00803394153            0.000289941914           
       1.934079             0.00825136838            0.000296814819           
       1.936720             0.00827363493            0.000295465699           
       1.939360             0.00823499859            0.000297615994           
       1.942001             0.00839944921            0.000299416659           
       1.944641             0.00869307191            0.000303292535           
       1.947281             0.00793766137            0.000291215537           
       1.949922             0.00809793882            0.000294509111           
       1.952562             0.00787804267            0.000292982578           
       1.955202             0.00778040521            0.000283846005           
       1.957843               0.007600925            0.000289465237           
       1.960483             0.00831388545            0.000297907916           
       1.963124             0.00855073752            0.000301897585           
       1.965764             0.00857102569             0.00030236359           
       1.968404             0.00801279699            0.000297579261           
       1.971045             0.00746094597            0.000279951135           
       1.973685             0.00783688625            0.000292271763           
       1.976326             0.00775925963            0.000289552703           
       1.978966             0.00807424106            0.000296769022           
       1.981606             0.00783752106            0.000289294185           
       1.984247             0.00777855912            0.000290716994           
       1.986887             0.00768168441            0.000291602928           
       1.989527             0.00779074656            0.000287547619           
       1.992168             0.00813371282            0.000300897428           
       1.994808             0.00810539969            0.000296879465           
       1.997449             0.00831258063            0.000300208874           
       2.000089             0.00754958699            0.000284414905           
       2.002729             0.00849107545            0.000308539953           
       2.005370             0.00757576545             0.00028589604           
       2.008010             0.00818207134            0.000301061037           
       2.010650             0.00752112669            0.000287819496           
       2.013291             0.00794663045            0.000297533056           
       2.015931             0.00732562777            0.000283626407           
       2.018572             0.00744016358            0.000289631258           
       2.021212             0.00777082134            0.000293340744           
       2.023852             0.00794730388            0.000298211444           
       2.026493             0.00775940584             0.00029337373           
       2.029133             0.00778751575            0.000291662613           
       2.031774             0.00731603017             0.00028543708           
       2.034414             0.00798271078            0.000296379586           
       2.037054             0.00735095468            0.000287996258           
       2.039695              0.0072877478            0.000281107088           
       2.042335              0.0075523633            0.000291035962           
       2.044975             0.00719085333            0.000281715376           
       2.047616             0.00718553691            0.000282817937           
       2.050256             0.00739016189             0.00028344281           
       2.052897             0.00720471442            0.000288152627           
       2.055537             0.00717627118            0.000279742633           
       2.058177             0.00740889771            0.000286751324           
       2.060818             0.00808950747            0.000300532563           
       2.063458               0.006994129            0.000279830515           
       2.066098             0.00728810916            0.000284383306           
       2.068739             0.00755168221            0.000292498282           
       2.071379             0.00795189446            0.000295716409           
       2.074020             0.00758768522            0.000292820571           
       2.076660             0.00817798061             0.00030193683           
       2.079300             0.00702441544            0.000279791955           
       2.081941             0.00739308923            0.000288785504           
       2.084581             0.00724155845            0.000286022379           
       2.087222             0.00772231227             0.00029556529           
       2.089862             0.00738102619            0.000285358659           
       2.092502             0.00739287262            0.000290776678           
       2.095143             0.00687613765            0.000276422621           
       2.097783             0.00769113802            0.000296794194           
       2.100423             0.00759566108            0.000289290779           
       2.103064             0.00697740573            0.000282054617           
       2.105704             0.00723864843            0.000286187283           
       2.108345             0.00735414082            0.000289785625           
       2.110985             0.00727473876            0.000284168708           
       2.113625             0.00760918467            0.000295206481           
       2.116266             0.00710917106            0.000283230443           
       2.118906             0.00788018835            0.000297977078           
       2.121546             0.00746898233            0.000289868023           
       2.124187             0.00763530036            0.000297131366           
       2.126827             0.00713461781            0.000282719558           
       2.129468             0.00732151731            0.000289387463           
       2.132108             0.00746379575            0.000291581149           
       2.134748             0.00729048289              0.0002870899           
       2.137389              0.0072367453            0.000288425566           
       2.140029             0.00693520235            0.000281666848           
       2.142670             0.00677246509            0.000278797324           
       2.145310             0.00734402843            0.000291432809           
       2.147950             0.00750348948            0.000295718559           
       2.150591             0.00760299821            0.000294943032           
       2.153231             0.00664181151            0.000279745237           
       2.155871             0.00772490615             0.00029733643           
       2.158512             0.00710184802            0.000290230597           
       2.161152             0.00730776284            0.000287053821           
       2.163793             0.00705580882            0.000286651493           
       2.166433             0.00754848623            0.000291349043           
       2.169073             0.00732357186            0.000293675923           
       2.171714             0.00751204332            0.000291375509           
       2.174354             0.00706100525            0.000286809496           
       2.176995             0.00676003488            0.000278302534           
       2.179635             0.00762573975            0.000301179894           
       2.182275              0.0079019844            0.000300500532           
       2.184916             0.00758434059            0.000300620906           
       2.187556              0.0076153301            0.000296384841           
       2.190196             0.00741886966            0.000297134853           
       2.192837             0.00725221644            0.000290561524           
       2.195477             0.00695816197            0.000287355293           
       2.198118             0.00743558407            0.000291565877           
       2.200758             0.00782770399            0.000303800722           
       2.203398             0.00715692795            0.000285675132           
       2.206039             0.00696108082            0.000286045659           
       2.208679             0.00721726798            0.000288410592           
       2.211319              0.0076263432            0.000297866991           
       2.213960             0.00770989373            0.000296309842           
       2.216600             0.00722850714            0.000293670391           
       2.219241             0.00713728591            0.000287569036           
       2.221881             0.00726541486            0.000291651127           
       2.224521             0.00743775834            0.000294066478           
       2.227162             0.00708704025             0.00029155825           
       2.229802             0.00770680409            0.000299104238           
       2.232443             0.00810307314            0.000307903279           
       2.235083             0.00693201614            0.000283078714           
       2.237723               0.007180029            0.000290306022           
       2.240364             0.00688965203            0.000282928668           
       2.243004             0.00691427671            0.000284290112           
       2.245644             0.00761387787            0.000297637248           
       2.248285             0.00725954494            0.000292515693           
       2.250925               0.006773577             0.00028123405           
       2.253566             0.00747383024            0.000296135942           
       2.256206             0.00708735883            0.000287513905           
       2.258846             0.00742309743            0.000294247713           
       2.261487              0.0071006807            0.000288284392           
       2.264127             0.00721853805            0.000293417242           
       2.266767             0.00738959838            0.000292075137           
       2.269408             0.00770581346            0.000301801269           
       2.272048             0.00681660281            0.000282108427           
       2.274689             0.00739815523            0.000295051754           
       2.277329             0.00700668339            0.000286757811           
       2.279969             0.00728421582            0.000293268046           
       2.282610             0.00735091639            0.000291734666           
       2.285250             0.00693999586            0.000287921524           
       2.287891             0.00755025014            0.000297283242           
       2.290531             0.00727850542            0.000293323762           
       2.293171             0.00747614714            0.000297264912           
       2.295812             0.00698773255            0.000285865457           
       2.298452             0.00732854083            0.000294628642           
       2.301092             0.00725964165            0.000295103121           
       2.303733              0.0074008452            0.000292065771           
       2.306373             0.00668081656            0.000284282034           
       2.309014             0.00662781776            0.000277695796           
       2.311654             0.00726261242            0.000293449034           
       2.314294               0.006717197            0.000281599016           
       2.316935             0.00720480652            0.000292793429           
       2.319575             0.00749119557            0.000297437974           
       2.322215             0.00662933379            0.000283792369           
       2.324856             0.00713765421            0.000287076789           
       2.327496             0.00726437102            0.000296711656           
       2.330137             0.00684413453            0.000282690111           
       2.332777             0.00673434586            0.000283480524           
       2.335417             0.00709001188            0.000289996837           
       2.338058             0.00666003006            0.000282190628           
       2.340698             0.00727778784            0.000292083486           
       2.343339             0.00714744082             0.00029497964           
       2.345979             0.00706249192              0.0002873703           
       2.348619             0.00680785245            0.000287470326           
       2.351260             0.00707773217            0.000286882195           
       2.353900             0.00712447375            0.000293924849           
       2.356540             0.00681031184            0.000283419022           
       2.359181             0.00683075251            0.000287639639           
       2.361821             0.00727707156            0.000293270722           
       2.364462               0.006871056            0.000289734651           
       2.367102             0.00727344482            0.000289477513           
       2.369742             0.00732040632            0.000300817925           
       2.372383              0.0070278904             0.00028615434           
       2.375023             0.00721110503            0.000297412386           
       2.377663              0.0071660506            0.000290181417           
       2.380304             0.00666311634            0.000283694797           
       2.382944             0.00700286688            0.000287992947           
       2.385585              0.0070200031            0.000291071016           
       2.388225             0.00772575568            0.000303972366           
       2.390865             0.00690163615            0.000288038363           
       2.393506             0.00728558408            0.000294578085           
       2.396146             0.00692925145            0.000288236183           
       2.398787             0.00723501128            0.000294784507           
       2.401427             0.00718813133            0.000292043797           
       2.404067             0.00673136958            0.000286926246           
       2.406708             0.00725243765            0.000294081232           
       2.409348             0.00712534368            0.000293685879           
       2.411988             0.00660685433            0.000281895584           
       2.414629             0.00703946445             0.00029193044           
       2.417269             0.00720288883            0.000292617904           
       2.419910             0.00673340059            0.000286488578           
       2.422550             0.00736356623            0.000295046955           
       2.425190             0.00723315196            0.000301629428           
       2.427831             0.00689363062            0.000283390701           
       2.430471             0.00662056633             0.00028583947           
       2.433112             0.00716626092            0.000290369101           
       2.435752             0.00704566912            0.000295204526           
       2.438392             0.00689901667            0.000287206172           
       2.441033             0.00703272422             0.00029130472           
       2.443673             0.00647020501            0.000280157938           
       2.446313             0.00722744529            0.000294520978           
       2.448954             0.00731311561            0.000298860979           
       2.451594             0.00716925344            0.000294131319           
       2.454235             0.00746742173            0.000299251406           
       2.456875              0.0073514755            0.000298423083           
       2.459515             0.00741737061            0.000300219753           
       2.462156             0.00736721199            0.000297660583           
       2.464796             0.00720323203             0.00029952103           
       2.467436             0.00796359653            0.000308329412           
       2.470077             0.00827586289            0.000318650639           
       2.472717             0.00788256253            0.000307095488           
       2.475358             0.00800720413             0.00031302055           
       2.477998             0.00813422724            0.000313810402           
       2.480638             0.00715823484            0.000295097895           
       2.483279             0.00789185383            0.000311181939           
       2.485919             0.00685181985            0.000287922916           
       2.488560             0.00711443787            0.000294605775           
       2.491200             0.00705558072            0.000292982379           
       2.493840             0.00708381816            0.000291969721           
       2.496481             0.00691232256             0.00029218539           
       2.499121             0.00700344946            0.000290189189           
       2.501761             0.00737334974            0.000302810057           
       2.504402             0.00681467939            0.000285533432           
       2.507042             0.00705906803             0.00029543911           
       2.509683             0.00760318018            0.000303821679           
       2.512323             0.00774619342            0.000307866539           
       2.514963              0.0122638805            0.000388146023           
       2.517604              0.0279048866            0.000583200319           
       2.520244               0.037580908             0.00067694939           
       2.522884             0.00925683133            0.000335237574           
       2.525525             0.00916309979            0.000336275692           
       2.528165              0.0178655911            0.000467406728           
       2.530806              0.0231226975            0.000529751528           
       2.533446              0.0128310228            0.000398131028           
       2.536086              0.0118453354            0.000379322645           
       2.538727              0.0112327711            0.000371752469           
       2.541367               0.010251745            0.000354132416           
       2.544008             0.00772458359            0.000307660731           
       2.546648             0.00728717783            0.000299162453           
       2.549288              0.0063886642            0.000280152786           
       2.551929             0.00724795252            0.000299384813           
       2.554569             0.00707382899            0.000293063984           
       2.557209             0.00737831764            0.000302686689           
       2.559850             0.00712569694            0.000294039293           
       2.562490             0.00687767339            0.000290980036           
       2.565131               0.007156486            0.000297335864           
       2.567771              0.0066927803            0.000286017611           
       2.570411             0.00693597688            0.000294710977           
       2.573052             0.00738803722            0.000300612983           
       2.575692             0.00696494968            0.000292652831           
       2.578332             0.00716481069            0.000295945179           
       2.580973             0.00744208051             0.00030406271           
       2.583613             0.00708346543            0.000293942967           
       2.586254             0.00685180615            0.000291654034           
       2.588894             0.00691981601            0.000291534434           
       2.591534             0.00681551148            0.000289861082           
       2.594175             0.00710640009            0.000297700249           
       2.596815             0.00684939354            0.000289550071           
       2.599456             0.00710866206             0.00029739275           
       2.602096             0.00689845725            0.000291866428           
       2.604736             0.00705145688            0.000295859214           
       2.607377             0.00717731745            0.000297346458           
       2.610017             0.00718688778            0.000297440679           
       2.612657             0.00702977468            0.000296249537           
       2.615298             0.00682687324             0.00028908718           
       2.617938              0.0068779074            0.000292704105           
       2.620579             0.00681666932            0.000289017807           
       2.623219             0.00661385802             0.00028923967           
       2.625859             0.00743255965            0.000301451698           
       2.628500             0.00668655625            0.000290493109           
       2.631140             0.00713796221            0.000294845696           
       2.633780               0.007199968            0.000299926985           
       2.636421             0.00707436271            0.000294593994           
       2.639061             0.00696123088            0.000295722962           
       2.641702              0.0076406116            0.000306505652           
       2.644342             0.00723756982            0.000300759139           
       2.646982             0.00725209668            0.000300805229           
       2.649623             0.00718765258            0.000301260983           
       2.652263             0.00688868031             0.00029258209           
       2.654904             0.00686574589             0.00029368064           
       2.657544             0.00676892912            0.000289551026           
       2.660184             0.00690276304              0.0002927735           
       2.662825              0.0070956759            0.000297547901           
       2.665465             0.00753758021            0.000307240501           
       2.668105             0.00661623882            0.000287965197           
       2.670746             0.00672808665            0.000287931937           
       2.673386             0.00706382559             0.00029860416           
       2.676027             0.00695666189             0.00029381136           
       2.678667             0.00807123184            0.000318119262           
       2.681307             0.00733959437             0.00030097299           
       2.683948             0.00749600796            0.000307183818           
       2.686588             0.00743462716            0.000303116211           
       2.689229             0.00743317258             0.00030580671           
       2.691869             0.00757341031            0.000305596898           
       2.694509             0.00679248525            0.000293381635           
       2.697150             0.00734050797            0.000300119501           
       2.699790             0.00675264833            0.000293830638           
       2.702430             0.00701981955             0.00029384306           
       2.705071             0.00675439284            0.000292179029           
       2.707711             0.00754655426            0.000305775126           
       2.710352             0.00701123308            0.000296408009           
       2.712992             0.00641868564            0.000284528325           
       2.715632             0.00641264194            0.000282776625           
       2.718273             0.00719340983            0.000300491227           
       2.720913             0.00662375668            0.000288829174           
       2.723553             0.00693085966            0.000294422286           
       2.726194             0.00614174836            0.000278491939           
       2.728834               0.007121922            0.000297226406           
       2.731475             0.00681458035            0.000293283388           
       2.734115             0.00630815029            0.000280493843           
       2.736755             0.00663137393            0.000289491297           
       2.739396             0.00677224916            0.000291003077           
       2.742036             0.00729659906            0.000304120422           
       2.744677             0.00731906583            0.000305033591           
       2.747317             0.00801763993            0.000317707951           
       2.749957             0.00718209737            0.000302879368           
       2.752598             0.00704526661            0.000300883676           
       2.755238             0.00682584537            0.000296027703           
       2.757878             0.00681977919            0.000295053653           
       2.760519             0.00707748521            0.000297403056           
       2.763159             0.00696221444            0.000299767401           
       2.765800             0.00778628929            0.000311642086           
       2.768440             0.00707114579            0.000300898162           
       2.771080             0.00694454241            0.000295679446           
       2.773721             0.00654580447            0.000290587078           
       2.776361             0.00684682885            0.000294001687           
       2.779001             0.00691376636            0.000298540831           
       2.781642             0.00670899399            0.000292079807           
       2.784282             0.00661994371            0.000290236121           
       2.786923             0.00731628848            0.000302798794           
       2.789563             0.00659811939            0.000288131247           
       2.792203             0.00669733197            0.000292137234           
       2.794844              0.0067476618            0.000291898609           
       2.797484             0.00661331656            0.000289385334           
       2.800125             0.00647307547            0.000285930581           
       2.802765             0.00725528768            0.000308325794           
       2.805405             0.00690234199            0.000296391704           
       2.808046             0.00648118816            0.000291610964           
       2.810686             0.00673655279             0.00029413245           
       2.813326             0.00650600326            0.000292631737           
       2.815967             0.00680084036            0.000297303471           
       2.818607             0.00704851866            0.000305694356           
       2.821248             0.00641184154             0.00028792585           
       2.823888             0.00646963803            0.000293879036           
       2.826528              0.0067355225            0.000298068038           
       2.829169             0.00625570314            0.000285986957           
       2.831809             0.00638499574            0.000289180371           
       2.834449             0.00690539213            0.000295484835           
       2.837090             0.00618907397            0.000281423011           
       2.839730             0.00722707893            0.000301948606           
       2.842371             0.00643365978            0.000286877248           
       2.845011             0.00738065571            0.000306580728           
       2.847651             0.00656545683            0.000289685456           
       2.850292             0.00667024365            0.000290329006           
       2.852932             0.00651787858            0.000287508576           
       2.855573             0.00662950322            0.000292506646           
       2.858213             0.00710445029            0.000299405684           
       2.860853             0.00691380696            0.000297571939           
       2.863494             0.00692950674            0.000298626938           
       2.866134             0.00679139411            0.000299782766           
       2.868774              0.0068094561              0.0002955861           
       2.871415             0.00706194836            0.000303995629           
       2.874055             0.00707772706             0.00030584256           
       2.876696             0.00619235602            0.000283498398           
       2.879336             0.00620743774            0.000285727589           
       2.881976             0.00695413985            0.000302176102           
       2.884617             0.00687939179            0.000298878122           
       2.887257             0.00662697077            0.000291298267           
       2.889897             0.00648037675            0.000291360121           
       2.892538             0.00633039642            0.000285972175           
       2.895178             0.00661999174            0.000289457959           
       2.897819             0.00682250487            0.000296874281           
       2.900459              0.0063876756            0.000284879593           
       2.903099             0.00702609853            0.000300336944           
       2.905740             0.00680566412            0.000292288592           
       2.908380             0.00664909031            0.000292758133           
       2.911021              0.0072368695            0.000306004655           
       2.913661             0.00659123402            0.000288821959           
       2.916301             0.00658814884            0.000292862153           
       2.918942             0.00717823204            0.000301084548           
       2.921582             0.00707982083            0.000302150702           
       2.924222             0.00645103111            0.000286748219           
       2.926863             0.00685247602            0.000296320684           
       2.929503             0.00688764413            0.000300377964           
       2.932144              0.0070592392            0.000299109187           
       2.934784             0.00680538827            0.000294930034           
       2.937424             0.00769100377            0.000314113492           
       2.940065             0.00660648874            0.000291362562           
       2.942705             0.00661417961            0.000292417939           
       2.945346             0.00612787986            0.000279800441           
       2.947986             0.00773535282            0.000315463718           
       2.950626             0.00728571653            0.000307099268           
       2.953267             0.00995013311            0.000355073882           
       2.955907             0.00966110375            0.000354504542           
       2.958547             0.00895028962            0.000337715366           
       2.961188             0.00788390057            0.000319725813           
       2.963828             0.00738356315            0.000307660653           
       2.966469             0.00669956902            0.000293136938           
       2.969109             0.00654403077            0.000291195886           
       2.971749             0.00711958696            0.000302838222           
       2.974390             0.00872021828            0.000336075648           
       2.977030             0.00969639495            0.000353713146           
       2.979670             0.00923570693            0.000342982605           
       2.982311             0.00824728072            0.000326449053           
       2.984951             0.00716067633            0.000304970985           
       2.987592             0.00765990923            0.000314358339           
       2.990232             0.00707443188             0.00030287716           
       2.992872             0.00819420726            0.000323417156           
       2.995513             0.00833800379            0.000328805232           
       2.998153             0.00872122632            0.000338445964           
       3.000794              0.0141402531            0.000424681242           
       3.003434              0.0375464115            0.000699357954           
       3.006074              0.0432791653            0.000753272549           
       3.008715              0.0221978103            0.000543578494           
       3.011355              0.0210406198            0.000534723976           
       3.013995              0.0185250356            0.000499287756           
       3.016636              0.0296472111            0.000632815108           
       3.019276               0.135767803             0.00138656351           
       3.021917               0.357709928             0.00221247353           
       3.024557               0.132762931             0.00135864004           
       3.027197              0.0976164228             0.00118455731           
       3.029838              0.0895455399             0.00112910641           
       3.032478                0.07203973             0.00101879386           
       3.035118              0.0483333195            0.000838790188           
       3.037759              0.0915742278             0.00115659386           
       3.040399               0.106902475             0.00126394857           
       3.043040              0.0519119883            0.000889338559           
       3.045680              0.0603247539            0.000943931413           
       3.048320              0.0773790459             0.00108622061           
       3.050961               0.163121463             0.00159292409           
       3.053601               0.131426598             0.00142349616           
       3.056242              0.0539316961            0.000917735306           
       3.058882                0.16054371             0.00160695952           
       3.061522               0.272421258             0.00207878381           
       3.064163              0.0427285144            0.000824778363           
       3.066803              0.0176648931            0.000540569687           
       3.069443              0.0289645239            0.000687586313           
       3.072084              0.0977255369             0.00127422739           
       3.074724              0.0464920406            0.000884075084           
       3.077365              0.0121346543            0.000451338628           
       3.080005             0.00948095145            0.000403370625           
       3.082645             0.00848707461            0.000383586212           
       3.085286               0.008575959            0.000385659938           
       3.087926             0.00750498756             0.00036307188           
       3.090566             0.00831476231            0.000386094108           
       3.093207              0.0073167738            0.000358269927           
       3.095847             0.00740885851            0.000368074227           
       3.098488             0.00760701859            0.000372287805           
       3.101128             0.00842196512            0.000393856156           
       3.103768             0.00876551924            0.000404072774           
       3.106409             0.00975178522            0.000429054057           
       3.109049             0.00990481769            0.000435768956           
       3.111690              0.0125147079            0.000487899119           
       3.114330              0.0125112028            0.000492171379           
       3.116970              0.0157626294            0.000560120126           
       3.119611              0.0167486945            0.000573617256           
       3.122251              0.0117136718            0.000483638065           
       3.124891             0.00886945689            0.000422888398           
       3.127532              0.0085446714            0.000422550489           
       3.130172              0.0076439357            0.000391437223           
       3.132813             0.00829355457            0.000416029531           
       3.135453             0.00869518452            0.000434969761           
       3.138093             0.00682488005             0.00037621694           
       3.140734              0.0066788601            0.000379097027           
       3.143374             0.00697025475            0.000393198841           
       3.146014             0.00574429785            0.000354358076           
       3.148655             0.00664583146            0.000384153158           
       3.151295             0.00675371227            0.000390323799           
       3.153936             0.00634826152            0.000384012715           
       3.156576             0.00741349333            0.000410218606           
       3.159216             0.00607979942            0.000374529551           
       3.161857             0.00680091878            0.000400977923           
       3.164497             0.00680094465             0.00040943345           
       3.167138             0.00622747943            0.000382391653           
       3.169778             0.00666546993            0.000402753836           
       3.172418             0.00631698751            0.000394375266           
       3.175059             0.00527472666            0.000365091154           
       3.177699             0.00612875921            0.000391984449           
       3.180339              0.0057327593            0.000382497949           
       3.182980             0.00673738111            0.000420258486           
       3.185620             0.00647732391            0.000416570806           
       3.188261             0.00570180058            0.000385717711           
       3.190901             0.00577801837             0.00039427026           
       3.193541             0.00538758906            0.000381971116           
       3.196182             0.00603001772            0.000412511452           
       3.198822             0.00656877833            0.000425326188           
       3.201463             0.00606861605            0.000414099602           
       3.204103             0.00559703875            0.000402980592           
       3.206743              0.0051874648             0.00039123611           
       3.209384             0.00607063561            0.000421345263           
       3.212024             0.00506385025            0.000386190449           
       3.214664             0.00596039984            0.000426971312           
       3.217305             0.00598706839            0.000437909131           
       3.219945             0.00588739905            0.000430617596           
       3.222586             0.00613943583            0.000442226874           
       3.225226             0.00566308763             0.00043429307           
       3.227866             0.00645366626             0.00046720381           
       3.230507             0.00575172278            0.000446327629           
       3.233147             0.00531382138            0.000422655572           
       3.235787             0.00582223674            0.000442533434           
       3.238428             0.00637336029            0.000471181901           
       3.241068             0.00598035892            0.000465678697           
       3.243709               0.005992361            0.000463558442           
       3.246349              0.0055473228            0.000443517243           
       3.248989             0.00559972213            0.000455792256           
       3.251630             0.00570854745            0.000462235894           
       3.254270             0.00561203805            0.000472399849           
       3.256911             0.00555795855            0.000458338999           
       3.259551             0.00509565985            0.000448561104           
       3.262191             0.00651253916            0.000511768731           
       3.264832             0.00524688823            0.000463666251           
       3.267472             0.00544288883            0.000478944275           
       3.270112             0.00555749654            0.000485338145           
       3.272753             0.00573842691            0.000499235922           
       3.275393             0.00584447171            0.000506421026           
       3.278034             0.00563379045              0.0005073382           
       3.280674             0.00428482835            0.000443733835           
       3.283314             0.00594670251            0.000525638327           
       3.285955             0.00565327231            0.000522132343           
       3.288595             0.00533198165            0.000512735233           
       3.291235             0.00658119681            0.000572987289           
       3.293876             0.00594898291            0.000547996573           
       3.296516             0.00778686867            0.000639744893           
       3.299157             0.00537963674            0.000539780107           
       3.301797              0.0057059174            0.000556144516           
       3.304437             0.00480825597            0.000520096611           
       3.307078              0.0061380737            0.000593341749           
       3.309718              0.0063694824              0.0006104564           
       3.312359             0.00526016524            0.000565965553           
       3.314999             0.00671741061            0.000646284121           
       3.317639             0.00429783448            0.000522515113           
       3.320280             0.00538581286            0.000593465961           
       3.322920             0.00523080277            0.000593613907           
       3.325560             0.00555590177             0.00062359602           
       3.328201             0.00497582567            0.000592639549           
       3.330841             0.00602293951            0.000667879784           
       3.333482             0.00564816781            0.000654979041           
       3.336122             0.00463799212            0.000606424445           
       3.338762             0.00391272604            0.000562089629           
       3.341403             0.00540002739            0.000666460149           
       3.344043             0.00482718603            0.000654169894           
       3.346683             0.00609632819            0.000742609243           
       3.349324             0.00612186829            0.000755682845           
       3.351964             0.00492411473            0.000699525932           
       3.354605             0.00593506712            0.000776681219           
       3.357245             0.00538677129            0.000765944661           
       3.359885             0.00552730477             0.00077615043           
       3.362526             0.00500244645            0.000776135111           
       3.365166             0.00566665812            0.000815857567           
       3.367807              0.0050692492            0.000826028584           
       3.370447             0.00574014306            0.000879332165           
       3.373087             0.00520082284            0.000883372885           
       3.375728              0.0051125622             0.00086922441           
       3.378368               0.006652285             0.00107140307           
       3.381008             0.00517926075            0.000937125893           
       3.383649              0.0045122675            0.000946629537           
       3.386289              0.0048851119            0.000985369151           
       3.388930             0.00660310269             0.00125815962           
       3.391570             0.00282670716            0.000823539042           
       3.394210             0.00268951554            0.000860724425           
       3.396851             0.00379641992             0.00110773863           
       3.399491             0.00456598538             0.00123688368           
       3.402131              0.0045969877             0.00146908212           
       3.404772             0.00499518984              0.0015320449           
       3.407412             0.00769328683             0.00235927822           
       3.410053             0.00524041498             0.00202755585           
       3.412693             0.00443199061              0.0026380707           
       3.415333             0.00653996442             0.00392642159           
