################################################################################
# EDF_DataBlockID                     0.Image.Psd
# EDF_BinarySize                      2105344
# EDF_HeaderSize                      2560
# ByteOrder                           LowByteFirst
# DataType                            FloatValue
# Dim_1                               512
# Dim_2                               1028
# Image                               0
# HeaderID                            EH:000000:000000:000000
# Size                                2105344
# Center_1                            304.9000
# Center_2                            588.7000
# Comment                             Xenocs_Cell_Window - front_window_open_only
# DDummy                              0.6
# Date                                2025-10-18T14:42:24
# Delta                               21.910000
# Dummy                               -1.5
# ExposureTime                        360
# Gamma                               15.360000
# Intensity1                          9.14083e-10
# PSize_1                             7.5e-05
# PSize_2                             7.5e-05
# Pressure                            0.033452
# SampleDistance                      0.115750
# SampleEnvKind                       large
# SampleEnvPN                         ElectroChemical cell
# SampleEnvSN                         1141
# Thickness                           0
# Wavelength                          1.541891e-10
# Wavelength                          1.54189e-10
# aux                                 0
# aux_dial                            0.002375
# beamx                               588.429
# beamx_dial                          588.429
# beamz                               657.855
# beamz_dial                          657.855
# det0x                               -0.000396875
# det0x_dial                          6.36905
# det0xvd                             -0.0005
# det0xvd_dial                        -0.0005
# det0y                               450.002
# det0y_dial                          481.635
# det0z                               0
# det0z_dial                          1.2295
# det0zvd                             0
# det0zvd_dial                        0
# mag                                 1.818
# mag_dial                            1.818
# om                                  0.2499
# om_dial                             -0.610199
# phi                                 -0.0120535
# phi_dial                            0
# ry                                  0.599993
# ry_dial                             0.599993
# s1bot                               0.8
# s1bot_dial                          -1.66094
# s1hl                                0.8
# s1hl_dial                           -0.608437
# s1hr                                0.8
# s1hr_dial                           0.970938
# s1top                               0.8
# s1top_dial                          -0.461562
# s2bot                               0.45
# s2bot_dial                          1.36109
# s2hl                                0.45
# s2hl_dial                           -0.83375
# s2hr                                0.45
# s2hr_dial                           -0.118594
# s2top                               0.45
# s2top_dial                          1.44734
# w2theta                             32
# w2theta_dial                        32
# waxsch                              19.2605
# waxsch_dial                         -32.7238
# waxsh                               137.085
# waxsh_dial                          -43.5335
# waxsth                              26.0607
# waxsth_dial                         -19.4068
# waxsz                               67.0407
# waxsz_dial                          -23.7962
# wind                                65.9854
# wind_dial                           66.0041
# wpsi                                124
# wpsi_dial                           124
# wstod                               115
# wstod_dial                          115
# x                                   0
# x_dial                              1.00969
# z                                   0
# z_dial                              13.3172
# CountCutoff                         6807993
# DetectorModel                       Dectris EIGER2 Si 500K, S/N E-01-0554
# ThresholdSetting                    4023.88989258
# Saturation                          0
# FlatField                           Corrected
# BackgroundReductionExtra            0.02
# BackgroundCorrectionConstant        0.0026712
# Detector                            0
# Monitor                             0
# Pil_Roi0                            0
# SumForIntensity1                    3.2907e+08
# TransmittedFlux                     914083
# det                                 0
# mon                                 0
# pilai0                              3.2907e+08
# pilai1                              710919
# pilct0                              5.69081e+08
# pilct1                              710919
# pilroi0                             0
# pilroi1                             0
# sec                                 1
# title                               20251017__1_00187.edf
# usaxs0                              0
# Operation                           Azimuthal average I(q)
# Error_model                         ErrorModel.poisson
# Geometrical_correction              True
# Transmission_correction             True
# Thickness_correction                False
# Binning mode                        Uniform
# Binning factor                      1.0
# Psi                                 0.0
# Omega                               0.2499
# MaskInvalidPixels                   True
# DetectorEdge                        3
# MaskFiles                           ['20251017__1_00233_mask.edf']
################################################################################
    q(A⁻¹)                Intensity(a.u.)            Sigma_I(a.u.)            
       0.690460             0.00754482705             0.00792203443           
       0.693100             0.00456904139             0.00275621044           
       0.695741             0.00228205693             0.00164561859           
       0.698381             0.00603448138             0.00250283425           
       0.701021             0.00610200595              0.0020540608           
       0.703662             0.00286335141             0.00130243676           
       0.706302              0.0042886516             0.00153941443           
       0.708942             0.00508056939             0.00148831648           
       0.711583              0.0047538128             0.00143939699           
       0.714223             0.00909447625             0.00173489271           
       0.716864             0.00509681086             0.00132533217           
       0.719504              0.0049423844             0.00120787115           
       0.722144             0.00891601427             0.00156683556           
       0.724785             0.00630531887             0.00129602827           
       0.727425             0.00497654107             0.00106797874           
       0.730065             0.00695220824             0.00129882835           
       0.732706             0.00562575401             0.00105065127           
       0.735346             0.00657562786             0.00122695651           
       0.737987             0.00595719733             0.00101080992           
       0.740627             0.00837873163             0.00131324405           
       0.743267              0.0064758523            0.000993093858           
       0.745908             0.00658636815             0.00107336636           
       0.748548             0.00695260471              0.0010285584           
       0.751189             0.00666821819            0.000997812895           
       0.753829             0.00649556552            0.000993694301           
       0.756469             0.00628405197             0.00091927242           
       0.759110             0.00528526322            0.000872009569           
       0.761750             0.00851763724              0.0010131312           
       0.764390             0.00690938574            0.000979502631           
       0.767031             0.00528372499            0.000775084126           
       0.769671             0.00532459513            0.000825175249           
       0.772312             0.00622173576            0.000812839689           
       0.774952             0.00761941137            0.000964331036           
       0.777592             0.00568124755            0.000761627067           
       0.780233               0.007340931            0.000912689247           
       0.782873             0.00680319471            0.000803456905           
       0.785513              0.0070624522            0.000870819803           
       0.788154             0.00684269956            0.000787316407           
       0.790794             0.00635788998            0.000785453296           
       0.793435             0.00694069019            0.000788239374           
       0.796075             0.00637520003            0.000759437767           
       0.798715             0.00619673709             0.00074445836           
       0.801356              0.0051980915            0.000663590262           
       0.803996             0.00617880527            0.000735047968           
       0.806637             0.00627405203             0.00070014921           
       0.809277             0.00706813616            0.000777442697           
       0.811917             0.00647975358            0.000704400604           
       0.814558             0.00670782423            0.000734202848           
       0.817198             0.00646435568             0.00068724079           
       0.819838              0.0064822712            0.000717858403           
       0.822479              0.0075308739            0.000713047845           
       0.825119              0.0055830897            0.000659540431           
       0.827760             0.00726704326            0.000697230766           
       0.830400             0.00768518063            0.000755459956           
       0.833040              0.0072693506            0.000685719433           
       0.835681             0.00768180205            0.000738185172           
       0.838321             0.00637668132            0.000629503787           
       0.840961             0.00716907798            0.000697670189           
       0.843602             0.00632483103            0.000617270598           
       0.846242             0.00595894441            0.000620304212           
       0.848883             0.00613694516            0.000612362743           
       0.851523             0.00629968862            0.000625078805           
       0.854163             0.00614853174            0.000610359794           
       0.856804             0.00675408839             0.00062334234           
       0.859444             0.00685358233            0.000632431376           
       0.862085             0.00704635388            0.000631935861           
       0.864725             0.00596960694             0.00057951711           
       0.867365             0.00673348582            0.000611071448           
       0.870006              0.0065140906            0.000609419538           
       0.872646             0.00617470568            0.000567509514           
       0.875286             0.00637403025            0.000596243071           
       0.877927             0.00613336796             0.00055999727           
       0.880567             0.00672077761            0.000597652331           
       0.883208             0.00558481356            0.000529073572           
       0.885848             0.00577259152            0.000551843904           
       0.888488             0.00730120966            0.000590101525           
       0.891129             0.00649873922            0.000585221766           
       0.893769             0.00637476971            0.000547878364           
       0.896410             0.00641970334            0.000566741764           
       0.899050             0.00698975928            0.000570195938           
       0.901690             0.00789912643             0.00061880604           
       0.904331             0.00687533379            0.000557158068           
       0.906971             0.00683929666            0.000573809272           
       0.909611             0.00680278565            0.000549288374           
       0.912252             0.00781003858            0.000598748788           
       0.914892             0.00650994361             0.00053280072           
       0.917533             0.00734466563            0.000578698977           
       0.920173             0.00684711888            0.000535984017           
       0.922813             0.00702046465            0.000567158628           
       0.925454             0.00713974132            0.000542820577           
       0.928094             0.00620377922            0.000516852494           
       0.930734             0.00684727266            0.000530037795           
       0.933375             0.00638222784            0.000522630671           
       0.936015             0.00658271466            0.000507855311           
       0.938656             0.00673570321            0.000535271349           
       0.941296              0.0064141065            0.000503531111           
       0.943936             0.00635617034            0.000510279271           
       0.946577             0.00710375408            0.000519527193           
       0.949217             0.00734740214            0.000547021312           
       0.951858             0.00779825103            0.000532774587           
       0.954498             0.00758260148            0.000552697739           
       0.957138             0.00703549502            0.000511701076           
       0.959779              0.0073496202            0.000534439205           
       0.962419             0.00656240277            0.000486167923           
       0.965059              0.0069446029            0.000514330773           
       0.967700             0.00722906167            0.000507789248           
       0.970340             0.00750405895            0.000531894965           
       0.972981             0.00731622486            0.000507091689           
       0.975621             0.00722590413            0.000514503738           
       0.978261             0.00804389485            0.000517941943           
       0.980902              0.0071625328            0.000512015345           
       0.983542              0.0069336983            0.000489101451           
       0.986182             0.00772676424            0.000523115172           
       0.988823             0.00743221849            0.000496493887           
       0.991463             0.00768962911            0.000517080952           
       0.994104             0.00721313013            0.000483923151           
       0.996744             0.00733043704            0.000503662436           
       0.999384             0.00735151371             0.00048726694           
       1.002025             0.00777389066            0.000515020494           
       1.004665             0.00753996124            0.000486435943           
       1.007306             0.00775384008            0.000509815909           
       1.009946             0.00803459085            0.000498999801           
       1.012586             0.00685707402            0.000474246675           
       1.015227             0.00762298303            0.000484895805           
       1.017867             0.00741526431            0.000491948582           
       1.020507             0.00804357758            0.000493078484           
       1.023148             0.00795534371            0.000496289497           
       1.025788             0.00752871752            0.000477854985           
       1.028429             0.00744483088            0.000485573254           
       1.031069             0.00806919365            0.000487048044           
       1.033709             0.00777388868            0.000487232838           
       1.036350             0.00794568897            0.000479670653           
       1.038990             0.00770480697            0.000484004966           
       1.041630             0.00651783466            0.000436600275           
       1.044271             0.00678022505            0.000445351739           
       1.046911             0.00834882172            0.000485007748           
       1.049552             0.00803048918             0.00049281352           
       1.052192             0.00921399476            0.000504142452           
       1.054832             0.00829261718            0.000487573147           
       1.057473             0.00710603388            0.000445630064           
       1.060113             0.00799969131            0.000477941809           
       1.062754             0.00869637168            0.000492807563           
       1.065394             0.00825582032            0.000475110767           
       1.068034             0.00741314068            0.000448467771           
       1.070675             0.00881951456            0.000497765495           
       1.073315             0.00839519159            0.000470799157           
       1.075955              0.0070769714            0.000439508626           
       1.078596             0.00855411501            0.000482249674           
       1.081236             0.00848866026            0.000473275727           
       1.083877             0.00781063108            0.000468162859           
       1.086517             0.00819585187            0.000468720329           
       1.089157             0.00798686168            0.000466098101           
       1.091798             0.00763169869            0.000445963652           
       1.094438             0.00688454187            0.000430302996           
       1.097078             0.00779463087            0.000446096108           
       1.099719             0.00834331121            0.000473358478           
       1.102359             0.00784366602            0.000434787337           
       1.105000             0.00849062302            0.000470178765           
       1.107640             0.00815247734            0.000445702643           
       1.110280              0.0082060075            0.000456117299           
       1.112921             0.00804151897            0.000443352751           
       1.115561             0.00833312487            0.000457047258           
       1.118202             0.00716090879            0.000411317238           
       1.120842              0.0079262287            0.000446373717           
       1.123482             0.00831711474            0.000444421268           
       1.126123             0.00779074726            0.000432812697           
       1.128763             0.00849666155            0.000449754128           
       1.131403              0.0083974232            0.000446424856           
       1.134044             0.00884557664            0.000457387163           
       1.136684             0.00849495077            0.000451598948           
       1.139325             0.00854182853            0.000440084193           
       1.141965             0.00834009036              0.0004405435           
       1.144605             0.00838048653             0.00044420307           
       1.147246             0.00883119592            0.000447355508           
       1.149886              0.0082949792            0.000436644908           
       1.152527              0.0081238122            0.000432549328           
       1.155167             0.00801292965            0.000423547233           
       1.157807             0.00892097693            0.000447209975           
       1.160448             0.00817210623            0.000433884507           
       1.163088             0.00911591372            0.000441253913           
       1.165728             0.00967040978            0.000473208588           
       1.168369             0.00817634934            0.000419587266           
       1.171009             0.00883899836            0.000439875666           
       1.173650             0.00914161852            0.000444116449           
       1.176290             0.00816665321            0.000424691513           
       1.178930             0.00872074371            0.000426525392           
       1.181571             0.00859892537            0.000437369231           
       1.184211             0.00879980212            0.000429085722           
       1.186851             0.00866207504            0.000429639957           
       1.189492             0.00860362306            0.000430565619           
       1.192132             0.00931402977            0.000441354303           
       1.194773             0.00980779115            0.000450169531           
       1.197413             0.00949006405            0.000446430034           
       1.200053             0.00916869698            0.000436045232           
       1.202694             0.00896838631            0.000428005915           
       1.205334              0.0091892683            0.000437980549           
       1.207975              0.0090224844            0.000425484304           
       1.210615             0.00921249914            0.000439032944           
       1.213255             0.00936342182            0.000430905047           
       1.215896              0.0097450372            0.000447930952           
       1.218536              0.0095274716            0.000430145869           
       1.221176             0.00998258042            0.000450809068           
       1.223817              0.0098157595            0.000437711469           
       1.226457             0.00900039411            0.000424461453           
       1.229098             0.00877082593            0.000412656449           
       1.231738             0.00879269232            0.000418988601           
       1.234378             0.00935149322            0.000423701691           
       1.237019              0.0103202724            0.000448698096           
       1.239659             0.00927128937            0.000425053576           
       1.242299             0.00911192362            0.000419230325           
       1.244940             0.00960848768            0.000425855038           
       1.247580             0.00873066835             0.00040772881           
       1.250221             0.00974543339             0.00043780444           
       1.252861              0.0101500306            0.000430153899           
       1.255501              0.0104295798            0.000448348388           
       1.258142             0.00980039301            0.000426021949           
       1.260782             0.00950847572            0.000424369173           
       1.263423             0.00971571622            0.000420470237           
       1.266063             0.00966974396            0.000427292713           
       1.268703             0.00902924645            0.000402495932           
       1.271344              0.0106286074            0.000446201811           
       1.273984             0.00978468859            0.000421437823           
       1.276624              0.0102058056            0.000427785154           
       1.279265             0.00980156111            0.000420142736           
       1.281905             0.00960526309            0.000418477929           
       1.284546              0.0102397475            0.000427358186           
       1.287186             0.00972392221            0.000416855144           
       1.289826             0.00991534927            0.000423121144           
       1.292467              0.0104501976            0.000426630239           
       1.295107              0.0102333022            0.000429621157           
       1.297747              0.0100058247            0.000413676461           
       1.300388              0.0100584444            0.000425413564           
       1.303028              0.0101268265            0.000416002564           
       1.305669              0.0102283688            0.000423484626           
       1.308309             0.00980690679            0.000408433002           
       1.310949             0.00972815451            0.000411859991           
       1.313590              0.0103409554            0.000418062396           
       1.316230              0.0101101331            0.000420810927           
       1.318871              0.0105622182            0.000420837393           
       1.321511             0.00966761806            0.000404638729           
       1.324151              0.0101247459            0.000415731068           
       1.326792              0.0105728125             0.00042138913           
       1.329432             0.00995489154            0.000411022739           
       1.332072              0.0113301293            0.000430976247           
       1.334713              0.0104284567            0.000418599655           
       1.337353              0.0110342387            0.000423962704           
       1.339994              0.0102773324            0.000414991237           
       1.342634               0.011065708            0.000420920005           
       1.345274              0.0123715587            0.000450882143           
       1.347915              0.0111327603            0.000428849908           
       1.350555              0.0111784108            0.000428049413           
       1.353195              0.0109819681            0.000416155114           
       1.355836              0.0109984797            0.000424325711           
       1.358476              0.0114744572            0.000432191212           
       1.361117              0.0102512541            0.000398258173           
       1.363757              0.0104723513            0.000415870175           
       1.366397              0.0100999092            0.000395689986           
       1.369038              0.0102496655            0.000407014366           
       1.371678               0.010267178            0.000399136419           
       1.374319              0.0107665302            0.000411969003           
       1.376959             0.00993912465            0.000390373467           
       1.379599              0.0107597283            0.000414086133           
       1.382240              0.0105963658            0.000403125578           
       1.384880              0.0108993102            0.000413867357           
       1.387520              0.0113470506             0.00041734532           
       1.390161               0.010223842            0.000395074607           
       1.392801             0.00955469975            0.000384203545           
       1.395442              0.0107857126            0.000403974447           
       1.398082              0.0110220742            0.000409774381           
       1.400722              0.0101655918            0.000391753657           
       1.403363               0.010440471            0.000400699085           
       1.406003              0.0100253538            0.000383010673           
       1.408644              0.0108176661            0.000406210252           
       1.411284              0.0100279775            0.000388957783           
       1.413924              0.0102224286            0.000387867227           
       1.416565              0.0105476695            0.000393526032           
       1.419205              0.0105235621            0.000396948054           
       1.421845              0.0102019693            0.000385922278           
       1.424486              0.0115017613            0.000411578893           
       1.427126              0.0105691012            0.000394290076           
       1.429767              0.0105024591            0.000386988269           
       1.432407             0.00992053868            0.000385589226           
       1.435047              0.0108570034            0.000391256283           
       1.437688               0.010354589            0.000390557722           
       1.440328              0.0100013359            0.000376399563           
       1.442968              0.0103882862            0.000388922209           
       1.445609              0.0103006077            0.000380907485           
       1.448249              0.0105475899            0.000387939276           
       1.450890              0.0103234704            0.000381057783           
       1.453530                0.01014715            0.000380587952           
       1.456170              0.0102950574            0.000382488628           
       1.458811              0.0110552527            0.000393205427           
       1.461451               0.010836189            0.000392151811           
       1.464092               0.010529859            0.000383199583           
       1.466732              0.0102160954            0.000375132115           
       1.469372              0.0103505855            0.000376432577           
       1.472013               0.010072178            0.000377979004           
       1.474653              0.0102497689            0.000371881791           
       1.477293              0.0108920609            0.000389809339           
       1.479934              0.0104720063            0.000378218422           
       1.482574              0.0102641165            0.000373521296           
       1.485215              0.0101532686            0.000372455495           
       1.487855              0.0103156731            0.000375344892           
       1.490495              0.0106258179            0.000380125624           
       1.493136               0.010561256            0.000373999203           
       1.495776              0.0105987594             0.00038119476           
       1.498416             0.00962643905            0.000356231317           
       1.501057              0.0102025825            0.000369891073           
       1.503697              0.0102194441            0.000366637272           
       1.506338              0.0101669573            0.000368383889           
       1.508978              0.0105697383            0.000373392356           
       1.511618              0.0103473372            0.000369256434           
       1.514259              0.0102713353            0.000368562271           
       1.516899             0.00973961014            0.000359062792           
       1.519540             0.00998753029            0.000361586233           
       1.522180              0.0101931743            0.000360727954           
       1.524820              0.0102501105            0.000369040152           
       1.527461             0.00995775986            0.000355692656           
       1.530101             0.00997241838            0.000359634684           
       1.532741             0.00975871847             0.00035407495           
       1.535382              0.0100490476            0.000360094613           
       1.538022              0.0107411591            0.000368994763           
       1.540663              0.0103528014            0.000365686403           
       1.543303              0.0104330637            0.000362532884           
       1.545943              0.0104436357            0.000364749304           
       1.548584              0.0104357849            0.000366553758           
       1.551224              0.0101170798            0.000351660379           
       1.553864             0.00979424969            0.000355043063           
       1.556505             0.00906013133            0.000336225016           
       1.559145             0.00967846047            0.000348312259           
       1.561786             0.00946330661            0.000342858671           
       1.564426             0.00946656168            0.000342607893           
       1.567066             0.00959756141            0.000342277742           
       1.569707             0.00930348393             0.00034187191           
       1.572347             0.00971278542            0.000344779161           
       1.574988             0.00917834312            0.000333833384           
       1.577628             0.00921448067            0.000342020904           
       1.580268             0.00936382443             0.00033288308           
       1.582909             0.00884128782            0.000329511742           
       1.585549             0.00942506788            0.000337037071           
       1.588189             0.00958962898            0.000343763749           
       1.590830             0.00880775214            0.000323796432           
       1.593470             0.00891752658            0.000328468626           
       1.596111             0.00946853835            0.000335539941           
       1.598751             0.00972549735            0.000343538811           
       1.601391             0.00913892361            0.000330888613           
       1.604032              0.0093596832            0.000332064858           
       1.606672             0.00921825335            0.000336179175           
       1.609312             0.00884114244            0.000319434644           
       1.611953             0.00972495433            0.000339875914           
       1.614593             0.00882813453            0.000321362594           
       1.617234             0.00869372129            0.000320714434           
       1.619874             0.00905734942            0.000323501858           
       1.622514             0.00927202144            0.000330207939           
       1.625155             0.00925266492            0.000329047318           
       1.627795             0.00872314547            0.000316264583           
       1.630436             0.00895660156            0.000323689875           
       1.633076             0.00846180448            0.000313023437           
       1.635716             0.00883838012            0.000319354974           
       1.638357             0.00848025023             0.00031148889           
       1.640997              0.0088010433            0.000319807349           
       1.643637             0.00915104566            0.000320049004           
       1.646278             0.00887373442            0.000319879819           
       1.648918             0.00891142188            0.000316425722           
       1.651559             0.00890413104            0.000320273113           
       1.654199              0.0088606482            0.000315110792           
       1.656839             0.00838727198            0.000306495389           
       1.659480             0.00808807847            0.000303629839           
       1.662120             0.00812341523            0.000300214766           
       1.664761             0.00910755332            0.000321322019           
       1.667401             0.00873354382            0.000311723886           
       1.670041             0.00864078311            0.000310418855           
       1.672682             0.00818361037            0.000299252661           
       1.675322             0.00857862236            0.000311807076           
       1.677962             0.00838211293            0.000302093967           
       1.680603             0.00865461029            0.000309689439           
       1.683243             0.00884850461            0.000310822785           
       1.685884             0.00820419271            0.000300431413           
       1.688524             0.00820352267            0.000299573919           
       1.691164             0.00864208617            0.000306687028           
       1.693805             0.00844415717             0.00030560617           
       1.696445             0.00867534779            0.000305462189           
       1.699085             0.00826386232            0.000299320161           
       1.701726             0.00820563957            0.000294384196           
       1.704366             0.00831480987            0.000303546535           
       1.707007             0.00840139949            0.000298611858           
       1.709647             0.00820940235            0.000298847679           
       1.712287             0.00834643833            0.000296295787           
       1.714928             0.00854866263            0.000302878981           
       1.717568             0.00814352231            0.000292896452           
       1.720209             0.00893740706            0.000308736024           
       1.722849             0.00841191723             0.00030000246           
       1.725489             0.00809339035            0.000289577391           
       1.728130             0.00850061746            0.000302814553           
       1.730770             0.00860914776            0.000298300003           
       1.733410             0.00816357192            0.000294291326           
       1.736051             0.00845795499            0.000294900893           
       1.738691             0.00857881949             0.00030003202           
       1.741332             0.00818486507            0.000291258028           
       1.743972             0.00802461699            0.000288499691           
       1.746612             0.00813116106            0.000290475414           
       1.749253             0.00884398888            0.000304249587           
       1.751893             0.00799504997              0.0002875432           
       1.754533             0.00859628376            0.000294066796           
       1.757174             0.00828378855            0.000294069508           
       1.759814             0.00838875119            0.000291415135           
       1.762455             0.00848035547            0.000295496381           
       1.765095             0.00870720353            0.000295217669           
       1.767735             0.00815994241            0.000290645919           
       1.770376              0.0089050872            0.000299022001           
       1.773016             0.00821972075            0.000287738156           
       1.775657             0.00819687924            0.000287926775           
       1.778297             0.00887541343             0.00030107277           
       1.780937             0.00840068206            0.000291543323           
       1.783578             0.00871512801            0.000295555188           
       1.786218             0.00856600501            0.000297691484           
       1.788858             0.00879017804            0.000294069257           
       1.791499             0.00815827898            0.000288523582           
       1.794139             0.00870754489            0.000292573687           
       1.796780              0.0081042474            0.000283933493           
       1.799420             0.00860219533            0.000292153876           
       1.802060             0.00919996812            0.000298418324           
       1.804701             0.00843183498            0.000289521659           
       1.807341             0.00918379377            0.000299236277           
       1.809981             0.00845859193            0.000289085923           
       1.812622             0.00921578332            0.000300103744           
       1.815262             0.00884382571            0.000295033362           
       1.817903              0.0091334014            0.000296120443           
       1.820543             0.00878053896            0.000293932568           
       1.823183             0.00902210262             0.00029335756           
       1.825824             0.00875374469            0.000293307237           
       1.828464             0.00880381884            0.000293242456           
       1.831105             0.00852344179            0.000289652252           
       1.833745             0.00854525162            0.000289841572           
       1.836385              0.0087447076            0.000292064309           
       1.839026             0.00827331007            0.000288353609           
       1.841666             0.00834431742            0.000285828171           
       1.844306             0.00797273203            0.000282918733           
       1.846947             0.00823885518            0.000283905862           
       1.849587             0.00857007245            0.000293483613           
       1.852228              0.0083633343            0.000286838548           
       1.854868              0.0082833812            0.000290699788           
       1.857508             0.00801726968            0.000280711367           
       1.860149             0.00804002106             0.00028336261           
       1.862789             0.00790309248            0.000282182427           
       1.865429             0.00876522562            0.000298071434           
       1.868070             0.00855883187            0.000293523433           
       1.870710             0.00806892812            0.000285775224           
       1.873351             0.00806767754            0.000287577351           
       1.875991             0.00886308088            0.000303050968           
       1.878631             0.00850676856            0.000294137343           
       1.881272             0.00799125218            0.000284417793           
       1.883912              0.0082642905             0.00029262796           
       1.886553             0.00854182405            0.000293932273           
       1.889193             0.00847211789            0.000296112002           
       1.891833             0.00814784421            0.000287085208           
       1.894474             0.00846120678            0.000294869124           
       1.897114             0.00802382317            0.000284919384           
       1.899754             0.00806688277            0.000288886758           
       1.902395             0.00834684007            0.000293919489           
       1.905035              0.0079614948            0.000285929745           
       1.907676             0.00791563466            0.000285436495           
       1.910316               0.008310022            0.000294325611           
       1.912956             0.00834384913             0.00029491233           
       1.915597             0.00817711039            0.000288907078           
       1.918237             0.00833547801            0.000296119135           
       1.920878             0.00822621231            0.000288965762           
       1.923518             0.00820971264            0.000296345534           
       1.926158             0.00848957153            0.000294429409           
       1.928799             0.00854686676            0.000299346972           
       1.931439              0.0084262523            0.000294845296           
       1.934079             0.00794350709            0.000289173866           
       1.936720             0.00781707515            0.000285174929           
       1.939360             0.00752968399            0.000282581146           
       1.942001             0.00847040004            0.000298560825           
       1.944641             0.00764276324            0.000282377828           
       1.947281              0.0084622823            0.000298567353           
       1.949922             0.00826935288            0.000295513658           
       1.952562             0.00766259399            0.000286913408           
       1.955202             0.00793329343             0.00028460252           
       1.957843             0.00770471752            0.000289382228           
       1.960483              0.0081770034            0.000293364405           
       1.963124             0.00746679327            0.000280127161           
       1.965764             0.00766908218            0.000283997878           
       1.968404             0.00773426776            0.000290302314           
       1.971045             0.00823593605            0.000292059994           
       1.973685             0.00826616221            0.000298055646           
       1.976326             0.00824913037            0.000296450284           
       1.978966             0.00725987958            0.000279423368           
       1.981606             0.00760969697            0.000283050763           
       1.984247             0.00783148676            0.000289649814           
       1.986887             0.00801184303            0.000295706023           
       1.989527             0.00832310119            0.000295116254           
       1.992168             0.00754711988            0.000287802781           
       1.994808             0.00850572285            0.000301980472           
       1.997449             0.00766550852            0.000286257174           
       2.000089             0.00750691493            0.000281612422           
       2.002729             0.00835524291            0.000303906441           
       2.005370             0.00833037411            0.000297685333           
       2.008010             0.00783026987            0.000292443244           
       2.010650             0.00739465561            0.000283379244           
       2.013291             0.00744602241            0.000285980347           
       2.015931             0.00740295392            0.000283111211           
       2.018572             0.00698328944            0.000278621429           
       2.021212             0.00748505475            0.000285868776           
       2.023852             0.00823459647            0.000301415694           
       2.026493             0.00804659643            0.000296649352           
       2.029133             0.00741229872            0.000282545278           
       2.031774             0.00759435301            0.000288767518           
       2.034414             0.00772957233            0.000289588377           
       2.037054              0.0082942808             0.00030376284           
       2.039695             0.00750641742            0.000283283832           
       2.042335             0.00759535829            0.000289807525           
       2.044975             0.00793773238            0.000293899514           
       2.047616             0.00773463744            0.000291358454           
       2.050256             0.00775067457            0.000288229564           
       2.052897             0.00752214717            0.000292358292           
       2.055537             0.00764369619            0.000286675944           
       2.058177             0.00747692302              0.0002860358           
       2.060818             0.00752413075            0.000287798792           
       2.063458             0.00749394599            0.000287616526           
       2.066098             0.00767173306             0.00028971682           
       2.068739             0.00757803397            0.000290944429           
       2.071379             0.00786332215            0.000291993685           
       2.074020             0.00788796865            0.000296455713           
       2.076660             0.00730409274            0.000283339091           
       2.079300             0.00772519351            0.000291350063           
       2.081941             0.00759595248            0.000290659043           
       2.084581              0.0070836722            0.000280894688           
       2.087222             0.00773075454             0.00029364391           
       2.089862             0.00704311775            0.000276786856           
       2.092502             0.00716490253            0.000284242103           
       2.095143             0.00740376692            0.000284811797           
       2.097783             0.00757361044             0.00029244344           
       2.100423             0.00703369938            0.000276422893           
       2.103064             0.00730020253            0.000286473189           
       2.105704             0.00759242599            0.000291032961           
       2.108345             0.00773817664            0.000295162032           
       2.110985             0.00778574455              0.0002919093           
       2.113625             0.00735668916            0.000288222801           
       2.116266             0.00733400945            0.000285648196           
       2.118906             0.00693186747            0.000277504473           
       2.121546             0.00792317489            0.000296448678           
       2.124187             0.00720330768             0.00028657066           
       2.126827             0.00717158397            0.000281454596           
       2.129468             0.00797881015            0.000299970492           
       2.132108             0.00778432078            0.000295678834           
       2.134748             0.00802136812            0.000299015908           
       2.137389             0.00748803678             0.00029132409           
       2.140029             0.00757318224            0.000292264236           
       2.142670             0.00767771032            0.000294755134           
       2.145310             0.00715869154            0.000285705366           
       2.147950             0.00766535488            0.000296785979           
       2.150591             0.00766702899            0.000294096295           
       2.153231             0.00758887617            0.000296919325           
       2.155871             0.00794564951            0.000299430836           
       2.158512             0.00699297654            0.000285968928           
       2.161152             0.00663986149            0.000271694548           
       2.163793              0.0076036421            0.000295475818           
       2.166433             0.00700851986            0.000278757859           
       2.169073             0.00707267811            0.000286568942           
       2.171714             0.00689873227            0.000277261107           
       2.174354             0.00726039138            0.000288782306           
       2.176995             0.00740998035            0.000289322044           
       2.179635             0.00754252717            0.000297422441           
       2.182275             0.00705114354            0.000281862463           
       2.184916              0.0076152129            0.000299110456           
       2.187556             0.00717886559            0.000285739208           
       2.190196             0.00753002088            0.000297244016           
       2.192837              0.0075880061            0.000295118793           
       2.195477             0.00741209419            0.000294491459           
       2.198118             0.00720671715            0.000285021876           
       2.200758             0.00735335965            0.000292378082           
       2.203398             0.00704696028            0.000281475326           
       2.206039             0.00747954959            0.000294418469           
       2.208679             0.00728861764            0.000287791312           
       2.211319             0.00723971091            0.000288174218           
       2.213960             0.00797177394            0.000299178012           
       2.216600             0.00733039569            0.000293649907           
       2.219241             0.00710511325              0.0002848993           
       2.221881              0.0068041452            0.000280253175           
       2.224521             0.00735835599            0.000290432485           
       2.227162              0.0068175736            0.000283947539           
       2.229802               0.007736785             0.00029757468           
       2.232443             0.00760331241            0.000296156424           
       2.235083             0.00749716604              0.0002923185           
       2.237723             0.00717893824            0.000288239409           
       2.240364             0.00719330448            0.000287060104           
       2.243004             0.00714415318             0.00028694196           
       2.245644             0.00740138755            0.000291387692           
       2.248285             0.00689233935            0.000283014119           
       2.250925              0.0075987708            0.000295774578           
       2.253566             0.00707053906            0.000286006613           
       2.256206             0.00716662968            0.000287080986           
       2.258846             0.00755572893            0.000294773884           
       2.261487             0.00710473724            0.000286335669           
       2.264127             0.00709426341            0.000288831772           
       2.266767             0.00679676898            0.000278141461           
       2.269408              0.0070688935            0.000287023754           
       2.272048             0.00676622036            0.000279084321           
       2.274689             0.00717100052            0.000288440781           
       2.277329             0.00706995311            0.000286020776           
       2.279969             0.00731616146            0.000291840317           
       2.282610             0.00701796077            0.000283043425           
       2.285250             0.00763463608            0.000299860321           
       2.287891             0.00743388559            0.000292905819           
       2.290531             0.00692087504             0.00028401217           
       2.293171             0.00745300989            0.000294714079           
       2.295812             0.00695199239            0.000283125177           
       2.298452             0.00729732442             0.00029192974           
       2.301092             0.00774621385            0.000302685249           
       2.303733             0.00673356301            0.000276625856           
       2.306373             0.00708913922            0.000290778102           
       2.309014             0.00730951435            0.000289573351           
       2.311654             0.00723866441            0.000290901376           
       2.314294             0.00669396362            0.000279131641           
       2.316935             0.00700509006            0.000286673356           
       2.319575             0.00724680739            0.000290485535           
       2.322215             0.00724495901            0.000294587314           
       2.324856             0.00717623731            0.000285824221           
       2.327496             0.00699619965             0.00028913256           
       2.330137             0.00695276013            0.000282917802           
       2.332777             0.00739370912             0.00029494226           
       2.335417             0.00722775133            0.000290737925           
       2.338058             0.00656991293            0.000278300895           
       2.340698             0.00731537162            0.000290774159           
       2.343339             0.00714167161            0.000292783771           
       2.345979             0.00721396077            0.000288389931           
       2.348619              0.0075763787            0.000301126583           
       2.351260             0.00706290755             0.00028456311           
       2.353900             0.00715214713            0.000292420916           
       2.356540             0.00724301063            0.000290225362           
       2.359181              0.0068682943            0.000286397493           
       2.361821              0.0076254454            0.000298094043           
       2.364462             0.00727080762            0.000295944536           
       2.367102             0.00660614085            0.000273935917           
       2.369742             0.00722959312            0.000296840634           
       2.372383               0.006836511            0.000280243411           
       2.375023             0.00693546588            0.000289618476           
       2.377663             0.00741708969            0.000293141113           
       2.380304             0.00701005387             0.00028893733           
       2.382944             0.00708681737             0.00028767349           
       2.385585             0.00730411099            0.000294811416           
       2.388225             0.00679419139            0.000283049774           
       2.390865             0.00712106481            0.000290520697           
       2.393506             0.00733595391            0.000293512668           
       2.396146             0.00722487864            0.000292247578           
       2.398787             0.00719551322            0.000291908163           
       2.401427             0.00728229722            0.000291880103           
       2.404067             0.00704054767            0.000291374864           
       2.406708             0.00700227524            0.000286929499           
       2.409348              0.0071636171            0.000292399513           
       2.411988             0.00639008166            0.000275279845           
       2.414629             0.00662454502            0.000281201676           
       2.417269             0.00699599944            0.000286353653           
       2.419910             0.00723842504            0.000294945946           
       2.422550             0.00749669427            0.000295605318           
       2.425190             0.00739251353            0.000302786344           
       2.427831              0.0071113789            0.000285804331           
       2.430471              0.0070034932             0.00029191895           
       2.433112             0.00715234119            0.000288043784           
       2.435752             0.00725628713            0.000297474282           
       2.438392             0.00634727448            0.000273542061           
       2.441033             0.00632080709            0.000274222004           
       2.443673             0.00775797746            0.000304613028           
       2.446313             0.00664785946            0.000280475575           
       2.448954             0.00720773907            0.000294610233           
       2.451594             0.00737335798             0.00029618787           
       2.454235             0.00748345429            0.000297462498           
       2.456875              0.0077860598            0.000304953995           
       2.459515             0.00779991264            0.000305695782           
       2.462156             0.00740831973            0.000296387517           
       2.464796             0.00797709157            0.000312979731           
       2.467436             0.00779032332            0.000302808719           
       2.470077             0.00778784247            0.000306935439           
       2.472717             0.00771626833            0.000301698873           
       2.475358             0.00801958665            0.000311056081           
       2.477998             0.00795196232            0.000308089322           
       2.480638             0.00727177213            0.000295334088           
       2.483279             0.00794522642            0.000310033277           
       2.485919             0.00739906977            0.000297092802           
       2.488560             0.00694064316            0.000288935646           
       2.491200             0.00745894369            0.000299119061           
       2.493840             0.00749533112            0.000298215236           
       2.496481             0.00726139106            0.000297362854           
       2.499121             0.00760537014            0.000300272605           
       2.501761             0.00688913562            0.000290636764           
       2.504402             0.00690715598            0.000285439576           
       2.507042             0.00710526593            0.000294316613           
       2.509683             0.00759715596            0.000301562229           
       2.512323             0.00682511168            0.000286948202           
       2.514963               0.011075314            0.000366260021           
       2.517604              0.0220921345            0.000515260399           
       2.520244              0.0469864689            0.000751604333           
       2.522884               0.010901041            0.000361231658           
       2.525525              0.0103300792            0.000354532782           
       2.528165              0.0163238624            0.000443637278           
       2.530806              0.0190816779            0.000477849962           
       2.533446              0.0101609268             0.00035179718           
       2.536086              0.0124181496            0.000385650444           
       2.538727              0.0157539771            0.000437155369           
       2.541367              0.0103849437            0.000353915157           
       2.544008              0.0132777381            0.000400522468           
       2.546648             0.00795150607            0.000310300449           
       2.549288             0.00776398967            0.000306663927           
       2.551929             0.00746937257            0.000301782785           
       2.554569             0.00722259311            0.000294043816           
       2.557209             0.00722374857            0.000297389934           
       2.559850             0.00685886268            0.000286449491           
       2.562490             0.00686576433            0.000288680315           
       2.565131              0.0072514685            0.000297194433           
       2.567771             0.00714136174             0.00029336636           
       2.570411             0.00656003302            0.000284594046           
       2.573052             0.00725822802            0.000295861738           
       2.575692             0.00696989069            0.000290694641           
       2.578332             0.00676324046            0.000285506913           
       2.580973             0.00623335326            0.000276316714           
       2.583613             0.00733399184            0.000296989229           
       2.586254             0.00734532517             0.00029984808           
       2.588894              0.0071916888            0.000295112994           
       2.591534             0.00694751619            0.000290593417           
       2.594175             0.00703461488            0.000294106646           
       2.596815             0.00728776571             0.00029656857           
       2.599456             0.00651834128            0.000282771278           
       2.602096             0.00743699047            0.000300910312           
       2.604736             0.00680046587            0.000288499662           
       2.607377             0.00656666335            0.000282412797           
       2.610017             0.00732209582            0.000298110958           
       2.612657              0.0069402885            0.000292284675           
       2.615298             0.00697452426            0.000290138601           
       2.617938             0.00692579967            0.000291652645           
       2.620579             0.00669597747            0.000284430252           
       2.623219             0.00699248642            0.000295308906           
       2.625859             0.00749350072            0.000300553101           
       2.628500             0.00651849922            0.000284799156           
       2.631140             0.00705911596            0.000291147545           
       2.633780             0.00674183032            0.000288183739           
       2.636421             0.00707302086            0.000292491333           
       2.639061             0.00705583675            0.000295628701           
       2.641702              0.0072962496            0.000297409319           
       2.644342             0.00717745709             0.00029739801           
       2.646982              0.0070336684            0.000294154054           
       2.649623             0.00713750901            0.000298093832           
       2.652263             0.00688028741            0.000290344309           
       2.654904             0.00700998638            0.000294659431           
       2.657544              0.0073813611            0.000300236615           
       2.660184              0.0075116585            0.000303262356           
       2.662825             0.00721180039            0.000297859982           
       2.665465             0.00695877328            0.000293129238           
       2.668105             0.00737364795            0.000301860245           
       2.670746             0.00687208661            0.000288947318           
       2.673386             0.00722564406            0.000299877897           
       2.676027             0.00673735421            0.000287106569           
       2.678667             0.00678566611             0.00028963204           
       2.681307               0.007406175            0.000300205595           
       2.683948             0.00761146122            0.000307360206           
       2.686588             0.00703657274            0.000292813073           
       2.689229             0.00733365462            0.000301613262           
       2.691869              0.0072984759            0.000297885656           
       2.694509             0.00752588387            0.000306639172           
       2.697150             0.00753570851            0.000301941987           
       2.699790             0.00758597124            0.000309240177           
       2.702430             0.00644923897            0.000279664283           
       2.705071             0.00702050329            0.000295781027           
       2.707711             0.00676109514            0.000287386678           
       2.710352             0.00666524857            0.000286966507           
       2.712992              0.0069673556            0.000294351835           
       2.715632             0.00613434158            0.000274624509           
       2.718273             0.00682022635             0.00029053208           
       2.720913             0.00728174943            0.000300702503           
       2.723553             0.00695305512            0.000292816313           
       2.726194             0.00661009231            0.000286880274           
       2.728834              0.0069041515            0.000290585704           
       2.731475             0.00644409299             0.00028319078           
       2.734115              0.0068272822            0.000289752071           
       2.736755             0.00684862813            0.000292123066           
       2.739396             0.00727010166            0.000299386122           
       2.742036             0.00708034219            0.000297469725           
       2.744677             0.00722765595            0.000300987792           
       2.747317             0.00736623736            0.000302383415           
       2.749957             0.00728512754            0.000302895576           
       2.752598             0.00664987348            0.000290259809           
       2.755238             0.00663817982            0.000289873787           
       2.757878              0.0067835054            0.000292195304           
       2.760519             0.00708795632            0.000295526726           
       2.763159             0.00652099123            0.000288069857           
       2.765800             0.00733483965            0.000300342265           
       2.768440             0.00669827389            0.000290794639           
       2.771080             0.00751466325            0.000305410796           
       2.773721             0.00714251936            0.000301405243           
       2.776361              0.0066302349            0.000287276333           
       2.779001             0.00643743231            0.000286044124           
       2.781642             0.00663840979            0.000288492924           
       2.784282             0.00703797517             0.00029715188           
       2.786923             0.00682843142            0.000290468813           
       2.789563             0.00686682884            0.000291869484           
       2.792203             0.00663959796            0.000288826605           
       2.794844             0.00645071232            0.000283393258           
       2.797484             0.00653989635            0.000285747605           
       2.800125              0.0070448348            0.000296190403           
       2.802765             0.00609357862            0.000280575054           
       2.805405             0.00625805691             0.00028023209           
       2.808046             0.00669012109            0.000294187237           
       2.810686             0.00695756846            0.000296813145           
       2.813326             0.00705123493            0.000302501257           
       2.815967             0.00682932428            0.000295827036           
       2.818607             0.00689946597            0.000300314662           
       2.821248              0.0066785272            0.000291782957           
       2.823888             0.00662030348            0.000295187436           
       2.826528              0.0063912995            0.000288306645           
       2.829169             0.00645007724            0.000288350643           
       2.831809             0.00687681016            0.000297997299           
       2.834449              0.0064173743            0.000282845982           
       2.837090             0.00647222961            0.000285761707           
       2.839730             0.00669375068            0.000288547092           
       2.842371             0.00713147539            0.000299907315           
       2.845011             0.00666015664            0.000289181099           
       2.847651             0.00675817194            0.000291836185           
       2.850292             0.00665224574            0.000287894935           
       2.852932             0.00637442083            0.000282324352           
       2.855573             0.00687665979               0.000295811           
       2.858213             0.00699338399             0.00029496385           
       2.860853             0.00679858822            0.000293003645           
       2.863494             0.00664219734            0.000290311348           
       2.866134             0.00637196801            0.000288332962           
       2.868774             0.00714031146            0.000300549963           
       2.871415             0.00705276027            0.000301658061           
       2.874055             0.00664299036            0.000294213862           
       2.876696              0.0063066962            0.000284088668           
       2.879336             0.00714171142            0.000304317861           
       2.881976             0.00683861858            0.000297545167           
       2.884617             0.00680525345            0.000295169555           
       2.887257             0.00661036685            0.000288883981           
       2.889897             0.00688865826            0.000298282385           
       2.892538             0.00695227063            0.000297578784           
       2.895178             0.00716239419            0.000298962135           
       2.897819             0.00692867948            0.000297068216           
       2.900459             0.00625747619            0.000279975367           
       2.903099             0.00680634189             0.00029352076           
       2.905740             0.00662331975            0.000286315444           
       2.908380             0.00661874285            0.000290031996           
       2.911021             0.00706503972             0.00030022045           
       2.913661             0.00653292715            0.000285516398           
       2.916301             0.00686389784            0.000296822801           
       2.918942             0.00718153898            0.000299032773           
       2.921582             0.00680177542            0.000294072168           
       2.924222             0.00721475626            0.000301111469           
       2.926863             0.00661047716            0.000288991397           
       2.929503             0.00724685205            0.000305941028           
       2.932144             0.00740913435               0.000304274           
       2.934784             0.00803448776            0.000318201299           
       2.937424             0.00687757171            0.000294946296           
       2.940065             0.00696476096            0.000297051541           
       2.942705             0.00633769435              0.0002842248           
       2.945346             0.00673880039              0.0002913499           
       2.947986             0.00734279041            0.000305189947           
       2.950626             0.00787171091            0.000316962234           
       2.953267             0.00943073287            0.000343247442           
       2.955907              0.0100878892            0.000359698716           
       2.958547             0.00856259088            0.000327993456           
       2.961188             0.00837304373             0.00032717425           
       2.963828             0.00766622883            0.000311286405           
       2.966469             0.00671217414            0.000291345977           
       2.969109             0.00679317765            0.000294597705           
       2.971749             0.00737681204            0.000306089162           
       2.974390             0.00815449965              0.0003227025           
       2.977030              0.0096973664            0.000351239427           
       2.979670             0.00993388469            0.000353205034           
       2.982311              0.0080730517            0.000320707559           
       2.984951             0.00773822666            0.000314798409           
       2.987592             0.00790527983            0.000317104279           
       2.990232             0.00650732936            0.000288437976           
       2.992872             0.00755314201             0.00030832143           
       2.995513             0.00848914804            0.000329435225           
       2.998153             0.00879368981            0.000337455442           
       3.000794              0.0115185649             0.00038059579           
       3.003434               0.033175497            0.000652761189           
       3.006074              0.0583835575            0.000868736933           
       3.008715              0.0314549756            0.000642513386           
       3.011355              0.0237136242            0.000563676157           
       3.013995              0.0201104267            0.000516549967           
       3.016636              0.0309221323            0.000641726447           
       3.019276               0.148842086             0.00144156607           
       3.021917               0.267748899             0.00190067008           
       3.024557               0.131039618             0.00134028639           
       3.027197               0.112506791             0.00126274107           
       3.029838               0.103514697             0.00120543614           
       3.032478              0.0581156597            0.000908609286           
       3.035118              0.0425959313            0.000781887722           
       3.037759              0.0952790408             0.00117144861           
       3.040399               0.155141273              0.0015119224           
       3.043040              0.0617188242            0.000962880557           
       3.045680              0.0580804821            0.000919682813           
       3.048320               0.107036057             0.00126853283           
       3.050961               0.275554332             0.00205576493           
       3.053601               0.081821722              0.0011152681           
       3.056242              0.0496690148            0.000874517447           
       3.058882               0.213334117             0.00183936854           
       3.061522                0.18378717             0.00169541777           
       3.064163              0.0253659201             0.00063100671           
       3.066803               0.021170776            0.000587617708           
       3.069443              0.0354519263             0.00075534307           
       3.072084              0.0940689111             0.00124135577           
       3.074724              0.0277378832            0.000678057945           
       3.077365              0.0102493957            0.000411877658           
       3.080005             0.00949628523            0.000400853322           
       3.082645             0.00889276203            0.000389881491           
       3.085286               0.008582752            0.000383095249           
       3.087926             0.00793218983            0.000370633336           
       3.090566             0.00789264518             0.00037351655           
       3.093207             0.00721738364             0.00035332205           
       3.095847             0.00788940907            0.000377148427           
       3.098488               0.007647294            0.000370642972           
       3.101128             0.00793484676            0.000379603751           
       3.103768             0.00921470763            0.000411378747           
       3.106409              0.0093046415             0.00041615017           
       3.109049              0.0102803752            0.000440826641           
       3.111690              0.0120277028            0.000474942817           
       3.114330              0.0110359927            0.000458989583           
       3.116970              0.0123515986            0.000492332759           
       3.119611              0.0164998529            0.000565330046           
       3.122251              0.0133705612            0.000513072894           
       3.124891              0.0102410411            0.000451210934           
       3.127532             0.00785268854            0.000402226256           
       3.130172             0.00757346735            0.000386884466           
       3.132813              0.0080393802            0.000406719874           
       3.135453             0.00935621529            0.000448022756           
       3.138093             0.00752452724            0.000392248011           
       3.140734             0.00649736968            0.000371277216           
       3.143374             0.00632940262             0.00037204851           
       3.146014             0.00686181524             0.00038456847           
       3.148655             0.00543547836            0.000344968099           
       3.151295             0.00606997859             0.00036743256           
       3.153936             0.00653869759            0.000386984999           
       3.156576              0.0068831195            0.000392488434           
       3.159216             0.00642517541            0.000382308772           
       3.161857             0.00573571469            0.000365645929           
       3.164497             0.00753260784            0.000427859997           
       3.167138             0.00614268925              0.0003771046           
       3.169778             0.00599208204            0.000379178303           
       3.172418             0.00574157272            0.000373336455           
       3.175059             0.00605389782            0.000388373133           
       3.177699             0.00612079337            0.000388970552           
       3.180339             0.00593474375            0.000386436862           
       3.182980             0.00636483917            0.000405597208           
       3.185620             0.00586142903            0.000393480381           
       3.188261              0.0059015467            0.000389651899           
       3.190901             0.00675467719            0.000423289177           
       3.193541             0.00642645917            0.000414237559           
       3.196182               0.005637804            0.000396060933           
       3.198822             0.00552166415            0.000387208711           
       3.201463             0.00620552525            0.000415795286           
       3.204103             0.00596375439            0.000413042892           
       3.206743              0.0058384573             0.00041213615           
       3.209384             0.00532749452            0.000391933913           
       3.212024             0.00591462025            0.000414433487           
       3.214664             0.00566264698            0.000413238757           
       3.217305             0.00602800151            0.000436308699           
       3.219945             0.00605854538            0.000433755029           
       3.222586              0.0057739674            0.000425841877           
       3.225226             0.00538996973            0.000420706989           
       3.227866             0.00618637331            0.000454204561           
       3.230507              0.0056006824             0.00043732628           
       3.233147             0.00583715813            0.000439859683           
       3.235787             0.00593385755            0.000443608665           
       3.238428             0.00527927558            0.000425815863           
       3.241068             0.00550681144            0.000443714023           
       3.243709             0.00706937806            0.000499949822           
       3.246349             0.00598998693            0.000457627413           
       3.248989             0.00537601967            0.000443449769           
       3.251630             0.00523406332            0.000439491672           
       3.254270             0.00547243574            0.000463201638           
       3.256911             0.00625509164            0.000482810051           
       3.259551             0.00599983036            0.000483304888           
       3.262191              0.0057835831            0.000478880738           
       3.264832             0.00578033063            0.000483238163           
       3.267472             0.00656658993            0.000522360714           
       3.270112             0.00511121537            0.000462165178           
       3.272753             0.00510577251             0.00046759562           
       3.275393             0.00575694083            0.000499074392           
       3.278034             0.00528138419            0.000487754634           
       3.280674             0.00626172385            0.000532639158           
       3.283314             0.00463822852            0.000460951565           
       3.285955             0.00557353236            0.000514785388           
       3.288595              0.0058403546            0.000532842369           
       3.291235             0.00536032991            0.000513474184           
       3.293876             0.00514019932            0.000505797603           
       3.296516             0.00705375036            0.000604596669           
       3.299157             0.00714820192            0.000617830167           
       3.301797             0.00551733197            0.000543024946           
       3.304437             0.00473558358             0.00051251584           
       3.307078             0.00520726339            0.000542655158           
       3.309718             0.00429085789            0.000497513593           
       3.312359             0.00541189433            0.000570026787           
       3.314999             0.00595647033            0.000604292681           
       3.317639             0.00557279625            0.000590800564           
       3.320280              0.0063330298            0.000639007942           
       3.322920             0.00699393649            0.000681570902           
       3.325560             0.00505780029            0.000590795527           
       3.328201             0.00655174159            0.000675253333           
       3.330841             0.00433778802            0.000562805735           
       3.333482             0.00444812166            0.000577154706           
       3.336122             0.00503446908             0.00062736291           
       3.338762             0.00593285532            0.000687271026           
       3.341403             0.00481324763            0.000624777832           
       3.344043             0.00431848197            0.000614383291           
       3.346683             0.00503341996            0.000670020467           
       3.349324             0.00656730948            0.000777180005           
       3.351964              0.0060025153            0.000766896366           
       3.354605             0.00486494877            0.000698231482           
       3.357245             0.00402729419            0.000657612573           
       3.359885             0.00466697736            0.000708169712           
       3.362526             0.00611997236            0.000852415115           
       3.365166             0.00526999983            0.000781243551           
       3.367807              0.0052428598            0.000834137569           
       3.370447             0.00406569761             0.00073483434           
       3.373087             0.00554997918            0.000906116453           
       3.375728             0.00491630382             0.00084637392           
       3.378368             0.00484030019            0.000907473428           
       3.381008             0.00396684287            0.000814360787           
       3.383649             0.00559935876             0.00104708535           
       3.386289             0.00582875523             0.00106875933           
       3.388930             0.00205278838            0.000696568951           
       3.391570             0.00395819077            0.000967659242           
       3.394210             0.00506217342             0.00117253526           
       3.396851               0.007482658             0.00154421736           
       3.399491             0.00515917108             0.00130551502           
       3.402131             0.00453545387             0.00144893894           
       3.404772             0.00356788186              0.0012856745           
       3.407412              0.0069057717             0.00221952279           
       3.410053             0.00369270923              0.0016900239           
       3.412693             0.00435797864             0.00259752579           
       3.415333             0.00422384318             0.00313323836           
