################################################################################
# EDF_DataBlockID                     0.Image.Psd
# EDF_BinarySize                      2105344
# EDF_HeaderSize                      2560
# ByteOrder                           LowByteFirst
# DataType                            FloatValue
# Dim_1                               512
# Dim_2                               1028
# Image                               0
# HeaderID                            EH:000000:000000:000000
# Size                                2105344
# Center_1                            304.9000
# Center_2                            588.7000
# Comment                             Xenocs_Cell_Window - front_window_open_only
# DDummy                              0.6
# Date                                2025-10-18T05:47:32
# Delta                               21.910000
# Dummy                               -1.5
# ExposureTime                        360
# Gamma                               15.360000
# Intensity1                          9.18181e-10
# PSize_1                             7.5e-05
# PSize_2                             7.5e-05
# Pressure                            0.0339556
# SampleDistance                      0.115750
# SampleEnvKind                       large
# SampleEnvPN                         ElectroChemical cell
# SampleEnvSN                         1141
# Thickness                           0
# Wavelength                          1.541891e-10
# Wavelength                          1.54189e-10
# aux                                 0
# aux_dial                            0.002375
# beamx                               588.429
# beamx_dial                          588.429
# beamz                               657.855
# beamz_dial                          657.855
# det0x                               -0.000396875
# det0x_dial                          6.36905
# det0xvd                             -0.0005
# det0xvd_dial                        -0.0005
# det0y                               450.002
# det0y_dial                          481.635
# det0z                               0
# det0z_dial                          1.2295
# det0zvd                             0
# det0zvd_dial                        0
# mag                                 1.818
# mag_dial                            1.818
# om                                  0.2499
# om_dial                             -0.610199
# phi                                 -0.0120535
# phi_dial                            0
# ry                                  0.599993
# ry_dial                             0.599993
# s1bot                               0.8
# s1bot_dial                          -1.66094
# s1hl                                0.8
# s1hl_dial                           -0.608437
# s1hr                                0.8
# s1hr_dial                           0.970938
# s1top                               0.8
# s1top_dial                          -0.461562
# s2bot                               0.45
# s2bot_dial                          1.36109
# s2hl                                0.45
# s2hl_dial                           -0.83375
# s2hr                                0.45
# s2hr_dial                           -0.118594
# s2top                               0.45
# s2top_dial                          1.44734
# w2theta                             32
# w2theta_dial                        32
# waxsch                              19.2605
# waxsch_dial                         -32.7238
# waxsh                               137.085
# waxsh_dial                          -43.5335
# waxsth                              26.0607
# waxsth_dial                         -19.4068
# waxsz                               67.0407
# waxsz_dial                          -23.7962
# wind                                65.9854
# wind_dial                           66.0041
# wpsi                                124
# wpsi_dial                           124
# wstod                               115
# wstod_dial                          115
# x                                   0
# x_dial                              1.00969
# z                                   0
# z_dial                              13.3172
# CountCutoff                         6807993
# DetectorModel                       Dectris EIGER2 Si 500K, S/N E-01-0554
# ThresholdSetting                    4023.88989258
# Saturation                          0
# FlatField                           Corrected
# BackgroundReductionExtra            0.02
# BackgroundCorrectionConstant        0.0026712
# Detector                            0
# Monitor                             0
# Pil_Roi0                            0
# SumForIntensity1                    3.30545e+08
# TransmittedFlux                     918181
# det                                 0
# mon                                 0
# pilai0                              3.30545e+08
# pilai1                              711202
# pilct0                              5.70991e+08
# pilct1                              711202
# pilroi0                             0
# pilroi1                             0
# sec                                 1
# title                               20251017__1_00106.edf
# usaxs0                              0
# Operation                           Azimuthal average I(q)
# Error_model                         ErrorModel.poisson
# Geometrical_correction              True
# Transmission_correction             True
# Thickness_correction                False
# Binning mode                        Uniform
# Binning factor                      1.0
# Psi                                 0.0
# Omega                               0.2499
# MaskInvalidPixels                   True
# DetectorEdge                        3
# MaskFiles                           ['20251017__1_00233_mask.edf']
################################################################################
    q(A⁻¹)                Intensity(a.u.)            Sigma_I(a.u.)            
       0.690460              0.0150444259               0.011161654           
       0.693100             0.00151211366             0.00158205184           
       0.695741              0.0079056466              0.0030560701           
       0.698381             0.00497810779             0.00226815603           
       0.701021             0.00803654406             0.00235201621           
       0.703662             0.00795656149             0.00216626058           
       0.706302             0.00753416155             0.00203582902           
       0.708942              0.0105979535             0.00214476033           
       0.711583             0.00387155661             0.00129607766           
       0.714223             0.00747034724             0.00156885511           
       0.716864             0.00811000002             0.00166807117           
       0.719504             0.00639935829              0.0013713529           
       0.722144             0.00672732461             0.00135796288           
       0.724785             0.00813718659             0.00146901676           
       0.727425             0.00450055033             0.00101335191           
       0.730065              0.0073555476             0.00133298893           
       0.732706             0.00851121474             0.00128941482           
       0.735346             0.00608264942             0.00117743141           
       0.737987             0.00642185079             0.00104714609           
       0.740627             0.00610236993             0.00111823796           
       0.743267             0.00734733593              0.0010554446           
       0.745908             0.00555396628             0.00098345675           
       0.748548             0.00662805401             0.00100202111           
       0.751189              0.0060374189            0.000947323981           
       0.753829             0.00735806172             0.00105524838           
       0.756469             0.00809504403              0.0010410285           
       0.759110             0.00720918693             0.00101615451           
       0.761750             0.00524937885            0.000793576397           
       0.764390             0.00615117492            0.000922133056           
       0.767031             0.00563728136            0.000798807733           
       0.769671             0.00542317707            0.000830918551           
       0.772312             0.00628613117            0.000815210012           
       0.774952             0.00577809038            0.000837888565           
       0.777592             0.00706688656            0.000847545921           
       0.780233             0.00693804337            0.000885308294           
       0.782873             0.00750083085            0.000841762334           
       0.785513             0.00616587778            0.000811851611           
       0.788154             0.00762984096            0.000829510665           
       0.790794             0.00835455064             0.00089836759           
       0.793435             0.00744841418            0.000814736868           
       0.796075             0.00590024237            0.000728968688           
       0.798715             0.00723174878            0.000802433787           
       0.801356             0.00686635521            0.000760974042           
       0.803996             0.00553983194            0.000694449048           
       0.806637             0.00648852299            0.000710424834           
       0.809277             0.00692890421            0.000768027692           
       0.811917             0.00720442753             0.00074108646           
       0.814558             0.00699783541            0.000748231099           
       0.817198              0.0069529343            0.000711146431           
       0.819838             0.00659832844            0.000722638041           
       0.822479             0.00589103862            0.000629246175           
       0.825119             0.00692068649            0.000732668254           
       0.827760             0.00571082744            0.000616702706           
       0.830400             0.00595234975            0.000663372243           
       0.833040             0.00633329057            0.000638619274           
       0.835681             0.00674811758            0.000690325232           
       0.838321             0.00776415937            0.000693069643           
       0.840961             0.00524873264            0.000595627039           
       0.843602             0.00769041177            0.000679132618           
       0.846242             0.00790597191            0.000712896302           
       0.848883             0.00640707684            0.000624297032           
       0.851523             0.00662959745            0.000639804773           
       0.854163             0.00648070737             0.00062523039           
       0.856804             0.00780623898            0.000668640754           
       0.859444             0.00640116342            0.000609835516           
       0.862085             0.00622739228            0.000592751352           
       0.864725             0.00706125577            0.000628873118           
       0.867365             0.00725145582             0.00063272251           
       0.870006             0.00621530704            0.000593949383           
       0.872646             0.00592337358            0.000554597928           
       0.875286             0.00588954153            0.000571854699           
       0.877927             0.00679273878            0.000588013805           
       0.880567             0.00610309652            0.000568254181           
       0.883208             0.00775474415            0.000622048334           
       0.885848             0.00630580396            0.000575479335           
       0.888488             0.00755542427            0.000598945658           
       0.891129             0.00688421784            0.000600982578           
       0.893769              0.0071842361            0.000580324444           
       0.896410             0.00668239112            0.000576928972           
       0.899050             0.00547758054            0.000503635182           
       0.901690             0.00691034049            0.000577488579           
       0.904331             0.00768065803            0.000587569724           
       0.906971             0.00639491769            0.000553615174           
       0.909611              0.0058266585            0.000507218939           
       0.912252             0.00736420143            0.000580108932           
       0.914892             0.00604639841            0.000512334068           
       0.917533             0.00654178131            0.000544933336           
       0.920173              0.0070203826            0.000541510598           
       0.922813             0.00742422942            0.000581937001           
       0.925454             0.00761352991            0.000559289619           
       0.928094             0.00694078228            0.000545470571           
       0.930734             0.00641422002            0.000511856968           
       0.933375             0.00686246941            0.000540726454           
       0.936015             0.00673960721            0.000512723759           
       0.938656             0.00607120273            0.000507047398           
       0.941296             0.00686455246            0.000519748213           
       0.943936             0.00616792012            0.000501543029           
       0.946577             0.00665851135            0.000501858822           
       0.949217             0.00682307945            0.000525964245           
       0.951858             0.00733768198            0.000515647603           
       0.954498             0.00737630222             0.00054390943           
       0.957138             0.00611103029            0.000475833357           
       0.959779             0.00820884573            0.000563554047           
       0.962419             0.00737971983            0.000514402964           
       0.965059             0.00653854152            0.000497952491           
       0.967700             0.00736516435               0.000511402           
       0.970340             0.00653265969            0.000495166715           
       0.972981             0.00741730745            0.000509442034           
       0.975621             0.00730993029            0.000516330428           
       0.978261             0.00701961831            0.000482762251           
       0.980902             0.00749465737             0.00052258173           
       0.983542             0.00659764728            0.000476035886           
       0.986182             0.00808777908            0.000534000656           
       0.988823             0.00716423163             0.00048637153           
       0.991463              0.0082726265            0.000535126203           
       0.994104             0.00726937098            0.000484720735           
       0.996744             0.00760825258            0.000511971463           
       0.999384             0.00675903302             0.00046617557           
       1.002025             0.00730563081            0.000498153084           
       1.004665             0.00771727763            0.000491022992           
       1.007306              0.0075110283            0.000500648972           
       1.009946             0.00697661567            0.000463948265           
       1.012586             0.00759876252            0.000498121144           
       1.015227              0.0078975382             0.00049244812           
       1.017867             0.00783769938            0.000504637316           
       1.020507             0.00701782547            0.000459537939           
       1.023148             0.00752972787            0.000481752433           
       1.025788             0.00776875922              0.0004843286           
       1.028429             0.00775479168             0.00049447128           
       1.031069             0.00790328701            0.000480938203           
       1.033709             0.00796103681            0.000491961224           
       1.036350             0.00718461939            0.000455101133           
       1.038990             0.00875253768            0.000514712359           
       1.041630              0.0077769776            0.000475846002           
       1.044271             0.00743422666            0.000465294225           
       1.046911             0.00775446155            0.000466380701           
       1.049552             0.00757316809            0.000477506268           
       1.052192             0.00746891884             0.00045288384           
       1.054832             0.00831278896            0.000487075195           
       1.057473             0.00743517092             0.00045481522           
       1.060113             0.00731021432            0.000455860674           
       1.062754             0.00813471827              0.0004755632           
       1.065394             0.00726256181            0.000444619333           
       1.068034             0.00778630232            0.000458589824           
       1.070675             0.00873244824            0.000494195883           
       1.073315              0.0075130737            0.000444383433           
       1.075955             0.00834659287            0.000476241199           
       1.078596             0.00728200696            0.000443954651           
       1.081236             0.00732239083             0.00043858096           
       1.083877             0.00835993286            0.000483263455           
       1.086517             0.00731013512            0.000441680379           
       1.089157             0.00792077214            0.000463128682           
       1.091798             0.00816656759            0.000460296107           
       1.094438             0.00808947346            0.000465399207           
       1.097078             0.00839844055            0.000462017737           
       1.099719             0.00879444547            0.000484901842           
       1.102359             0.00895469351            0.000463523085           
       1.105000             0.00805945106            0.000457061486           
       1.107640             0.00894483982            0.000465817026           
       1.110280             0.00786775363            0.000445619955           
       1.112921              0.0082932402            0.000449232481           
       1.115561             0.00861919111            0.000463787547           
       1.118202              0.0087744351            0.000454287815           
       1.120842             0.00848316106            0.000460757949           
       1.123482             0.00824972413            0.000441628269           
       1.126123             0.00815221587            0.000441750384           
       1.128763             0.00791398707            0.000433089178           
       1.131403             0.00778935204            0.000428997419           
       1.134044             0.00882949696            0.000455950338           
       1.136684             0.00755558261            0.000424947357           
       1.139325             0.00812018816            0.000428126447           
       1.141965             0.00787057732            0.000427007379           
       1.144605             0.00857162424            0.000448236447           
       1.147246             0.00914744018            0.000454277768           
       1.149886             0.00869023004            0.000445928316           
       1.152527             0.00795826274             0.00042716288           
       1.155167             0.00829072625             0.00042986406           
       1.157807             0.00813792193            0.000426177678           
       1.160448             0.00816346742            0.000432686293           
       1.163088             0.00843311374            0.000423458749           
       1.165728             0.00879782771            0.000450346271           
       1.168369             0.00877956406            0.000433818154           
       1.171009             0.00885704942            0.000439340875           
       1.173650             0.00909395443             0.00044196753           
       1.176290             0.00867784771            0.000436803594           
       1.178930             0.00813443606            0.000411017695           
       1.181571             0.00888781554            0.000443662088           
       1.184211             0.00848491656             0.00042039744           
       1.186851             0.00851405612            0.000425001647           
       1.189492             0.00905655165            0.000440766684           
       1.192132             0.00833310535             0.00041653419           
       1.194773             0.00935636965            0.000438705262           
       1.197413             0.00952258648            0.000446195269           
       1.200053             0.00941398861            0.000440852422           
       1.202694             0.00942803109            0.000437856484           
       1.205334             0.00853163481            0.000421074703           
       1.207975             0.00947453967            0.000435039006           
       1.210615              0.0094248791            0.000443072646           
       1.213255             0.00839765559            0.000407166446           
       1.215896             0.00877373044            0.000424072521           
       1.218536             0.00934881635            0.000425141896           
       1.221176             0.00949970519            0.000438788223           
       1.223817             0.00936923398            0.000426684316           
       1.226457             0.00867784378            0.000415855138           
       1.229098              0.0089957279            0.000416979987           
       1.231738             0.00861323649            0.000413764399           
       1.234378             0.00933889877            0.000422470331           
       1.237019             0.00898350188            0.000417695834           
       1.239659             0.00860399998            0.000408556827           
       1.242299             0.00874123978             0.00040969705           
       1.244940             0.00977502227            0.000428570046           
       1.247580             0.00899482052            0.000412926324           
       1.250221              0.0105807182            0.000455161816           
       1.252861             0.00955453286            0.000416412332           
       1.255501             0.00830517496            0.000399195158           
       1.258142             0.00960981644            0.000420916974           
       1.260782             0.00893871589             0.00041053918           
       1.263423              0.0102801923            0.000431546037           
       1.266063              0.0101963751            0.000437793759           
       1.268703              0.0101793674            0.000426407467           
       1.271344              0.0100026999            0.000431897241           
       1.273984             0.00966387682            0.000417892295           
       1.276624             0.00985242001            0.000419374661           
       1.279265             0.00995427133            0.000422457122           
       1.281905              0.0100066257            0.000426177403           
       1.284546              0.0101334621            0.000424184693           
       1.287186             0.00896896632            0.000399451713           
       1.289826             0.00960133577            0.000415437039           
       1.292467             0.00995836673            0.000415539301           
       1.295107              0.0101279587            0.000426449281           
       1.297747             0.00993054581            0.000411196669           
       1.300388              0.0103349577            0.000430257986           
       1.303028             0.00982235892            0.000408785881           
       1.305669              0.0101641272            0.000421209511           
       1.308309              0.0100554606            0.000412652472           
       1.310949              0.0101423567            0.000419597103           
       1.313590              0.0106770462            0.000423852744           
       1.316230             0.00999025229            0.000417374069           
       1.318871              0.0103534365            0.000415726474           
       1.321511              0.0097849112            0.000406176521           
       1.324151              0.0102070848            0.000416485554           
       1.326792              0.0108028299             0.00042499664           
       1.329432              0.0108240538            0.000427633008           
       1.332072              0.0102684213            0.000409370369           
       1.334713             0.00958086463             0.00040033159           
       1.337353              0.0103727336            0.000410139637           
       1.339994             0.00999179181            0.000408271512           
       1.342634              0.0100160189            0.000399563857           
       1.345274              0.0116302632            0.000436188552           
       1.347915              0.0112647958            0.000430421761           
       1.350555              0.0105455499            0.000414827133           
       1.353195               0.010385727            0.000403796233           
       1.355836              0.0102080919            0.000407881466           
       1.358476             0.00957741037            0.000393969472           
       1.361117              0.0101099489            0.000394620228           
       1.363757             0.00997778536            0.000405024616           
       1.366397             0.00965619165            0.000386036108           
       1.369038              0.0104134311             0.00040933651           
       1.371678             0.00975613395            0.000388206992           
       1.374319             0.00986528276            0.000393468612           
       1.376959              0.0103706327            0.000397866629           
       1.379599              0.0108510888             0.00041491139           
       1.382240             0.00979114731            0.000386640499           
       1.384880             0.00987208834            0.000393002079           
       1.387520              0.0103883305            0.000398433272           
       1.390161             0.00962201535            0.000382413962           
       1.392801              0.0105267697            0.000402373223           
       1.395442              0.0102397213            0.000392737351           
       1.398082              0.0098025082            0.000385576369           
       1.400722              0.0103263832            0.000393957625           
       1.403363              0.0106107864            0.000403051701           
       1.406003               0.010721206            0.000395195061           
       1.408644               0.011000437            0.000408712321           
       1.411284              0.0106821641            0.000400547548           
       1.413924              0.0106690339            0.000395364121           
       1.416565             0.00990377583            0.000380473379           
       1.419205               0.010692216            0.000399222326           
       1.421845              0.0102965094            0.000386840128           
       1.424486              0.0109232794            0.000400199098           
       1.427126               0.010250784            0.000387439614           
       1.429767              0.0109249883            0.000393814277           
       1.432407              0.0105405779            0.000396568431           
       1.435047             0.00977534867            0.000370425719           
       1.437688              0.0101245639            0.000385332485           
       1.440328             0.00970009884            0.000369859561           
       1.442968             0.00999571675            0.000380650519           
       1.445609              0.0096252271            0.000367385694           
       1.448249             0.00999165874            0.000376733807           
       1.450890              0.0106238168            0.000385697593           
       1.453530             0.00947658896            0.000366976017           
       1.456170              0.0101528678            0.000378989494           
       1.458811             0.00972380286            0.000367944151           
       1.461451             0.00959425323            0.000368171523           
       1.464092             0.00976866668            0.000368264673           
       1.466732              0.0102841344            0.000375538367           
       1.469372              0.0103308486            0.000375233329           
       1.472013              0.0104249985            0.000383683078           
       1.474653             0.00959129583            0.000358934485           
       1.477293             0.00969019979            0.000366853141           
       1.479934             0.00985977943            0.000366176101           
       1.482574              0.0104190528            0.000375489127           
       1.485215              0.0104454658            0.000376932877           
       1.487855              0.0102885723            0.000374014075           
       1.490495              0.0105086259            0.000377179077           
       1.493136              0.0106376779            0.000374511343           
       1.495776             0.00983715072            0.000366423006           
       1.498416             0.00941265081            0.000351466472           
       1.501057              0.0100574045            0.000366429489           
       1.503697              0.0101292325            0.000364199975           
       1.506338              0.0101370855            0.000367020521           
       1.508978              0.0104576107            0.000370576782           
       1.511618               0.009375466            0.000350702504           
       1.514259             0.00958562841            0.000355251877           
       1.516899              0.0098856171            0.000360935979           
       1.519540             0.00982207149            0.000357777515           
       1.522180              0.0101058261            0.000358376603           
       1.524820             0.00887339633            0.000342596525           
       1.527461             0.00974853625            0.000351149816           
       1.530101             0.00978894634            0.000355515028           
       1.532741             0.00972962861            0.000352756971           
       1.535382             0.00991196712            0.000356831154           
       1.538022             0.00972422787            0.000350308646           
       1.540663              0.0102548487            0.000363139226           
       1.543303             0.00925821805            0.000340748414           
       1.545943             0.00994674209            0.000355171173           
       1.548584              0.0100144954            0.000358276495           
       1.551224             0.00988662688            0.000346855504           
       1.553864              0.0100202852             0.00035831431           
       1.556505             0.00979993971            0.000348901746           
       1.559145             0.00977892686            0.000349333217           
       1.561786             0.00937228008            0.000340443445           
       1.564426             0.00998705163             0.00035111432           
       1.567066             0.00903113835            0.000331282216           
       1.569707             0.00925778579            0.000340269357           
       1.572347              0.0091840636            0.000334514708           
       1.574988             0.00873233111            0.000324893769           
       1.577628             0.00974244205            0.000350897117           
       1.580268             0.00878144033            0.000321644872           
       1.582909             0.00870293201            0.000326192965           
       1.585549             0.00903228124            0.000329202268           
       1.588189             0.00943761327            0.000340266292           
       1.590830             0.00870870262            0.000321251314           
       1.593470             0.00944929163            0.000337364964           
       1.596111             0.00840398278            0.000315408937           
       1.598751             0.00865102534            0.000323282619           
       1.601391             0.00818248928            0.000312396159           
       1.604032             0.00864871816            0.000318490791           
       1.606672             0.00910995992            0.000333452045           
       1.609312             0.00846393462            0.000311847766           
       1.611953             0.00850714745            0.000317173758           
       1.614593             0.00912620211             0.00032601273           
       1.617234             0.00855357451            0.000317408196           
       1.619874             0.00835010201            0.000309920835           
       1.622514              0.0086385848            0.000318016946           
       1.625155             0.00816542044            0.000308420246           
       1.627795             0.00830429684            0.000307888949           
       1.630436             0.00850060137            0.000314637859           
       1.633076             0.00867956036            0.000316317261           
       1.635716             0.00891731218            0.000320061177           
       1.638357             0.00812251494            0.000304167041           
       1.640997             0.00866321959            0.000316584529           
       1.643637             0.00817373383            0.000301800551           
       1.646278             0.00873634439            0.000316684762           
       1.648918             0.00878269065            0.000313430124           
       1.651559              0.0087393939            0.000316587696           
       1.654199             0.00824172593            0.000303227287           
       1.656839             0.00812760288              0.0003010395           
       1.659480             0.00892584552            0.000318254915           
       1.662120             0.00861610004            0.000308494024           
       1.664761             0.00837414659            0.000307424568           
       1.667401             0.00806969915            0.000298973136           
       1.670041             0.00804696649            0.000298893384           
       1.672682             0.00796671223            0.000294600704           
       1.675322             0.00801542215             0.00030072467           
       1.677962             0.00804728396            0.000295337522           
       1.680603             0.00819894612            0.000300753243           
       1.683243             0.00873708326             0.00030816961           
       1.685884             0.00792735476             0.00029465935           
       1.688524             0.00826081927            0.000299946663           
       1.691164             0.00785764679              0.0002917837           
       1.693805             0.00842630152            0.000304600861           
       1.696445             0.00769385145            0.000287021597           
       1.699085             0.00722961777            0.000279338481           
       1.701726             0.00824292669             0.00029439312           
       1.704366             0.00811330661            0.000299175984           
       1.707007             0.00782712462            0.000287581551           
       1.709647             0.00787141329            0.000291977335           
       1.712287             0.00782954683            0.000286333301           
       1.714928             0.00869414432            0.000304762925           
       1.717568             0.00807241973            0.000290963491           
       1.720209             0.00793402754            0.000290239859           
       1.722849             0.00792993881            0.000290630309           
       1.725489             0.00850358113            0.000296161774           
       1.728130             0.00756718277            0.000285067222           
       1.730770             0.00806812423            0.000288129768           
       1.733410             0.00817988072            0.000293927013           
       1.736051             0.00787895621            0.000283992199           
       1.738691             0.00822971142             0.00029320732           
       1.741332             0.00820391742            0.000290945368           
       1.743972             0.00794358367            0.000286398078           
       1.746612             0.00817488701            0.000290604705           
       1.749253             0.00779543235            0.000285006439           
       1.751893             0.00787368552            0.000284714908           
       1.754533             0.00807106277            0.000284305097           
       1.757174             0.00785135824             0.00028565153           
       1.759814             0.00837483795            0.000290522865           
       1.762455             0.00853288705             0.00029574799           
       1.765095             0.00807298762            0.000283627807           
       1.767735             0.00784566485            0.000284357196           
       1.770376              0.0082511766            0.000287190891           
       1.773016             0.00850601673            0.000292052351           
       1.775657             0.00842285075            0.000291216516           
       1.778297             0.00874635959            0.000298208152           
       1.780937             0.00835731949            0.000290140258           
       1.783578             0.00827421916            0.000287338537           
       1.786218             0.00817523225            0.000290172308           
       1.788858             0.00830291375            0.000285164013           
       1.791499               0.008460014            0.000293154284           
       1.794139             0.00864275314            0.000290831955           
       1.796780             0.00839578936            0.000288349839           
       1.799420             0.00857885205            0.000291105397           
       1.802060             0.00894211709             0.00029354938           
       1.804701              0.0089468015            0.000297565499           
       1.807341             0.00890036042            0.000293924402           
       1.809981             0.00885784678            0.000295168939           
       1.812622             0.00971908363            0.000307501056           
       1.815262              0.0087118495            0.000292169507           
       1.817903             0.00873268663            0.000288904776           
       1.820543             0.00862602085             0.00029068394           
       1.823183             0.00873322734            0.000287978093           
       1.825824             0.00819636308            0.000283181645           
       1.828464             0.00838856243            0.000285603638           
       1.831105             0.00836848118            0.000286365963           
       1.833745             0.00862182257            0.000290486835           
       1.836385             0.00953831908            0.000304347985           
       1.839026             0.00883109525            0.000297249882           
       1.841666             0.00872180103            0.000291569019           
       1.844306             0.00857357534            0.000292730362           
       1.846947             0.00887889053            0.000294068795           
       1.849587             0.00837987225            0.000289560271           
       1.852228             0.00862068041            0.000290567626           
       1.854868             0.00886281278            0.000300023548           
       1.857508             0.00894102239             0.00029578014           
       1.860149             0.00844073315            0.000289689465           
       1.862789             0.00889708728            0.000298733566           
       1.865429             0.00849342323            0.000292758056           
       1.868070             0.00882392744            0.000297368636           
       1.870710             0.00899007144             0.00030097255           
       1.873351               0.008898547            0.000301348218           
       1.875991             0.00877848522             0.00030092743           
       1.878631             0.00851003548            0.000293536565           
       1.881272             0.00853990882            0.000293362519           
       1.883912              0.0080363196            0.000287918982           
       1.886553             0.00879731928            0.000297629383           
       1.889193             0.00906296802            0.000305579281           
       1.891833             0.00852904953            0.000293068027           
       1.894474             0.00889355995            0.000301633538           
       1.897114               0.008411796            0.000291074629           
       1.899754             0.00880283876            0.000301102805           
       1.902395             0.00930861342            0.000309698071           
       1.905035             0.00920534503            0.000306768477           
       1.907676             0.00912813361            0.000305834369           
       1.910316             0.00935191158            0.000311534271           
       1.912956             0.00882461854            0.000302612138           
       1.915597             0.00923092248            0.000306273533           
       1.918237             0.00902820342            0.000307489684           
       1.920878             0.00937282178            0.000307758656           
       1.923518             0.00858565109            0.000302377653           
       1.926158             0.00890233849            0.000300828528           
       1.928799             0.00875556491            0.000302302789           
       1.931439             0.00827835038              0.0002915933           
       1.934079             0.00834873227            0.000295795681           
       1.936720             0.00915872744             0.00030798916           
       1.939360             0.00848533017            0.000299307669           
       1.942001             0.00838214942            0.000296337918           
       1.944641             0.00833044083            0.000294149455           
       1.947281             0.00914282999             0.00030964748           
       1.949922             0.00865522972            0.000301654466           
       1.952562             0.00857007035            0.000302749752           
       1.955202             0.00801906364            0.000285497611           
       1.957843             0.00858357038            0.000304758725           
       1.960483             0.00875811406            0.000302931401           
       1.963124             0.00881850153            0.000303748553           
       1.965764             0.00852548521            0.000298766306           
       1.968404              0.0081756771            0.000297804617           
       1.971045             0.00758078577            0.000279576952           
       1.973685              0.0078711073            0.000290196368           
       1.976326             0.00857251765            0.000301530082           
       1.978966             0.00845256416            0.000300829844           
       1.981606             0.00804118764            0.000290314958           
       1.984247             0.00886658002            0.000307509034           
       1.986887             0.00852054203            0.000304267966           
       1.989527             0.00872704369             0.00030151768           
       1.992168             0.00800649924            0.000295770163           
       1.994808             0.00882930935            0.000306983673           
       1.997449             0.00782356575            0.000288547242           
       2.000089             0.00837611708            0.000296804919           
       2.002729             0.00799135722            0.000296550937           
       2.005370             0.00791782677            0.000289572188           
       2.008010             0.00777147656            0.000290692391           
       2.010650             0.00759511358            0.000286552936           
       2.013291             0.00764048971             0.00028904355           
       2.015931             0.00746995992            0.000283754231           
       2.018572             0.00741092692            0.000286384444           
       2.021212             0.00764516744            0.000288264656           
       2.023852             0.00818624589            0.000299858082           
       2.026493             0.00761509769            0.000287941126           
       2.029133             0.00783754646            0.000289888059           
       2.031774             0.00812286842            0.000297979457           
       2.034414             0.00886878439            0.000309502462           
       2.037054             0.00761859911            0.000290476835           
       2.039695              0.0075694868            0.000283835895           
       2.042335             0.00796590565            0.000296129565           
       2.044975             0.00802056716            0.000294769026           
       2.047616             0.00789971912            0.000293793466           
       2.050256             0.00784386123            0.000289309297           
       2.052897             0.00753154759            0.000291887355           
       2.055537             0.00737307419            0.000280926371           
       2.058177             0.00802167297            0.000295610652           
       2.060818             0.00717555988            0.000280425409           
       2.063458             0.00747677096            0.000286644927           
       2.066098             0.00664128668            0.000268956316           
       2.068739              0.0075790421            0.000290313744           
       2.071379             0.00776402663             0.00028949602           
       2.074020             0.00786307249            0.000295326243           
       2.076660             0.00801411839             0.00029612829           
       2.079300             0.00751963957            0.000286805589           
       2.081941             0.00782016851            0.000294258787           
       2.084581             0.00775581715            0.000293262643           
       2.087222             0.00742759172            0.000287185648           
       2.089862             0.00744535757            0.000283945135           
       2.092502             0.00756454483            0.000291409248           
       2.095143              0.0075781363            0.000287502401           
       2.097783             0.00807604688            0.000301313426           
       2.100423             0.00778370778            0.000290137612           
       2.103064             0.00682486631            0.000276370872           
       2.105704             0.00772855596            0.000292974443           
       2.108345             0.00721623678             0.00028439714           
       2.110985              0.0072709473            0.000281463459           
       2.113625              0.0076156259            0.000292596143           
       2.116266             0.00753137167            0.000288819465           
       2.118906             0.00803840898            0.000298166315           
       2.121546             0.00759655968            0.000289625662           
       2.124187             0.00751007684            0.000291955457           
       2.126827             0.00757715322            0.000288657271           
       2.129468             0.00780307939            0.000295985986           
       2.132108              0.0075186393             0.00028994002           
       2.134748             0.00750084577            0.000288505338           
       2.137389             0.00768169402            0.000294407983           
       2.140029             0.00737476623            0.000287765857           
       2.142670             0.00756336629            0.000291898424           
       2.145310             0.00730704155            0.000288005662           
       2.147950             0.00698808398            0.000282738514           
       2.150591             0.00743799765            0.000289023186           
       2.153231              0.0073714264            0.000291980713           
       2.155871             0.00743509201            0.000289003871           
       2.158512             0.00724979107            0.000290522132           
       2.161152             0.00741448762            0.000286464396           
       2.163793             0.00763792782            0.000295479633           
       2.166433             0.00774403322            0.000292365575           
       2.169073              0.0077594284            0.000299488882           
       2.171714             0.00696811351             0.00027802931           
       2.174354             0.00729322502            0.000288787928           
       2.176995             0.00732144111             0.00028694585           
       2.179635             0.00757338416            0.000297364384           
       2.182275             0.00785374743            0.000296807312           
       2.184916             0.00718174768            0.000289823973           
       2.187556             0.00735888115            0.000288653272           
       2.190196             0.00724910999            0.000290995344           
       2.192837             0.00698176471            0.000282451769           
       2.195477             0.00791904418            0.000303715731           
       2.198118             0.00788335992            0.000297436183           
       2.200758             0.00728426829            0.000290351144           
       2.203398             0.00706320447            0.000281169995           
       2.206039             0.00763985188            0.000296891977           
       2.208679             0.00784881196            0.000297979044           
       2.211319             0.00640341858            0.000270413968           
       2.213960             0.00719169352            0.000283528314           
       2.216600             0.00730845961            0.000292555151           
       2.219241             0.00730360044             0.00028820602           
       2.221881             0.00724404812            0.000288524757           
       2.224521             0.00739317754            0.000290468489           
       2.227162             0.00736589438            0.000294485964           
       2.229802              0.0072920448            0.000288249818           
       2.232443             0.00701387384            0.000283809795           
       2.235083              0.0074197196             0.00029015506           
       2.237723             0.00769798515            0.000297810805           
       2.240364             0.00675327493            0.000277520134           
       2.243004             0.00774427594            0.000298083376           
       2.245644             0.00670413758            0.000276703566           
       2.248285             0.00731010221            0.000290813904           
       2.250925             0.00693833124             0.00028199756           
       2.253566             0.00726672293            0.000289299563           
       2.256206             0.00713102631            0.000285727231           
       2.258846             0.00695336395            0.000282147993           
       2.261487             0.00753512281            0.000294222089           
       2.264127             0.00767304711            0.000299711845           
       2.266767             0.00731020877            0.000287811426           
       2.269408             0.00673068211            0.000279447562           
       2.272048             0.00727630514            0.000288766285           
       2.274689             0.00718967328            0.000288170838           
       2.277329             0.00722257437            0.000288445648           
       2.279969             0.00708497954            0.000286550792           
       2.282610             0.00704299993            0.000282914437           
       2.285250             0.00707823563            0.000288081921           
       2.287891             0.00644612776            0.000272143636           
       2.290531             0.00753140171            0.000295612652           
       2.293171             0.00701636059            0.000285311745           
       2.295812              0.0067420192            0.000278193837           
       2.298452             0.00686939351            0.000282607951           
       2.301092             0.00687639641            0.000284548063           
       2.303733             0.00744280786            0.000290179933           
       2.306373             0.00729664668            0.000294344055           
       2.309014             0.00711051942            0.000284966402           
       2.311654             0.00666696311            0.000278553902           
       2.314294             0.00763827113            0.000297504538           
       2.316935              0.0071705538            0.000289391309           
       2.319575              0.0073212679            0.000291321788           
       2.322215             0.00677974523            0.000284335723           
       2.324856              0.0070039023            0.000281740536           
       2.327496             0.00709839981            0.000290586074           
       2.330137             0.00728991743              0.0002890491           
       2.332777              0.0069667701            0.000285660524           
       2.335417             0.00717108096            0.000288948912           
       2.338058             0.00692169178            0.000285016229           
       2.340698             0.00706851763            0.000285187476           
       2.343339             0.00714478826            0.000292193404           
       2.345979             0.00710926167            0.000285649929           
       2.348619             0.00722564064            0.000293416886           
       2.351260             0.00727244868            0.000288108344           
       2.353900             0.00742483256            0.000297277617           
       2.356540             0.00684135016             0.00028143323           
       2.359181             0.00664287465            0.000281029207           
       2.361821             0.00686515059            0.000282211293           
       2.364462             0.00707065577            0.000291190708           
       2.367102             0.00704691355            0.000282295009           
       2.369742                0.00720438            0.000295660559           
       2.372383             0.00780305642            0.000298730242           
       2.375023             0.00724906501            0.000295432389           
       2.377663             0.00692409176            0.000282598622           
       2.380304             0.00695276471            0.000287111382           
       2.382944             0.00708120477            0.000286917121           
       2.385585             0.00655847626            0.000278734518           
       2.388225             0.00710454283            0.000288795657           
       2.390865             0.00670271686            0.000281228098           
       2.393506             0.00743216223            0.000294771036           
       2.396146             0.00731191713            0.000293345843           
       2.398787             0.00697584574            0.000286775768           
       2.401427             0.00713839423            0.000288336233           
       2.404067             0.00688890481            0.000287575987           
       2.406708             0.00697510834            0.000285732575           
       2.409348             0.00656466498            0.000279283585           
       2.411988             0.00730114336            0.000293592742           
       2.414629             0.00722478143            0.000293008958           
       2.417269             0.00711501808            0.000288134004           
       2.419910             0.00725183417            0.000294559469           
       2.422550             0.00689700563            0.000282902183           
       2.425190             0.00686402106            0.000291110714           
       2.427831             0.00727796825            0.000288486596           
       2.430471             0.00689725811            0.000289049243           
       2.433112             0.00661204496             0.00027633186           
       2.435752             0.00640940238            0.000278952096           
       2.438392             0.00663445706            0.000279037026           
       2.441033             0.00703811153            0.000288717275           
       2.443673             0.00692166602             0.00028708348           
       2.446313             0.00735982956            0.000294453469           
       2.448954             0.00710441762            0.000291837574           
       2.451594             0.00672839166            0.000282305219           
       2.454235             0.00702996123            0.000287664517           
       2.456875             0.00718516259            0.000292295699           
       2.459515             0.00706350827            0.000290257514           
       2.462156              0.0078161428            0.000303756065           
       2.464796             0.00761259676            0.000305062624           
       2.467436              0.0073923693             0.00029431414           
       2.470077             0.00804330716            0.000311232146           
       2.472717             0.00726479736            0.000292085801           
       2.475358             0.00774325787            0.000304967269           
       2.477998             0.00829919623             0.00031404087           
       2.480638             0.00739630056            0.000297186712           
       2.483279             0.00723328136            0.000295155932           
       2.485919             0.00738576219            0.000296162382           
       2.488560             0.00678772266            0.000285096559           
       2.491200             0.00702137381             0.00028956438           
       2.493840               0.007247706            0.000292592619           
       2.496481             0.00692836593            0.000289815012           
       2.499121             0.00731423242            0.000293811356           
       2.501761             0.00742473398            0.000301049075           
       2.504402             0.00737211857            0.000294231643           
       2.507042             0.00657570249            0.000282503837           
       2.509683             0.00766643552            0.000302257323           
       2.512323             0.00709441376            0.000291900977           
       2.514963              0.0118842966            0.000378553178           
       2.517604              0.0298878256            0.000597975997           
       2.520244              0.0376187582            0.000671017373           
       2.522884             0.00923953788            0.000331822331           
       2.525525             0.00914302406            0.000332796054           
       2.528165              0.0295218645             0.00059527429           
       2.530806              0.0265787737            0.000562703232           
       2.533446              0.0139959132            0.000411959932           
       2.536086              0.0105026168            0.000353869244           
       2.538727              0.0134381544            0.000402846125           
       2.541367              0.0125580158            0.000388316878           
       2.544008             0.00775013558            0.000305315006           
       2.546648             0.00812312504            0.000312930534           
       2.549288              0.0077279097            0.000305267032           
       2.551929             0.00772855392            0.000306288144           
       2.554569             0.00719442646            0.000292814264           
       2.557209             0.00703353341            0.000292792802           
       2.559850             0.00739228353            0.000296715322           
       2.562490             0.00705156835            0.000291906825           
       2.565131             0.00756899546            0.000302953152           
       2.567771             0.00725390552            0.000295008418           
       2.570411             0.00728797834            0.000299298817           
       2.573052              0.0073991025            0.000298051757           
       2.575692             0.00680103984            0.000286510384           
       2.578332             0.00676819973            0.000284973491           
       2.580973             0.00742508493            0.000300902408           
       2.583613             0.00753057014            0.000300270787           
       2.586254             0.00727138841            0.000297668649           
       2.588894             0.00671404148            0.000284507399           
       2.591534             0.00709253485            0.000292954647           
       2.594175             0.00685484366            0.000289675735           
       2.596815             0.00678892118            0.000285599189           
       2.599456             0.00673486198            0.000286787199           
       2.602096             0.00717553888            0.000294913318           
       2.604736             0.00734877619            0.000299234837           
       2.607377             0.00675475309            0.000285788929           
       2.610017             0.00705830218            0.000292037771           
       2.612657             0.00730137479             0.00029912194           
       2.615298             0.00732505197            0.000296675879           
       2.617938             0.00728832299            0.000298519996           
       2.620579             0.00689581049            0.000287998428           
       2.623219             0.00707559645            0.000296395033           
       2.625859             0.00647932816            0.000278851182           
       2.628500             0.00684028821            0.000291092325           
       2.631140             0.00710169892            0.000291371968           
       2.633780             0.00706632681              0.0002943785           
       2.636421             0.00695115298            0.000289312781           
       2.639061             0.00717165677            0.000297379308           
       2.641702             0.00736780553            0.000298196453           
       2.644342             0.00726676129            0.000298573918           
       2.646982             0.00733604527            0.000299739211           
       2.649623             0.00745599453            0.000303991269           
       2.652263              0.0069254642            0.000290645188           
       2.654904             0.00693932325            0.000292515567           
       2.657544             0.00719451289            0.000295750027           
       2.660184             0.00780206405             0.00030837844           
       2.662825             0.00730179659            0.000299043138           
       2.665465             0.00696926338            0.000292694728           
       2.668105             0.00675436929            0.000288260932           
       2.670746             0.00669922096            0.000284652612           
       2.673386             0.00677481465            0.000289723383           
       2.676027             0.00739971932            0.000300216618           
       2.678667             0.00713097588            0.000296246691           
       2.681307              0.0072254114            0.000295856934           
       2.683948             0.00751197931            0.000304662833           
       2.686588             0.00760174443            0.000303665301           
       2.689229             0.00750637505            0.000304462635           
       2.691869             0.00722572271            0.000295735059           
       2.694509             0.00708236086            0.000296801826           
       2.697150             0.00728638958             0.00029624179           
       2.699790             0.00740650732            0.000304877736           
       2.702430             0.00707568843             0.00029227777           
       2.705071              0.0072030257            0.000298931951           
       2.707711             0.00726062312            0.000297148623           
       2.710352             0.00710044367            0.000295525149           
       2.712992             0.00716784807            0.000297889928           
       2.715632             0.00676769054            0.000287808905           
       2.718273             0.00672991156            0.000287957267           
       2.720913             0.00682070991            0.000290377279           
       2.723553             0.00667248492            0.000286206767           
       2.726194             0.00692446487            0.000292966996           
       2.728834             0.00721737678            0.000296440435           
       2.731475             0.00688869293            0.000292142868           
       2.734115             0.00666402546            0.000285627231           
       2.736755             0.00682748362            0.000291020147           
       2.739396             0.00735945199            0.000300547297           
       2.742036             0.00707852499            0.000296767063           
       2.744677              0.0064724587            0.000284193051           
       2.747317             0.00765618074            0.000307588339           
       2.749957             0.00739107871            0.000304408608           
       2.752598             0.00701529841            0.000297462316           
       2.755238             0.00727841105             0.00030285266           
       2.757878             0.00699256609            0.000296000946           
       2.760519             0.00662969994            0.000285175261           
       2.763159             0.00733998468            0.000304942005           
       2.765800             0.00726487578            0.000298238634           
       2.768440             0.00740441515            0.000305055592           
       2.771080             0.00669359103            0.000287599334           
       2.773721             0.00650041495            0.000286895869           
       2.776361             0.00652578529            0.000284367819           
       2.779001             0.00691119555            0.000295720852           
       2.781642             0.00688729371            0.000293194692           
       2.784282             0.00664381949            0.000288066128           
       2.786923             0.00677407869            0.000288664128           
       2.789563             0.00661476215            0.000285822465           
       2.792203             0.00737060533            0.000303631306           
       2.794844             0.00665894728            0.000287287765           
       2.797484             0.00662911043            0.000287047295           
       2.800125             0.00646656482             0.00028313989           
       2.802765             0.00672535718            0.000294102819           
       2.805405             0.00696358053            0.000294946385           
       2.808046              0.0066152994            0.000291883978           
       2.810686             0.00678015498            0.000292349841           
       2.813326             0.00696891632            0.000300058464           
       2.815967             0.00681961947            0.000294956337           
       2.818607              0.0064793963            0.000290378685           
       2.821248             0.00648098636            0.000286793161           
       2.823888             0.00650760329            0.000292010266           
       2.826528             0.00663806186            0.000293163151           
       2.829169             0.00686892976            0.000296901006           
       2.831809             0.00640100315            0.000286860991           
       2.834449              0.0067478477            0.000289389407           
       2.837090             0.00653887454            0.000286587498           
       2.839730             0.00641350069            0.000281811151           
       2.842371             0.00732847797            0.000303342264           
       2.845011             0.00691927792            0.000294094386           
       2.847651             0.00641773904            0.000283755451           
       2.850292             0.00681041377            0.000290646634           
       2.852932             0.00632918606            0.000280692347           
       2.855573             0.00667668542            0.000290826966           
       2.858213             0.00667744029            0.000287580065           
       2.860853             0.00695010697            0.000295588861           
       2.863494             0.00664733643            0.000289774803           
       2.866134             0.00717720632            0.000305326065           
       2.868774             0.00749783003             0.00030729434           
       2.871415             0.00666801557            0.000292659309           
       2.874055             0.00706492789            0.000302735849           
       2.876696             0.00643181623            0.000286251937           
       2.879336             0.00717722855             0.00030439208           
       2.881976             0.00688839036            0.000297958823           
       2.884617             0.00714642524            0.000301802269           
       2.887257             0.00685730495            0.000293572976           
       2.889897             0.00664646976            0.000292337459           
       2.892538             0.00628362952            0.000282275107           
       2.895178             0.00607242923            0.000274660985           
       2.897819             0.00662738683             0.00028988836           
       2.900459             0.00635390009            0.000281493957           
       2.903099             0.00721173797            0.000301460613           
       2.905740             0.00649070602            0.000282801396           
       2.908380              0.0070422707            0.000298499206           
       2.911021             0.00674303876             0.00029264389           
       2.913661             0.00599636243            0.000272929042           
       2.916301             0.00671721676            0.000292978129           
       2.918942             0.00630896005            0.000279651775           
       2.921582             0.00679249099            0.000293214862           
       2.924222             0.00689184657            0.000293638455           
       2.926863             0.00697780355            0.000296248762           
       2.929503             0.00674824752            0.000294569102           
       2.932144             0.00702315962             0.00029558068           
       2.934784             0.00726803105            0.000301967292           
       2.937424              0.0070283148            0.000297494986           
       2.940065             0.00667872537            0.000290237925           
       2.942705             0.00628436816            0.000282394218           
       2.945346             0.00720876578            0.000300664879           
       2.947986             0.00760608813             0.00030991957           
       2.950626             0.00751200621            0.000308943872           
       2.953267             0.00997047103            0.000352144647           
       2.955907             0.00972112585            0.000352310578           
       2.958547             0.00837016957            0.000323562644           
       2.961188             0.00769025099            0.000312850144           
       2.963828             0.00668076497            0.000289941931           
       2.966469             0.00667761208            0.000289945703           
       2.969109             0.00718685221            0.000302336719           
       2.971749              0.0074109387            0.000306110952           
       2.974390             0.00900995217            0.000338449268           
       2.977030             0.00999120841            0.000355724708           
       2.979670             0.00871129073             0.00033001771           
       2.982311             0.00730685035            0.000304427654           
       2.984951             0.00660683124            0.000290226508           
       2.987592             0.00728922045            0.000303817431           
       2.990232             0.00732361175             0.00030531094           
       2.992872             0.00785525479            0.000313724684           
       2.995513             0.00902451932            0.000338905553           
       2.998153             0.00890640011            0.000338852451           
       3.000794              0.0134538596            0.000410409026           
       3.003434              0.0367116872            0.000685135456           
       3.006074              0.0448673775            0.000759866006           
       3.008715               0.024376818            0.000564357987           
       3.011355              0.0195753249            0.000510991708           
       3.013995              0.0181815036             0.00049005549           
       3.016636              0.0286504973            0.000616325262           
       3.019276               0.129336104             0.00134078836           
       3.021917               0.351492646             0.00217284965           
       3.024557               0.140577101             0.00138510359           
       3.027197               0.100524662             0.00119094009           
       3.029838              0.0915570585              0.0011311437           
       3.032478              0.0740788758             0.00102354382           
       3.035118              0.0454124689            0.000805520425           
       3.037759              0.0932470901              0.0011563009           
       3.040399               0.111373049             0.00127815801           
       3.043040              0.0516588399             0.00087895084           
       3.045680              0.0588104562            0.000923376683           
       3.048320               0.126549341             0.00137624346           
       3.050961               0.267597642             0.00202134124           
       3.053601              0.0717513727             0.00104205045           
       3.056242              0.0522674705            0.000895097021           
       3.058882               0.213843751             0.00183745005           
       3.061522               0.148796289             0.00152210233           
       3.064163              0.0219838677            0.000586123836           
       3.066803              0.0240323138            0.000624673301           
       3.069443              0.0385023007            0.000785409837           
       3.072084               0.082984155             0.00116332071           
       3.074724              0.0250185567             0.00064252487           
       3.077365              0.0110825896            0.000427334932           
       3.080005             0.00959801243            0.000402094313           
       3.082645             0.00917400337            0.000395113979           
       3.085286             0.00852706179            0.000380997262           
       3.087926             0.00804522753            0.000372430946           
       3.090566             0.00684021548            0.000346946185           
       3.093207             0.00783193158            0.000367234905           
       3.095847             0.00825459969            0.000384916685           
       3.098488             0.00788286624            0.000375467732           
       3.101128             0.00784408227            0.000376583215           
       3.103768             0.00982354546            0.000423802843           
       3.106409              0.0105694343            0.000442542301           
       3.109049              0.0106249393            0.000447152068           
       3.111690              0.0121005242            0.000475314145           
       3.114330              0.0119043778            0.000475640846           
       3.116970              0.0148543617             0.00053870724           
       3.119611              0.0165393738            0.000564742183           
       3.122251              0.0122578866            0.000490163218           
       3.124891             0.00994754436            0.000443704843           
       3.127532             0.00794417858            0.000403658772           
       3.130172             0.00871891993            0.000414184578           
       3.132813             0.00885644873            0.000425934268           
       3.135453             0.00925510118            0.000444599756           
       3.138093             0.00761907475            0.000393822861           
       3.140734             0.00659855866            0.000373321254           
       3.143374             0.00603036841            0.000362342099           
       3.146014             0.00614981305            0.000363256828           
       3.148655              0.0063294656            0.000371425946           
       3.151295             0.00672451703            0.000385872007           
       3.153936             0.00677511963            0.000393039007           
       3.156576             0.00665389507            0.000385035566           
       3.159216             0.00629629662            0.000377609598           
       3.161857             0.00650139707            0.000388417674           
       3.164497             0.00660493509            0.000399753199           
       3.167138             0.00595657169            0.000370518083           
       3.169778             0.00631643196            0.000388435738           
       3.172418             0.00605397519             0.00038250221           
       3.175059              0.0064670445            0.000400509872           
       3.177699             0.00543159529            0.000365599194           
       3.180339             0.00622539827            0.000394902422           
       3.182980             0.00684071841            0.000419547137           
       3.185620             0.00612212297            0.000401237039           
       3.188261             0.00598386487            0.000391483468           
       3.190901             0.00566161572            0.000386663987           
       3.193541             0.00570576774            0.000389447847           
       3.196182             0.00570051663            0.000397367911           
       3.198822             0.00575638308            0.000394469686           
       3.201463             0.00614806078            0.000412941022           
       3.204103             0.00532756536            0.000389518723           
       3.206743             0.00566547597            0.000405077874           
       3.209384             0.00608010343            0.000417768304           
       3.212024             0.00718814839             0.00045585696           
       3.214664             0.00528023505            0.000398149886           
       3.217305               0.006291561            0.000444749088           
       3.219945             0.00612014577              0.0004349806           
       3.222586             0.00645844139            0.000449369643           
       3.225226             0.00630409744            0.000453969512           
       3.227866              0.0058346549            0.000440118558           
       3.230507             0.00597895169            0.000450843996           
       3.233147             0.00564347648            0.000431534431           
       3.235787             0.00633191882            0.000457222713           
       3.238428             0.00611712572            0.000457337737           
       3.241068             0.00604756487             0.00046395086           
       3.243709              0.0061607493            0.000465673203           
       3.246349             0.00568485529            0.000444823237           
       3.248989             0.00618620391            0.000474629567           
       3.251630             0.00557436965             0.00045254077           
       3.254270             0.00567660215            0.000470709155           
       3.256911             0.00552643163            0.000452804287           
       3.259551             0.00577809047            0.000473230292           
       3.262191             0.00580716063            0.000478783817           
       3.264832             0.00558786552            0.000474063504           
       3.267472             0.00488039553            0.000449321018           
       3.270112             0.00512059343            0.000461555513           
       3.272753             0.00465431743            0.000445447339           
       3.275393             0.00603286394            0.000509753051           
       3.278034             0.00511667556             0.00047901612           
       3.280674             0.00542889052            0.000494846318           
       3.283314             0.00534448639             0.00049369744           
       3.285955              0.0056951928            0.000519210932           
       3.288595             0.00470909867            0.000477393721           
       3.291235              0.0047140368            0.000480449785           
       3.293876             0.00559623661             0.00052657894           
       3.296516             0.00757355994            0.000625078276           
       3.299157             0.00633615163            0.000580379616           
       3.301797             0.00534141888            0.000533104326           
       3.304437             0.00521950519            0.000536863491           
       3.307078             0.00552308836            0.000557620618           
       3.309718             0.00488817089            0.000529827798           
       3.312359             0.00498505534            0.000545863767           
       3.314999             0.00502079399            0.000553563835           
       3.317639             0.00669666321            0.000646192946           
       3.320280              0.0060782697            0.000624624677           
       3.322920             0.00544453639            0.000600011144           
       3.325560             0.00572295449            0.000627039892           
       3.328201             0.00606169495            0.000648058275           
       3.330841             0.00592956483            0.000656544894           
       3.333482             0.00562584142            0.000647629049           
       3.336122              0.0050957853            0.000629761673           
       3.338762              0.0053392263            0.000650524992           
       3.341403             0.00432596577            0.000590985348           
       3.344043             0.00569060169            0.000703690357           
       3.346683             0.00466983824             0.00064392616           
       3.349324             0.00518553734            0.000689054266           
       3.351964             0.00502388329            0.000700032942           
       3.354605             0.00653521668             0.00080745616           
       3.357245             0.00592017313            0.000795535014           
       3.359885             0.00616999372             0.00081243856           
       3.362526             0.00594635352            0.000838359788           
       3.365166              0.0055045962            0.000796659139           
       3.367807             0.00639091751            0.000918890647           
       3.370447             0.00509326169            0.000820632224           
       3.373087             0.00701173093             0.00101620102           
       3.375728             0.00487194439            0.000840664566           
       3.378368             0.00553833147            0.000968536309           
       3.381008              0.0051046602            0.000921735764           
       3.383649             0.00657215966             0.00113186767           
       3.386289             0.00539890413               0.001026298           
       3.388930              0.0048362539             0.00106678091           
       3.391570             0.00602627799             0.00119131699           
       3.394210             0.00538437223             0.00120657301           
       3.396851             0.00496981105             0.00125568032           
       3.399491             0.00446128814             0.00121129719           
       3.402131             0.00632412084             0.00170713731           
       3.404772             0.00669925112             0.00175779244           
       3.407412             0.00551150186             0.00197841385           
       3.410053             0.00290751188             0.00149626909           
       3.412693             0.00141305038             0.00147579083           
       3.415333               0.010597948             0.00495198247           
