################################################################################
# EDF_DataBlockID                     0.Image.Psd
# EDF_BinarySize                      2105344
# EDF_HeaderSize                      2560
# ByteOrder                           LowByteFirst
# DataType                            FloatValue
# Dim_1                               512
# Dim_2                               1028
# Image                               0
# HeaderID                            EH:000000:000000:000000
# Size                                2105344
# Center_1                            304.9000
# Center_2                            588.7000
# Comment                             Xenocs_Cell_Window - front_window_open_only
# DDummy                              0.6
# Date                                2025-10-17T21:32:43
# Delta                               21.910000
# Dummy                               -1.5
# ExposureTime                        360
# Gamma                               15.360000
# Intensity1                          9.50764e-10
# PSize_1                             7.5e-05
# PSize_2                             7.5e-05
# Pressure                            0.0366488
# SampleDistance                      0.115750
# SampleEnvKind                       large
# SampleEnvPN                         ElectroChemical cell
# SampleEnvSN                         1141
# Thickness                           0
# Wavelength                          1.541891e-10
# Wavelength                          1.54189e-10
# aux                                 0
# aux_dial                            0.002375
# beamx                               588.429
# beamx_dial                          588.429
# beamz                               657.855
# beamz_dial                          657.855
# det0x                               -0.000396875
# det0x_dial                          6.36905
# det0xvd                             -0.0005
# det0xvd_dial                        -0.0005
# det0y                               450.002
# det0y_dial                          481.635
# det0z                               0
# det0z_dial                          1.2295
# det0zvd                             0
# det0zvd_dial                        0
# mag                                 1.818
# mag_dial                            1.818
# om                                  0.2499
# om_dial                             -0.610199
# phi                                 -0.0120535
# phi_dial                            0
# ry                                  0.599993
# ry_dial                             0.599993
# s1bot                               0.8
# s1bot_dial                          -1.66094
# s1hl                                0.8
# s1hl_dial                           -0.608437
# s1hr                                0.8
# s1hr_dial                           0.970938
# s1top                               0.8
# s1top_dial                          -0.461562
# s2bot                               0.45
# s2bot_dial                          1.36109
# s2hl                                0.45
# s2hl_dial                           -0.83375
# s2hr                                0.45
# s2hr_dial                           -0.118594
# s2top                               0.45
# s2top_dial                          1.44734
# w2theta                             32
# w2theta_dial                        32
# waxsch                              19.2605
# waxsch_dial                         -32.7238
# waxsh                               137.085
# waxsh_dial                          -43.5335
# waxsth                              26.0607
# waxsth_dial                         -19.4068
# waxsz                               67.0407
# waxsz_dial                          -23.7962
# wind                                65.9854
# wind_dial                           66.0041
# wpsi                                124
# wpsi_dial                           124
# wstod                               115
# wstod_dial                          115
# x                                   0
# x_dial                              1.00969
# z                                   0
# z_dial                              13.3172
# CountCutoff                         6807993
# DetectorModel                       Dectris EIGER2 Si 500K, S/N E-01-0554
# ThresholdSetting                    4023.88989258
# Saturation                          0
# FlatField                           Corrected
# BackgroundReductionExtra            0.02
# BackgroundCorrectionConstant        0.0026712
# Detector                            0
# Monitor                             0
# Pil_Roi0                            0
# SumForIntensity1                    3.42275e+08
# TransmittedFlux                     950764
# det                                 0
# mon                                 0
# pilai0                              3.42275e+08
# pilai1                              740593
# pilct0                              5.89315e+08
# pilct1                              740593
# pilroi0                             0
# pilroi1                             0
# sec                                 1
# title                               20251017__1_00031.edf
# usaxs0                              0
# Operation                           Azimuthal average I(q)
# Error_model                         ErrorModel.poisson
# Geometrical_correction              True
# Transmission_correction             True
# Thickness_correction                False
# Binning mode                        Uniform
# Binning factor                      1.0
# Psi                                 0.0
# Omega                               0.2499
# MaskInvalidPixels                   True
# DetectorEdge                        3
# MaskFiles                           ['20251017__1_00233_mask.edf']
################################################################################
    q(A⁻¹)                Intensity(a.u.)            Sigma_I(a.u.)            
       0.690460           -2.13620774e-05                         0           
       0.693100             0.00586055755             0.00306073512           
       0.695741             0.00217910157             0.00157674382           
       0.698381              0.0115973441             0.00340210597           
       0.701021             0.00450376099             0.00173029877           
       0.703662             0.00933061623             0.00230531849           
       0.706302              0.0073182175             0.00197176103           
       0.708942             0.00859678685             0.00189829467           
       0.711583             0.00370644987             0.00124622101           
       0.714223             0.00530221223             0.00129887926           
       0.716864             0.00747908216             0.00157418615           
       0.719504              0.0050445632             0.00119652171           
       0.722144             0.00757386702             0.00141596765           
       0.724785             0.00737952109             0.00137477456           
       0.727425             0.00822620949             0.00134634123           
       0.730065             0.00737878816             0.00131201665           
       0.732706             0.00745664428             0.00118603194           
       0.735346              0.0062832827             0.00117600809           
       0.737987             0.00617480707             0.00100905921           
       0.740627             0.00646629278              0.0011312027           
       0.743267             0.00579708406            0.000921304259           
       0.745908             0.00651727936             0.00104692266           
       0.748548             0.00435402459            0.000798099571           
       0.751189              0.0075589385             0.00104167219           
       0.753829             0.00508771114            0.000862307156           
       0.756469             0.00614664108            0.000891455616           
       0.759110             0.00519388078            0.000847598891           
       0.761750             0.00645584838            0.000864846897           
       0.764390             0.00529842134            0.000841037932           
       0.767031             0.00680913615            0.000862742515           
       0.769671             0.00695334221            0.000924604816           
       0.772312             0.00678082635             0.00083204513           
       0.774952                0.00684554            0.000896242926           
       0.777592             0.00556521855            0.000739125314           
       0.780233             0.00651019991            0.000842754299           
       0.782873             0.00516192053            0.000686227702           
       0.785513             0.00664582938            0.000828288403           
       0.788154             0.00683878563            0.000771758662           
       0.790794              0.0054598963            0.000713694764           
       0.793435             0.00580178663            0.000706633338           
       0.796075              0.0070836414            0.000784928355           
       0.798715             0.00587036151            0.000710473283           
       0.801356             0.00638188354            0.000720956286           
       0.803996              0.0061742541             0.00072046374           
       0.806637             0.00679169988            0.000714269721           
       0.809277             0.00743287668            0.000781719329           
       0.811917             0.00511732786            0.000613788218           
       0.814558             0.00768417822            0.000770513751           
       0.817198             0.00537997058            0.000614741749           
       0.819838             0.00676147176            0.000718873146           
       0.822479             0.00685571599             0.00066708142           
       0.825119             0.00609656719            0.000675776764           
       0.827760             0.00697234067            0.000669643135           
       0.830400             0.00703902246            0.000708919686           
       0.833040             0.00691760717            0.000655893081           
       0.835681             0.00658030314            0.000669904914           
       0.838321             0.00630633412            0.000613826919           
       0.840961             0.00649732492            0.000651241785           
       0.843602             0.00766835515            0.000666436367           
       0.846242             0.00642872292            0.000631740716           
       0.848883             0.00629553172            0.000608142421           
       0.851523             0.00659513919            0.000627109912           
       0.854163             0.00665843802            0.000622791735           
       0.856804              0.0057743442            0.000565133487           
       0.859444             0.00614640474            0.000587248099           
       0.862085             0.00645719527            0.000593156355           
       0.864725              0.0069815044             0.00061450349           
       0.867365             0.00583894268            0.000557950376           
       0.870006             0.00725384648            0.000630565358           
       0.872646             0.00662973122            0.000576593083           
       0.875286             0.00628593715            0.000580574228           
       0.877927             0.00771759046            0.000615933344           
       0.880567             0.00518444256            0.000514690723           
       0.883208             0.00685931318            0.000574921429           
       0.885848             0.00684974831            0.000589419628           
       0.888488             0.00634260007            0.000539286368           
       0.891129             0.00633789525            0.000566676098           
       0.893769             0.00645283496            0.000540484982           
       0.896410             0.00684446318            0.000573791202           
       0.899050             0.00641509091            0.000535612703           
       0.901690             0.00703333233            0.000572534988           
       0.904331             0.00669392066            0.000539049022           
       0.906971             0.00700772339            0.000569517099           
       0.909611             0.00661239175            0.000530997838           
       0.912252             0.00764446787            0.000580828795           
       0.914892             0.00733204686             0.00055442813           
       0.917533             0.00676303975            0.000544495283           
       0.920173             0.00723998185             0.00054040965           
       0.922813             0.00739505956            0.000570753921           
       0.925454             0.00627624654            0.000499024092           
       0.928094             0.00720161315            0.000546021564           
       0.930734             0.00721327488            0.000533421751           
       0.933375             0.00613752062            0.000502529632           
       0.936015             0.00684719665            0.000507867399           
       0.938656              0.0076942126            0.000560946017           
       0.941296             0.00689665286            0.000511957442           
       0.943936             0.00728661542            0.000535709735           
       0.946577             0.00662484901            0.000491936185           
       0.949217             0.00707292657            0.000526251526           
       0.951858             0.00759295847            0.000515474112           
       0.954498             0.00678094004            0.000512483604           
       0.957138             0.00677329584            0.000492295056           
       0.959779             0.00721619536            0.000519249937           
       0.962419              0.0069191465            0.000489482957           
       0.965059             0.00686543674            0.000501428872           
       0.967700             0.00756334277             0.00050927913           
       0.970340             0.00701157095             0.00050412923           
       0.972981             0.00709406849            0.000489606427           
       0.975621             0.00754961967            0.000515657602           
       0.978261             0.00712802965            0.000478067356           
       0.980902              0.0077393674            0.000521865815           
       0.983542             0.00690675738            0.000478641149           
       0.986182             0.00693236021            0.000485842494           
       0.988823             0.00705407668            0.000474276068           
       0.991463             0.00832864152            0.000527654176           
       0.994104             0.00711504435            0.000471259126           
       0.996744             0.00648967472            0.000464667763           
       0.999384             0.00743783856            0.000480571914           
       1.002025             0.00721085886            0.000486357084           
       1.004665             0.00802311804            0.000492004577           
       1.007306             0.00704911841            0.000476627195           
       1.009946              0.0071818136             0.00046258549           
       1.012586             0.00728651453            0.000479348359           
       1.015227             0.00730713187            0.000465495916           
       1.017867             0.00740673716            0.000482087992           
       1.020507             0.00676295886            0.000443318902           
       1.023148             0.00747692728            0.000471762744           
       1.025788             0.00715613649            0.000456805558           
       1.028429             0.00832141994            0.000503364415           
       1.031069             0.00757714178            0.000462770741           
       1.033709             0.00753858834            0.000470455833           
       1.036350             0.00766752376            0.000462020648           
       1.038990             0.00748834553            0.000467862595           
       1.041630             0.00736543075            0.000455080118           
       1.044271             0.00731449078            0.000453554623           
       1.046911             0.00808460577            0.000467974251           
       1.049552             0.00712908614            0.000455286733           
       1.052192             0.00793045953            0.000458600915           
       1.054832              0.0073353375            0.000449635375           
       1.057473             0.00704548653            0.000435083678           
       1.060113             0.00738203454            0.000450176579           
       1.062754             0.00717937323            0.000439043988           
       1.065394             0.00764913471            0.000448412141           
       1.068034             0.00770313594            0.000448250053           
       1.070675             0.00805213746            0.000466352694           
       1.073315             0.00802436876            0.000451317591           
       1.075955              0.0081273798            0.000461822844           
       1.078596             0.00833357677            0.000466720172           
       1.081236             0.00753798428            0.000437299238           
       1.083877             0.00793664535            0.000462731253           
       1.086517             0.00795139753             0.00045268377           
       1.089157             0.00810337046            0.000460339828           
       1.091798             0.00823684105            0.000454282126           
       1.094438             0.00796005159            0.000453681677           
       1.097078             0.00799651711            0.000443034497           
       1.099719             0.00869833284            0.000473909485           
       1.102359             0.00802090025            0.000431107273           
       1.105000             0.00780990047            0.000442152854           
       1.107640             0.00826609673            0.000440055145           
       1.110280              0.0084344471            0.000453414443           
       1.112921             0.00756319366            0.000421589149           
       1.115561             0.00757522661            0.000427278883           
       1.118202             0.00775190066            0.000419617306           
       1.120842             0.00739273039            0.000422692168           
       1.123482             0.00826025284             0.00043427178           
       1.126123             0.00815485256            0.000434185127           
       1.128763             0.00832882227            0.000436615598           
       1.131403              0.0087070382            0.000445725031           
       1.134044             0.00905359249            0.000453719891           
       1.136684             0.00830255499            0.000437758734           
       1.139325             0.00843036209            0.000428686603           
       1.141965             0.00798418118            0.000422644346           
       1.144605             0.00769981434            0.000417487539           
       1.147246              0.0076829252            0.000409131372           
       1.149886             0.00866355565            0.000437547579           
       1.152527             0.00787293468            0.000417523072           
       1.155167             0.00786032207            0.000411322821           
       1.157807             0.00872722276            0.000433710319           
       1.160448             0.00775252227            0.000414366945           
       1.163088             0.00898916298            0.000429639839           
       1.165728             0.00852428045            0.000435627708           
       1.168369             0.00868262144            0.000423959592           
       1.171009             0.00805097857            0.000411632065           
       1.173650             0.00924490801            0.000437918266           
       1.176290             0.00902171244            0.000437675732           
       1.178930             0.00889621359            0.000422403182           
       1.181571             0.00817967458            0.000418264111           
       1.184211             0.00930778756            0.000432700396           
       1.186851             0.00907113351             0.00043110288           
       1.189492             0.00815942666            0.000411135458           
       1.192132             0.00895310008            0.000424288954           
       1.194773             0.00932418956            0.000430380406           
       1.197413             0.00802456798            0.000402518749           
       1.200053              0.0082506344            0.000405581237           
       1.202694             0.00844463581            0.000407229781           
       1.205334             0.00947734657            0.000436128221           
       1.207975              0.0084881915            0.000404654626           
       1.210615             0.00867320673            0.000417690579           
       1.213255             0.00902330564            0.000414766404           
       1.215896              0.0095046649            0.000433754686           
       1.218536             0.00936580277            0.000418172896           
       1.221176             0.00956438775            0.000432669491           
       1.223817             0.00927394306            0.000417171505           
       1.226457             0.00932803556            0.000423700562           
       1.229098             0.00894267716            0.000408562609           
       1.231738             0.00926598762             0.00042173882           
       1.234378             0.00889944427            0.000405282275           
       1.237019             0.00935226901            0.000418816317           
       1.239659             0.00911887032            0.000413333473           
       1.242299             0.00935326876            0.000416472004           
       1.244940              0.0087875769            0.000399323888           
       1.247580              0.0091055152            0.000408278366           
       1.250221             0.00969089707            0.000428073186           
       1.252861              0.0095606748            0.000409346341           
       1.255501              0.0090099573            0.000408601564           
       1.258142             0.00855232246            0.000390219272           
       1.260782             0.00883131787            0.000401012202           
       1.263423              0.0104288744            0.000427142731           
       1.266063             0.00942243082            0.000413576572           
       1.268703              0.0102258575            0.000419993009           
       1.271344             0.00982848883             0.00042071982           
       1.273984             0.00958299754            0.000408947112           
       1.276624              0.0105179491            0.000425818031           
       1.279265              0.0101680779            0.000419589989           
       1.281905             0.00964034376            0.000411074594           
       1.284546              0.0096042161            0.000405821281           
       1.287186             0.00995405789            0.000413543272           
       1.289826               0.009208359            0.000399814271           
       1.292467             0.00954139697            0.000399716261           
       1.295107               0.010145599            0.000419443104           
       1.297747              0.0102709714            0.000410957182           
       1.300388             0.00957404003            0.000406958378           
       1.303028             0.00949862479             0.00039504461           
       1.305669             0.00964467837            0.000403213241           
       1.308309              0.0101980575            0.000408385188           
       1.310949             0.00931956216            0.000395265202           
       1.313590             0.00921205103            0.000386897026           
       1.316230              0.0101290185            0.000412998718           
       1.318871              0.0104576854            0.000410592481           
       1.321511              0.0102478783            0.000408489725           
       1.324151             0.00982266482            0.000401505528           
       1.326792              0.0100367275            0.000402569233           
       1.329432               0.010335277            0.000410643634           
       1.332072               0.010277324            0.000402468946           
       1.334713              0.0102264677            0.000406450929           
       1.337353             0.00998092128            0.000395365011           
       1.339994              0.0101110938             0.00040360287           
       1.342634              0.0100499353            0.000393321827           
       1.345274              0.0125642631            0.000445528805           
       1.347915              0.0115571784            0.000428436292           
       1.350555               0.010511611            0.000407000521           
       1.353195             0.00984627286            0.000386373678           
       1.355836              0.0106102069            0.000408649901           
       1.358476              0.0101553359            0.000398669906           
       1.361117              0.0109378263             0.00040336495           
       1.363757              0.0102889703            0.000404183038           
       1.366397              0.0108025635            0.000401251057           
       1.369038              0.0108592443            0.000410781755           
       1.371678              0.0101850955              0.0003897937           
       1.374319             0.00960795092             0.00038159133           
       1.376959              0.0104942129            0.000393312374           
       1.379599              0.0103883458            0.000398951117           
       1.382240             0.00984820753            0.000381063132           
       1.384880              0.0103745392             0.00039591552           
       1.387520              0.0103870834            0.000391523031           
       1.390161              0.0101111785            0.000385238241           
       1.392801              0.0102193061            0.000389600945           
       1.395442              0.0107263579            0.000395013616           
       1.398082              0.0103438096            0.000389233175           
       1.400722              0.0108140966            0.000396185249           
       1.403363               0.010773565            0.000399111715           
       1.406003              0.0100206351             0.00037546123           
       1.408644              0.0110705657            0.000402926149           
       1.411284              0.0100905948            0.000382569749           
       1.413924              0.0094663842            0.000365977644           
       1.416565              0.0104469772            0.000384013936           
       1.419205              0.0109297202            0.000396655306           
       1.421845               0.010507487            0.000384028737           
       1.424486             0.00978842362            0.000372292038           
       1.427126              0.0101296763            0.000378487076           
       1.429767             0.00966684285            0.000364041657           
       1.432407              0.0108542612            0.000395470277           
       1.435047             0.00958939503            0.000360544101           
       1.437688              0.0108124488            0.000391324718           
       1.440328              0.0103187243            0.000374877659           
       1.442968              0.0099425917             0.00037307577           
       1.445609              0.0103972795             0.00037523591           
       1.448249              0.0101924645            0.000373923868           
       1.450890             0.00996863623            0.000367157415           
       1.453530              0.0109307863            0.000387315743           
       1.456170              0.0100716353            0.000370945911           
       1.458811             0.00961286706            0.000359515886           
       1.461451             0.00970792717            0.000363944908           
       1.464092              0.0100876269            0.000367760182           
       1.466732              0.0107001051            0.000376436953           
       1.469372             0.00974929976            0.000358218414           
       1.472013              0.0102433897            0.000373752649           
       1.474653             0.00980493118            0.000356637168           
       1.477293             0.00967182352            0.000360170255           
       1.479934              0.0102989723            0.000367774089           
       1.482574              0.0102062932            0.000365212012           
       1.485215             0.00996886861            0.000361868546           
       1.487855              0.0100170787            0.000362667566           
       1.490495             0.00995734526             0.00036080637           
       1.493136             0.00981065243            0.000353442108           
       1.495776             0.00965594124            0.000356757543           
       1.498416              0.0104137132            0.000363294248           
       1.501057             0.00976481098            0.000354819243           
       1.503697             0.00957721921            0.000348015944           
       1.506338              0.0098303648            0.000355178278           
       1.508978             0.00986262297            0.000353660025           
       1.511618             0.00970813476              0.0003507019           
       1.514259             0.00944787992            0.000346594012           
       1.516899              0.0108417483             0.00037145459           
       1.519540             0.00996209439            0.000354090773           
       1.522180              0.0104604376            0.000358307956           
       1.524820             0.00997858572            0.000357026371           
       1.527461             0.00965096134            0.000343349021           
       1.530101              0.0103219206            0.000358755058           
       1.532741             0.00959402781            0.000344235571           
       1.535382              0.0105639733            0.000362013087           
       1.538022             0.00981349982            0.000345830298           
       1.540663             0.00987490669             0.00035018926           
       1.543303             0.00970566383            0.000342855049           
       1.545943             0.00998697534            0.000349737383           
       1.548584             0.00999463426            0.000351734543           
       1.551224              0.0097460456            0.000338428184           
       1.553864              0.0103255099            0.000357443705           
       1.556505             0.00972555312            0.000341567375           
       1.559145             0.00973762152             0.00034256936           
       1.561786              0.0101637527            0.000348399224           
       1.564426              0.0097698485            0.000341272737           
       1.567066             0.00920115114            0.000328606192           
       1.569707              0.0101617383            0.000350333015           
       1.572347             0.00965417762            0.000337041365           
       1.574988             0.00903760324            0.000324810984           
       1.577628             0.00913668151            0.000333939593           
       1.580268             0.00956999408            0.000329972218           
       1.582909             0.00964668411            0.000337488214           
       1.585549             0.00942078447            0.000330396481           
       1.588189              0.0095589512            0.000336527647           
       1.590830             0.00862534393            0.000314184083           
       1.593470             0.00901052921            0.000323745163           
       1.596111             0.00917513548            0.000323866067           
       1.598751             0.00899853462            0.000324012858           
       1.601391             0.00896951776            0.000321421776           
       1.604032             0.00932969932            0.000325074286           
       1.606672             0.00910939461            0.000327678311           
       1.609312             0.00910382511             0.00031783098           
       1.611953             0.00873050189            0.000315756762           
       1.614593              0.0091599324            0.000320969258           
       1.617234             0.00853410426            0.000311566728           
       1.619874             0.00863721277            0.000309755823           
       1.622514             0.00878789802            0.000315209467           
       1.625155              0.0089052353            0.000316522137           
       1.627795             0.00816806444             0.00030007515           
       1.630436             0.00880203142            0.000314633815           
       1.633076             0.00904113832            0.000317258576           
       1.635716             0.00895520709            0.000315196666           
       1.638357             0.00885012765            0.000312010671           
       1.640997             0.00790811497            0.000297244823           
       1.643637              0.0079347172            0.000292215532           
       1.646278             0.00924980201            0.000320225785           
       1.648918             0.00881352851            0.000308552902           
       1.651559             0.00824267947            0.000302144969           
       1.654199             0.00841725169            0.000301142561           
       1.656839             0.00824046919            0.000297883195           
       1.659480             0.00891036114            0.000312482626           
       1.662120             0.00870565482            0.000304733287           
       1.664761             0.00885239466            0.000310617887           
       1.667401             0.00845358667            0.000300712711           
       1.670041             0.00794014974            0.000291771144           
       1.672682             0.00847537015            0.000298607931           
       1.675322             0.00815576185              0.0002981027           
       1.677962             0.00819153749            0.000292822512           
       1.680603             0.00866650615            0.000303865304           
       1.683243             0.00839178706             0.00029679842           
       1.685884             0.00816888019            0.000293944358           
       1.688524              0.0084540337            0.000298189432           
       1.691164             0.00846954401             0.00029769571           
       1.693805             0.00872688189            0.000304628102           
       1.696445             0.00852376065            0.000296883518           
       1.699085             0.00874863398            0.000301975013           
       1.701726             0.00835496684            0.000291264188           
       1.704366             0.00799387624             0.00029183292           
       1.707007             0.00839613295             0.00029270311           
       1.709647             0.00817692632             0.00029244595           
       1.712287             0.00805528539            0.000285411717           
       1.714928             0.00817130916            0.000290350326           
       1.717568             0.00823280456            0.000288760856           
       1.720209             0.00896885062            0.000303253893           
       1.722849             0.00811632606             0.00028894389           
       1.725489             0.00831030626            0.000287716238           
       1.728130             0.00857848614            0.000298272548           
       1.730770             0.00821334662             0.00028568649           
       1.733410             0.00849298031            0.000294322769           
       1.736051             0.00829497089            0.000286356659           
       1.738691             0.00814295096            0.000286616509           
       1.741332             0.00842936409            0.000289818431           
       1.743972              0.0084687518            0.000290602503           
       1.746612             0.00808026453            0.000283924153           
       1.749253             0.00809376118            0.000285389209           
       1.751893             0.00846984742            0.000290192882           
       1.754533             0.00861423388            0.000288639257           
       1.757174             0.00847620152             0.00029167055           
       1.759814             0.00816042867            0.000281822968           
       1.762455             0.00820842044            0.000285056787           
       1.765095             0.00832878881            0.000283106849           
       1.767735             0.00795642068            0.000281407717           
       1.770376             0.00796988214            0.000277374451           
       1.773016             0.00789253717            0.000276460885           
       1.775657             0.00774216361             0.00027437555           
       1.778297             0.00826425324            0.000284862605           
       1.780937             0.00826123748             0.00028348157           
       1.783578              0.0085104844            0.000286375126           
       1.786218              0.0081741499            0.000285137935           
       1.788858             0.00837671451            0.000281477767           
       1.791499             0.00859178977            0.000290322244           
       1.794139             0.00865182215            0.000285954969           
       1.796780             0.00889462975            0.000291662551           
       1.799420             0.00854900083            0.000285575624           
       1.802060             0.00840777716             0.00027972377           
       1.804701              0.0086032048             0.00028675209           
       1.807341             0.00869958246            0.000285567538           
       1.809981             0.00867409112            0.000287042596           
       1.812622             0.00849594362            0.000282531938           
       1.815262             0.00866827427            0.000286400528           
       1.817903             0.00842030041              0.0002787869           
       1.820543             0.00881497309            0.000288771327           
       1.823183             0.00833110312            0.000276408319           
       1.825824             0.00858308747            0.000284776443           
       1.828464             0.00806288941            0.000275164943           
       1.831105             0.00777682261            0.000271285735           
       1.833745             0.00815977129             0.00027771139           
       1.836385             0.00840605467            0.000280774976           
       1.839026             0.00831116989             0.00028338266           
       1.841666             0.00774461351            0.000270001358           
       1.844306             0.00804859387            0.000278724137           
       1.846947             0.00806182419             0.00027536836           
       1.849587             0.00795803655            0.000277300739           
       1.852228             0.00747296542            0.000265858607           
       1.854868             0.00832689451            0.000285784633           
       1.857508              0.0075431767            0.000266980994           
       1.860149             0.00746445578             0.00026771301           
       1.862789             0.00827340418             0.00028309357           
       1.865429             0.00815769281            0.000281954436           
       1.868070             0.00774288801            0.000273743283           
       1.870710             0.00846673648            0.000287032533           
       1.873351             0.00830408131            0.000286076814           
       1.875991             0.00796801385            0.000281744088           
       1.878631             0.00763634147            0.000273254283           
       1.881272             0.00850048044            0.000287625596           
       1.883912             0.00810015576            0.000284063981           
       1.886553             0.00785830292            0.000276434852           
       1.889193             0.00770346155            0.000276859498           
       1.891833             0.00800967093            0.000279095765           
       1.894474             0.00772679246            0.000276292579           
       1.897114              0.0077856657            0.000275191902           
       1.899754             0.00803227226            0.000282650933           
       1.902395             0.00789309583            0.000280251198           
       1.905035              0.0077515055            0.000276637793           
       1.907676             0.00807249802            0.000282635724           
       1.910316             0.00750922018             0.00027433476           
       1.912956             0.00782438577            0.000280021442           
       1.915597             0.00780051213             0.00027667904           
       1.918237             0.00753547566            0.000276066052           
       1.920878             0.00863379741            0.000290271108           
       1.923518             0.00835923923            0.000293206935           
       1.926158             0.00800493075             0.00028033256           
       1.928799             0.00795276712            0.000283130716           
       1.931439             0.00777345211            0.000277677307           
       1.934079             0.00825114352             0.00028897909           
       1.936720              0.0076203715            0.000276079222           
       1.939360              0.0072465013            0.000271816268           
       1.942001             0.00790778773            0.000282855622           
       1.944641             0.00771742848             0.00027822628           
       1.947281             0.00781534386             0.00028133843           
       1.949922             0.00762914228            0.000278314673           
       1.952562             0.00792688898            0.000286134863           
       1.955202             0.00725577819            0.000266876561           
       1.957843             0.00723537625            0.000274966957           
       1.960483             0.00744985843            0.000274562228           
       1.963124             0.00752435831            0.000275727029           
       1.965764             0.00768919448            0.000278830497           
       1.968404             0.00781157658            0.000286066298           
       1.971045             0.00739918418            0.000271433821           
       1.973685              0.0073820666            0.000276179108           
       1.976326             0.00750495852            0.000277254361           
       1.978966             0.00845440857            0.000295662389           
       1.981606              0.0074645458            0.000274877248           
       1.984247             0.00767533862            0.000281161835           
       1.986887             0.00718073463            0.000274495257           
       1.989527             0.00744906342            0.000273752334           
       1.992168             0.00771486829            0.000285315307           
       1.994808             0.00731242909            0.000274543099           
       1.997449              0.0074521002            0.000276746214           
       2.000089             0.00698785087            0.000266409266           
       2.002729             0.00787881518            0.000289365847           
       2.005370             0.00746645903            0.000276336963           
       2.008010             0.00798879876            0.000289634585           
       2.010650             0.00700118086            0.000270365431           
       2.013291             0.00755386829            0.000282432828           
       2.015931             0.00715685095            0.000272943014           
       2.018572             0.00725828105            0.000278520929           
       2.021212             0.00777373425            0.000285654143           
       2.023852             0.00745707984            0.000281245478           
       2.026493             0.00729144721            0.000276885755           
       2.029133             0.00738081816             0.00027645236           
       2.031774             0.00698737627            0.000271591683           
       2.034414              0.0068694063            0.000267682172           
       2.037054             0.00726332732            0.000278720901           
       2.039695             0.00731492364            0.000274199579           
       2.042335             0.00748310268            0.000282054367           
       2.044975             0.00789971063            0.000287483342           
       2.047616             0.00752170141            0.000281722893           
       2.050256             0.00734060507            0.000275037021           
       2.052897             0.00777656443            0.000291470658           
       2.055537             0.00743297833            0.000277189916           
       2.058177             0.00727652624            0.000276679791           
       2.060818             0.00735202898            0.000278946462           
       2.063458             0.00776920029            0.000287146262           
       2.066098             0.00713895997            0.000274031756           
       2.068739              0.0074693477             0.00028322368           
       2.071379             0.00778386823            0.000284855503           
       2.074020             0.00756304029              0.0002846308           
       2.076660             0.00791029661            0.000289118707           
       2.079300             0.00729657041            0.000277636316           
       2.081941              0.0066412598            0.000266486005           
       2.084581             0.00706113148            0.000274984301           
       2.087222             0.00770717473            0.000287484285           
       2.089862             0.00756595734            0.000281288115           
       2.092502             0.00731563722            0.000281621493           
       2.095143             0.00725842423            0.000276508973           
       2.097783              0.0075857158            0.000286975709           
       2.100423             0.00673050005            0.000265132046           
       2.103064             0.00690956461            0.000273274005           
       2.105704             0.00696891161            0.000273395162           
       2.108345             0.00738669061            0.000282762998           
       2.110985             0.00749291265            0.000280788711           
       2.113625             0.00792070076            0.000293241468           
       2.116266             0.00758005987            0.000284743306           
       2.118906             0.00672279983            0.000267963971           
       2.121546             0.00718297476            0.000276763312           
       2.124187              0.0071828596            0.000280589155           
       2.126827             0.00723960066            0.000277277455           
       2.129468             0.00742076701            0.000283654919           
       2.132108              0.0070604135            0.000276109528           
       2.134748             0.00746926816            0.000282921237           
       2.137389             0.00751785391            0.000286217251           
       2.140029              0.0073266911            0.000281868706           
       2.142670             0.00739873053            0.000283713874           
       2.145310              0.0070653002             0.00027830649           
       2.147950             0.00692644177            0.000276623322           
       2.150591             0.00761603345             0.00028740669           
       2.153231             0.00736829179            0.000286872945           
       2.155871             0.00698623004             0.00027530222           
       2.158512             0.00705355195            0.000281610081           
       2.161152             0.00684525545            0.000270490923           
       2.163793             0.00715187377            0.000280981342           
       2.166433             0.00734797338            0.000279868619           
       2.169073             0.00682893224            0.000276102301           
       2.171714             0.00746621537            0.000282820585           
       2.174354             0.00721637507            0.000282297195           
       2.176995             0.00703265948            0.000276368947           
       2.179635             0.00717174098            0.000284370172           
       2.182275             0.00709094207             0.00027715064           
       2.184916             0.00684560584             0.00027806925           
       2.187556             0.00716230294            0.000279849619           
       2.190196             0.00670077948            0.000274937605           
       2.192837             0.00713841308            0.000280666333           
       2.195477             0.00711978866            0.000283003784           
       2.198118             0.00685842984            0.000272632897           
       2.200758             0.00676409862            0.000274956079           
       2.203398             0.00725375198            0.000280012372           
       2.206039             0.00760812636            0.000291153917           
       2.208679              0.0069897317            0.000276338757           
       2.211319             0.00748156315            0.000287241466           
       2.213960             0.00718322755             0.00027846361           
       2.216600             0.00714158211            0.000284197221           
       2.219241             0.00703655842            0.000277998517           
       2.221881             0.00721939184            0.000283054793           
       2.224521               0.006784884            0.000273452852           
       2.227162             0.00745932483            0.000291225502           
       2.229802             0.00698711791            0.000277281694           
       2.232443             0.00729733689            0.000284484356           
       2.235083             0.00706044691            0.000278150781           
       2.237723             0.00741515482            0.000287236624           
       2.240364             0.00687699097            0.000275210053           
       2.243004             0.00702623868            0.000279020802           
       2.245644             0.00653084796            0.000268383536           
       2.248285             0.00708734947             0.00028139939           
       2.250925             0.00712857419            0.000280896908           
       2.253566             0.00679142932            0.000274844377           
       2.256206             0.00642430719            0.000266511865           
       2.258846             0.00712106614            0.000280594905           
       2.261487             0.00771806326            0.000292625427           
       2.264127             0.00699088315            0.000281134266           
       2.266767              0.0067723797            0.000272233507           
       2.269408             0.00671713211            0.000274340873           
       2.272048             0.00723139812            0.000282898052           
       2.274689             0.00774104826            0.000293848261           
       2.277329             0.00685006651            0.000276053437           
       2.279969             0.00704392571            0.000280780849           
       2.282610             0.00718623361            0.000280837255           
       2.285250             0.00635025964             0.00026814952           
       2.287891             0.00646140042            0.000267756389           
       2.290531             0.00714811579              0.0002830145           
       2.293171             0.00658120522            0.000271546496           
       2.295812             0.00705565907            0.000279672067           
       2.298452             0.00667455953            0.000273756393           
       2.301092             0.00674516655            0.000276948684           
       2.303733             0.00711146265            0.000278744448           
       2.306373             0.00722322636            0.000287797495           
       2.309014             0.00734154252            0.000284553834           
       2.311654             0.00713543326            0.000283193435           
       2.314294             0.00697725199            0.000279425509           
       2.316935             0.00720940718            0.000285158747           
       2.319575             0.00716836557            0.000283281149           
       2.322215             0.00693754263            0.000282654145           
       2.324856             0.00697898484            0.000276377835           
       2.327496             0.00713727666            0.000286344352           
       2.330137             0.00705105445            0.000279360589           
       2.332777             0.00677525582            0.000276837631           
       2.335417               0.006863578            0.000277799732           
       2.338058             0.00627611218             0.00026670834           
       2.340698             0.00651898006            0.000269143496           
       2.343339             0.00700728215            0.000284366423           
       2.345979             0.00681545987            0.000274850948           
       2.348619              0.0074654347             0.00029309085           
       2.351260             0.00687965642            0.000275376366           
       2.353900             0.00678209379            0.000279208452           
       2.356540             0.00703048559            0.000280365721           
       2.359181             0.00706706715            0.000284853017           
       2.361821             0.00688867875             0.00027780823           
       2.364462             0.00678225363            0.000280260869           
       2.367102             0.00696187181             0.00027573667           
       2.369742             0.00719226382            0.000290305777           
       2.372383             0.00716404216            0.000281289596           
       2.375023             0.00696734393            0.000284628589           
       2.377663             0.00688238177             0.00027687631           
       2.380304             0.00696272656             0.00028235085           
       2.382944               0.007061633            0.000281567967           
       2.385585             0.00682467676            0.000279420399           
       2.388225             0.00718642885            0.000285434813           
       2.390865             0.00737161298            0.000289829323           
       2.393506             0.00710010771            0.000283131033           
       2.396146             0.00691648298            0.000280372072           
       2.398787             0.00733225019            0.000288928539           
       2.401427             0.00695163019            0.000279621185           
       2.404067             0.00741036715            0.000293106316           
       2.406708             0.00741872166             0.00028958536           
       2.409348             0.00727060584            0.000288836593           
       2.411988             0.00658763044            0.000274057869           
       2.414629              0.0072701325            0.000288846754           
       2.417269             0.00729468581            0.000286706535           
       2.419910             0.00704493178            0.000285308847           
       2.422550             0.00756056457            0.000291079022           
       2.425190             0.00782341938            0.000305418245           
       2.427831             0.00690857548            0.000276212037           
       2.430471             0.00701911577            0.000286551434           
       2.433112             0.00668710295             0.00027309255           
       2.435752             0.00742120785            0.000294975499           
       2.438392             0.00755235495            0.000292568876           
       2.441033             0.00718144041            0.000286601372           
       2.443673             0.00688444036            0.000281361706           
       2.446313              0.0070243462            0.000282692012           
       2.448954             0.00689436249            0.000282521699           
       2.451594             0.00756014108            0.000294073581           
       2.454235             0.00713815087             0.00028485935           
       2.456875             0.00735389549            0.000290596673           
       2.459515             0.00744048261            0.000292753154           
       2.462156             0.00790496567            0.000300197102           
       2.464796             0.00846386496            0.000316107455           
       2.467436             0.00730782483            0.000287568393           
       2.470077             0.00768363691            0.000298936072           
       2.472717             0.00785607859            0.000298489727           
       2.475358             0.00764993825            0.000297884647           
       2.477998             0.00738628888            0.000291144832           
       2.480638             0.00729538847            0.000290050827           
       2.483279             0.00744630728            0.000294294469           
       2.485919              0.0069763332            0.000282861362           
       2.488560              0.0075913782            0.000296290707           
       2.491200             0.00706531514            0.000285448421           
       2.493840             0.00727930424            0.000288161399           
       2.496481             0.00728168722            0.000291977419           
       2.499121             0.00765887248            0.000295457082           
       2.501761             0.00760575905            0.000299430417           
       2.504402             0.00773364085            0.000296150866           
       2.507042             0.00693677945             0.00028514122           
       2.509683             0.00727646765            0.000289379776           
       2.512323              0.0072641391            0.000290266659           
       2.514963             0.00951573625            0.000332881102           
       2.517604              0.0144448313            0.000408526858           
       2.520244              0.0424716853            0.000700662816           
       2.522884              0.0168829004            0.000440790067           
       2.525525              0.0105319343            0.000351006447           
       2.528165              0.0179411997            0.000456035615           
       2.530806              0.0290315531            0.000577929497           
       2.533446              0.0163907268            0.000438108067           
       2.536086              0.0162006623            0.000431904997           
       2.538727              0.0163051687            0.000436073616           
       2.541367              0.0170443881            0.000444574192           
       2.544008              0.0133446765            0.000393708971           
       2.546648             0.00840639383            0.000312837657           
       2.549288             0.00764311924            0.000298340345           
       2.551929             0.00752283373            0.000296961114           
       2.554569             0.00721289393            0.000288122185           
       2.557209             0.00747410977            0.000296606826           
       2.559850             0.00719043443            0.000287578237           
       2.562490             0.00689083137            0.000283573071           
       2.565131             0.00740495979            0.000294473008           
       2.567771             0.00717802813            0.000288389089           
       2.570411             0.00733523958            0.000295077708           
       2.573052             0.00691224297            0.000283099726           
       2.575692             0.00730530309            0.000291809625           
       2.578332             0.00771439883            0.000298983148           
       2.580973             0.00784882701            0.000304022073           
       2.583613             0.00673001566            0.000278955531           
       2.586254             0.00710648562             0.00028918759           
       2.588894              0.0067750632            0.000280857494           
       2.591534             0.00698289315            0.000285657175           
       2.594175             0.00701088766            0.000287890697           
       2.596815             0.00675212245             0.00027990105           
       2.599456             0.00734625736            0.000294344732           
       2.602096             0.00737192159            0.000293754998           
       2.604736             0.00740204122             0.00029512648           
       2.607377             0.00768456383            0.000299556025           
       2.610017             0.00728150516            0.000291492422           
       2.612657             0.00685621897            0.000284849902           
       2.615298             0.00667885214            0.000278391251           
       2.617938             0.00707584876            0.000289052466           
       2.620579             0.00696499224            0.000284436655           
       2.623219             0.00693686597            0.000288402374           
       2.625859             0.00661463921            0.000276877949           
       2.628500             0.00711547653            0.000291758378           
       2.631140             0.00700571005             0.00028439405           
       2.633780             0.00674123973             0.00028255754           
       2.636421             0.00721507695            0.000289659294           
       2.639061              0.0077947051            0.000304669254           
       2.641702             0.00721560069            0.000289999619           
       2.644342             0.00688241472            0.000285548331           
       2.646982             0.00778680221            0.000303472901           
       2.649623             0.00694977496            0.000288417413           
       2.652263             0.00692439402            0.000285599449           
       2.654904             0.00720407666            0.000292891908           
       2.657544             0.00736855306            0.000294132483           
       2.660184              0.0073772056            0.000294681575           
       2.662825             0.00733152485             0.00029447194           
       2.665465             0.00695937632            0.000287431531           
       2.668105              0.0070639194            0.000289697028           
       2.670746             0.00708479766            0.000287669973           
       2.673386             0.00692582691            0.000287871348           
       2.676027             0.00680154043            0.000282851531           
       2.678667             0.00692810895            0.000286955244           
       2.681307             0.00738250107            0.000293886751           
       2.683948             0.00782638209            0.000305598061           
       2.686588              0.0085475121            0.000316436218           
       2.689229              0.0069573781            0.000288051049           
       2.691869             0.00696665689            0.000285365959           
       2.694509             0.00715849159            0.000293235191           
       2.697150             0.00727733076             0.00029094036           
       2.699790             0.00745187013            0.000300524171           
       2.702430             0.00715738702            0.000288879332           
       2.705071             0.00681103186            0.000285659779           
       2.707711             0.00664951681            0.000279453533           
       2.710352             0.00650815624            0.000278040764           
       2.712992             0.00721204602            0.000293642191           
       2.715632             0.00661402007            0.000279604735           
       2.718273             0.00642626726            0.000276522543           
       2.720913             0.00666734125            0.000282131755           
       2.723553             0.00672232275            0.000282308246           
       2.726194             0.00713972278             0.00029234391           
       2.728834             0.00725078779            0.000291990107           
       2.731475             0.00733188313            0.000296184569           
       2.734115             0.00690011738            0.000285619143           
       2.736755             0.00775436943            0.000304785115           
       2.739396             0.00676371142            0.000283145986           
       2.742036             0.00672669205             0.00028429739           
       2.744677             0.00696892675            0.000289794105           
       2.747317             0.00718676852            0.000292858877           
       2.749957             0.00757231894            0.000302792596           
       2.752598              0.0071213082            0.000294521197           
       2.755238             0.00693009421            0.000290409259           
       2.757878              0.0067782198            0.000286391695           
       2.760519             0.00646054114            0.000276647752           
       2.763159             0.00697366667            0.000292097643           
       2.765800             0.00742224286            0.000296241004           
       2.768440             0.00640669341            0.000278854955           
       2.771080             0.00729983858            0.000295149943           
       2.773721             0.00633844458            0.000278402345           
       2.776361             0.00658429771            0.000280702689           
       2.779001              0.0062339646            0.000276003958           
       2.781642             0.00705693832            0.000291653873           
       2.784282             0.00663648603            0.000282930757           
       2.786923             0.00662446666            0.000280524596           
       2.789563             0.00662526767            0.000281105113           
       2.792203             0.00688718719            0.000288432171           
       2.794844             0.00653938034            0.000279775981           
       2.797484             0.00618271391            0.000272422638           
       2.800125             0.00661324082            0.000281383869           
       2.802765             0.00621954896            0.000277938521           
       2.805405             0.00707390536              0.0002921354           
       2.808046             0.00691761097            0.000293319785           
       2.810686              0.0059867064            0.000269963356           
       2.813326             0.00687358816             0.00029284836           
       2.815967             0.00627583627            0.000278061748           
       2.818607             0.00644668928            0.000284638484           
       2.821248              0.0064436212            0.000281022455           
       2.823888             0.00673585023            0.000291952086           
       2.826528             0.00620792578            0.000278605559           
       2.829169             0.00634572955            0.000280437248           
       2.831809             0.00625648248            0.000278702187           
       2.834449             0.00661807133            0.000281639459           
       2.837090             0.00672047997            0.000285518117           
       2.839730             0.00666945797            0.000282412332           
       2.842371             0.00665430579            0.000284056802           
       2.845011             0.00684858839            0.000287530994           
       2.847651             0.00667383589            0.000284360149           
       2.850292             0.00683414039            0.000286120044           
       2.852932             0.00671356469            0.000284093315           
       2.855573             0.00712377945            0.000295214193           
       2.858213             0.00761396404            0.000301777577           
       2.860853             0.00685764653            0.000288541081           
       2.863494             0.00669226732            0.000285726958           
       2.866134             0.00666703696            0.000289188077           
       2.868774             0.00677291772            0.000287013584           
       2.871415             0.00735546297            0.000302062514           
       2.874055             0.00693046109            0.000294658407           
       2.876696             0.00673325251            0.000287820589           
       2.879336             0.00644999883            0.000283571489           
       2.881976             0.00662249084            0.000287101753           
       2.884617             0.00740282575            0.000301859344           
       2.887257             0.00688650103            0.000289112213           
       2.889897             0.00626477697            0.000278913506           
       2.892538             0.00651949992            0.000282554497           
       2.895178             0.00687132346            0.000287120185           
       2.897819             0.00663334504              0.0002850058           
       2.900459             0.00698248986            0.000289989203           
       2.903099             0.00619648367             0.00027460665           
       2.905740              0.0069959426            0.000288527016           
       2.908380             0.00620463138            0.000275342088           
       2.911021             0.00700358681            0.000293089107           
       2.913661             0.00706960536            0.000291226697           
       2.916301             0.00697192835            0.000293322085           
       2.918942             0.00697258297            0.000288910498           
       2.921582             0.00652644524            0.000282447399           
       2.924222             0.00674438707            0.000285459276           
       2.926863             0.00657395522             0.00028257799           
       2.929503             0.00665944164            0.000287566562           
       2.932144             0.00639432407            0.000277162762           
       2.934784             0.00768245972            0.000305091037           
       2.937424             0.00762884696            0.000304586946           
       2.940065             0.00728961374            0.000297980203           
       2.942705             0.00625107586            0.000276777104           
       2.945346             0.00665454215            0.000283882826           
       2.947986             0.00653999505            0.000282413088           
       2.950626             0.00703801913            0.000293869574           
       2.953267             0.00855752614             0.00032060121           
       2.955907              0.0101010041            0.000352920968           
       2.958547              0.0102760542            0.000352315886           
       2.961188             0.00833091584             0.00031999284           
       2.963828             0.00811019611            0.000313936198           
       2.966469             0.00708079517            0.000293409983           
       2.969109             0.00723811924            0.000298168796           
       2.971749             0.00615776032             0.00027420883           
       2.974390               0.007803757            0.000309536588           
       2.977030             0.00805889354            0.000313957251           
       2.979670              0.0106386889            0.000358399863           
       2.982311             0.00861755022            0.000324891756           
       2.984951             0.00831688294            0.000319998948           
       2.987592             0.00693198986            0.000291158109           
       2.990232             0.00719298994            0.000297346084           
       2.992872             0.00763292424            0.000303907777           
       2.995513             0.00832044589            0.000319792101           
       2.998153             0.00847647756            0.000324859091           
       3.000794             0.00967822228            0.000342073192           
       3.003434              0.0204505995            0.000502521999           
       3.006074              0.0689298423            0.000925556855           
       3.008715               0.050480155            0.000798094457           
       3.011355              0.0315933255            0.000637947325           
       3.013995              0.0227069946            0.000538192913           
       3.016636              0.0327827794            0.000647879977           
       3.019276               0.173022714             0.00152398148           
       3.021917               0.201111602             0.00161516875           
       3.024557                0.13492616             0.00133352398           
       3.027197               0.147826286             0.00141924451           
       3.029838               0.157844466             0.00145953438           
       3.032478              0.0590590284            0.000898111351           
       3.035118              0.0360890789            0.000705674924           
       3.037759              0.0908828329             0.00112181678           
       3.040399               0.226908781             0.00179286641           
       3.043040               0.109209926             0.00125588856           
       3.045680              0.0524567065            0.000856998232           
       3.048320               0.164247547             0.00154078683           
       3.050961               0.258000178             0.00195045657           
       3.053601              0.0742224859             0.00104152373           
       3.056242              0.0547205426            0.000900030764           
       3.058882               0.205451763             0.00176990511           
       3.061522               0.121226403             0.00135012567           
       3.064163              0.0210830191            0.000564068074           
       3.066803              0.0260441981            0.000639055288           
       3.069443              0.0372159656            0.000758831635           
       3.072084              0.0679093848             0.00103417624           
       3.074724              0.0230831786            0.000606505032           
       3.077365              0.0100487577            0.000399881897           
       3.080005             0.00927562713            0.000388451412           
       3.082645             0.00921446043            0.000389139833           
       3.085286             0.00873691261             0.00037899103           
       3.087926              0.0084846254            0.000375855334           
       3.090566             0.00779419825            0.000363949172           
       3.093207             0.00720500018            0.000346141997           
       3.095847             0.00747942232            0.000360064697           
       3.098488             0.00740097955             0.00035752213           
       3.101128             0.00739150477            0.000359239519           
       3.103768              0.0083811375            0.000384688324           
       3.106409             0.00991222714            0.000421155356           
       3.109049              0.0102668888             0.00043195572           
       3.111690              0.0110105779            0.000445565431           
       3.114330             0.00962083654             0.00042020382           
       3.116970              0.0100893102            0.000436299122           
       3.119611               0.013070673            0.000493364001           
       3.122251              0.0145166207            0.000524195718           
       3.124891              0.0119691015            0.000478293839           
       3.127532             0.00762809859            0.000388710105           
       3.130172             0.00764020838            0.000381015784           
       3.132813             0.00791001524            0.000395575351           
       3.135453             0.00882977139            0.000426757489           
       3.138093             0.00803669882            0.000397481059           
       3.140734               0.006839229            0.000373499078           
       3.143374             0.00722315597            0.000389706955           
       3.146014              0.0067709849            0.000374573059           
       3.148655             0.00677637867            0.000377672476           
       3.151295             0.00610275904            0.000361246479           
       3.153936             0.00539340514            0.000344616826           
       3.156576             0.00642034083            0.000371680436           
       3.159216             0.00803094568            0.000419094118           
       3.161857             0.00620484428            0.000372896981           
       3.164497             0.00640607354            0.000386884577           
       3.167138             0.00622358534            0.000372185401           
       3.169778             0.00566054191            0.000361359985           
       3.172418             0.00633069705            0.000384385664           
       3.175059             0.00613124295            0.000383232515           
       3.177699             0.00590412563            0.000374582177           
       3.180339             0.00616088315            0.000386060615           
       3.182980             0.00624827094            0.000394037557           
       3.185620             0.00611159393            0.000393962627           
       3.188261             0.00646892429            0.000400005865           
       3.190901             0.00566023153            0.000379934223           
       3.193541             0.00565463604             0.00038099772           
       3.196182             0.00603313662            0.000401730728           
       3.198822             0.00546648444            0.000377764058           
       3.201463             0.00524380446            0.000374774457           
       3.204103             0.00571837585            0.000396577507           
       3.206743             0.00606444881            0.000411854461           
       3.209384             0.00606366507            0.000409992009           
       3.212024             0.00605318771            0.000411092856           
       3.214664              0.0058463654            0.000411709352           
       3.217305             0.00528036716            0.000400401511           
       3.219945             0.00549201727            0.000404932597           
       3.222586             0.00563842047            0.000412616304           
       3.225226             0.00554970414            0.000418579477           
       3.227866             0.00618345139            0.000445251464           
       3.230507             0.00586456212            0.000438792656           
       3.233147             0.00640624786             0.00045182655           
       3.235787             0.00580329691            0.000430155331           
       3.238428             0.00590420328            0.000441541748           
       3.241068             0.00509154815            0.000418344853           
       3.243709             0.00516913016            0.000419180431           
       3.246349             0.00511845475             0.00041478685           
       3.248989             0.00579853633            0.000451574751           
       3.251630             0.00610151322            0.000465271439           
       3.254270             0.00559301428            0.000459154841           
       3.256911             0.00605187737            0.000465651467           
       3.259551             0.00535573663            0.000447731613           
       3.262191             0.00541107601            0.000454179102           
       3.264832             0.00485978286             0.00043445997           
       3.267472             0.00571943473            0.000478006238           
       3.270112              0.0052972948            0.000461337388           
       3.272753             0.00630601834            0.000509534706           
       3.275393             0.00541618869            0.000474649194           
       3.278034             0.00477221586            0.000454615266           
       3.280674             0.00561815384            0.000494697142           
       3.283314             0.00540826036            0.000488050171           
       3.285955             0.00613613061             0.00052962039           
       3.288595              0.0058392229            0.000522411972           
       3.291235             0.00496749348             0.00048467203           
       3.293876              0.0068467264            0.000572380362           
       3.296516             0.00608000397            0.000550381833           
       3.299157             0.00549899964            0.000531335706           
       3.301797             0.00540022737            0.000526765954           
       3.304437             0.00636647439             0.00058267514           
       3.307078              0.0052232961             0.00053290272           
       3.309718             0.00489305622            0.000520930085           
       3.312359             0.00479869587            0.000526306429           
       3.314999             0.00637016079            0.000612751653           
       3.317639             0.00556855477            0.000579071269           
       3.320280             0.00448749638            0.000527422918           
       3.322920             0.00443208421            0.000531998799           
       3.325560             0.00468176492            0.000557336663           
       3.328201             0.00484273682            0.000569233227           
       3.330841             0.00523782137            0.000606395745           
       3.333482              0.0047818764            0.000586758699           
       3.336122             0.00447869941            0.000580195572           
       3.338762             0.00706167039            0.000735201407           
       3.341403             0.00487797683            0.000616712608           
       3.344043              0.0059955387            0.000709813733           
       3.346683              0.0067190488            0.000759043796           
       3.349324             0.00568833064            0.000709213094           
       3.351964             0.00616071339            0.000761801802           
       3.354605             0.00447950382            0.000656949064           
       3.357245             0.00512871075            0.000727652431           
       3.359885             0.00440565498            0.000674654147           
       3.362526             0.00518950651            0.000769654643           
       3.365166             0.00583278407             0.00080588959           
       3.367807             0.00732783979            0.000966936588           
       3.370447             0.00431049964            0.000741894521           
       3.373087             0.00378767101            0.000733974406           
       3.375728             0.00555444064            0.000882103474           
       3.378368             0.00402553269            0.000811457725           
       3.381008             0.00709526137             0.00106791087           
       3.383649             0.00480062864            0.000950645166           
       3.386289             0.00445871329             0.00091654382           
       3.388930             0.00689207816             0.00125147901           
       3.391570             0.00514953647             0.00108221764           
       3.394210             0.00516459266             0.00116126648           
       3.396851             0.00356800341             0.00104556145           
       3.399491             0.00463610429             0.00121345858           
       3.402131              0.0039306494             0.00132259938           
       3.404772             0.00429617457             0.00138332176           
       3.407412              0.0066028586              0.0021280212           
       3.410053             0.00843763083             0.00250488044           
       3.412693             0.00138565374             0.00143615439           
       3.415333             0.00203810557             0.00213407329           
