################################################################################
# EDF_DataBlockID                     0.Image.Psd
# EDF_BinarySize                      2105344
# EDF_HeaderSize                      2560
# ByteOrder                           LowByteFirst
# DataType                            FloatValue
# Dim_1                               512
# Dim_2                               1028
# Image                               0
# HeaderID                            EH:000000:000000:000000
# Size                                2105344
# Center_1                            304.9000
# Center_2                            588.7000
# Comment                             Xenocs_Cell_Window - front_window_open_only
# DDummy                              0.6
# Date                                2025-10-20T02:41:48
# Delta                               21.910000
# Dummy                               -1.5
# ExposureTime                        360
# Gamma                               15.360000
# Intensity1                          8.8299e-10
# PSize_1                             7.5e-05
# PSize_2                             7.5e-05
# Pressure                            0.0326653
# SampleDistance                      0.115750
# SampleEnvKind                       large
# SampleEnvPN                         ElectroChemical cell
# SampleEnvSN                         1141
# Thickness                           0
# Wavelength                          1.541891e-10
# Wavelength                          1.54189e-10
# aux                                 0
# aux_dial                            0.002375
# beamx                               588.429
# beamx_dial                          588.429
# beamz                               657.855
# beamz_dial                          657.855
# det0x                               -0.000396875
# det0x_dial                          6.36905
# det0xvd                             -0.0005
# det0xvd_dial                        -0.0005
# det0y                               450.002
# det0y_dial                          481.635
# det0z                               0
# det0z_dial                          1.2295
# det0zvd                             0
# det0zvd_dial                        0
# mag                                 1.818
# mag_dial                            1.818
# om                                  0.2499
# om_dial                             -0.610199
# phi                                 -0.0120535
# phi_dial                            0
# ry                                  0.599993
# ry_dial                             0.599993
# s1bot                               0.8
# s1bot_dial                          -1.66094
# s1hl                                0.8
# s1hl_dial                           -0.608437
# s1hr                                0.8
# s1hr_dial                           0.970938
# s1top                               0.8
# s1top_dial                          -0.461562
# s2bot                               0.45
# s2bot_dial                          1.36109
# s2hl                                0.45
# s2hl_dial                           -0.83375
# s2hr                                0.45
# s2hr_dial                           -0.118594
# s2top                               0.45
# s2top_dial                          1.44734
# w2theta                             32
# w2theta_dial                        32
# waxsch                              19.2605
# waxsch_dial                         -32.7238
# waxsh                               137.085
# waxsh_dial                          -43.5335
# waxsth                              26.0607
# waxsth_dial                         -19.4068
# waxsz                               67.0407
# waxsz_dial                          -23.7962
# wind                                65.9854
# wind_dial                           66.0041
# wpsi                                124
# wpsi_dial                           124
# wstod                               115
# wstod_dial                          115
# x                                   0
# x_dial                              1.00969
# z                                   0
# z_dial                              13.3172
# CountCutoff                         6807993
# DetectorModel                       Dectris EIGER2 Si 500K, S/N E-01-0554
# ThresholdSetting                    4023.88989258
# Saturation                          0
# FlatField                           Corrected
# BackgroundReductionExtra            0.02
# BackgroundCorrectionConstant        0.0026712
# Detector                            0
# Monitor                             0
# Pil_Roi0                            0
# SumForIntensity1                    3.17876e+08
# TransmittedFlux                     882990
# det                                 0
# mon                                 0
# pilai0                              3.17876e+08
# pilai1                              687917
# pilct0                              5.50108e+08
# pilct1                              687917
# pilroi0                             0
# pilroi1                             0
# sec                                 1
# title                               20251017__1_00514.edf
# usaxs0                              0
# Operation                           Azimuthal average I(q)
# Error_model                         ErrorModel.poisson
# Geometrical_correction              True
# Transmission_correction             True
# Thickness_correction                False
# Binning mode                        Uniform
# Binning factor                      1.0
# Psi                                 0.0
# Omega                               0.2499
# MaskInvalidPixels                   True
# DetectorEdge                        3
# MaskFiles                           ['20251017__1_00233_mask.edf']
################################################################################
    q(A⁻¹)                Intensity(a.u.)            Sigma_I(a.u.)            
       0.690460           -2.30017262e-05                         0           
       0.693100             0.00631641283             0.00329723578           
       0.695741             0.00940375504              0.0033988463           
       0.698381              0.0072938699             0.00279966485           
       0.701021             0.00771977074             0.00235068321           
       0.703662             0.00597116626             0.00191365579           
       0.706302             0.00503701934             0.00169744966           
       0.708942             0.00482037674             0.00147500847           
       0.711583             0.00307771438             0.00117838887           
       0.714223             0.00875389672             0.00173180667           
       0.716864             0.00873709448             0.00176552521           
       0.719504             0.00689946004             0.00145202744           
       0.722144             0.00756225899             0.00146817809           
       0.724785             0.00817807117              0.0015017627           
       0.727425             0.00769245213             0.00135097135           
       0.730065             0.00294691861             0.00086037814           
       0.732706             0.00803750613             0.00127774386           
       0.735346             0.00421960238             0.00100002589           
       0.737987             0.00668526628             0.00108948883           
       0.740627             0.00675330484             0.00119958051           
       0.743267             0.00814365909             0.00113309558           
       0.745908             0.00611172319             0.00105201454           
       0.748548             0.00812988535              0.0011316505           
       0.751189             0.00733645421             0.00106488385           
       0.753829             0.00766592189             0.00109835172           
       0.756469             0.00605232637            0.000917910716           
       0.759110             0.00648809857            0.000983018255           
       0.761750             0.00690945655            0.000928416794           
       0.764390             0.00467113977             0.00081943072           
       0.767031             0.00606672326            0.000845027331           
       0.769671             0.00594441846            0.000887099854           
       0.772312             0.00709728583            0.000883303988           
       0.774952             0.00700338532            0.000940663662           
       0.777592             0.00747818732            0.000889065189           
       0.780233             0.00490953034            0.000759420402           
       0.782873             0.00653889317               0.000801444           
       0.785513             0.00629372815            0.000836410448           
       0.788154             0.00737376439            0.000831562924           
       0.790794             0.00706621567            0.000842504502           
       0.793435             0.00607276803             0.00075017928           
       0.796075             0.00687228008            0.000802251674           
       0.798715             0.00604265241            0.000747975901           
       0.801356             0.00958754522            0.000916952165           
       0.803996             0.00737538889            0.000817091726           
       0.806637             0.00650567921            0.000725400401           
       0.809277              0.0075676168            0.000818484435           
       0.811917             0.00669235737             0.00072835811           
       0.814558             0.00621420173            0.000719006514           
       0.817198             0.00797539753            0.000776671555           
       0.819838             0.00646048171            0.000729159543           
       0.822479             0.00715023957            0.000706921522           
       0.825119             0.00640450333            0.000718723379           
       0.827760             0.00701547046            0.000697013185           
       0.830400             0.00779143282            0.000773941256           
       0.833040             0.00671881032            0.000670748583           
       0.835681             0.00693888906            0.000713828128           
       0.838321             0.00601216697            0.000621915571           
       0.840961             0.00651459607            0.000676670407           
       0.843602             0.00663354659            0.000643189495           
       0.846242             0.00616930557            0.000642174605           
       0.848883             0.00705560566            0.000668058836           
       0.851523             0.00645229036            0.000643646047           
       0.854163             0.00573228337            0.000599623931           
       0.856804             0.00591003538            0.000593271138           
       0.859444             0.00720909281             0.00065994816           
       0.862085              0.0068170988            0.000632419851           
       0.864725             0.00676408239            0.000627643105           
       0.867365             0.00649967173            0.000610847291           
       0.870006             0.00633874709            0.000611654411           
       0.872646             0.00622038259            0.000579546767           
       0.875286             0.00642243879            0.000608949383           
       0.877927             0.00794332208             0.00064841404           
       0.880567              0.0063459073            0.000590881837           
       0.883208             0.00670896708            0.000590003357           
       0.885848             0.00668508355             0.00060422568           
       0.888488             0.00697213356            0.000586714876           
       0.891129             0.00705749337            0.000620506133           
       0.893769             0.00581768275            0.000532527256           
       0.896410               0.007108158            0.000606765945           
       0.899050             0.00689897541            0.000576368492           
       0.901690             0.00602853461            0.000550029286           
       0.904331             0.00710631621            0.000576326671           
       0.906971             0.00658836909            0.000573014649           
       0.909611             0.00666448704            0.000553165774           
       0.912252             0.00598755769            0.000533405926           
       0.914892             0.00604996591              0.0005225978           
       0.917533             0.00702821201            0.000575975553           
       0.920173             0.00756255867            0.000573122168           
       0.922813             0.00689053009            0.000571692974           
       0.925454             0.00743974571             0.00056377918           
       0.928094             0.00804677259            0.000598913685           
       0.930734             0.00670430688            0.000533629578           
       0.933375             0.00678772259            0.000548385177           
       0.936015             0.00669078874             0.00052094403           
       0.938656             0.00768202137            0.000581614473           
       0.941296             0.00672218079            0.000524479169           
       0.943936             0.00682923935              0.0005381598           
       0.946577             0.00744208352            0.000541036442           
       0.949217             0.00760411166            0.000566208661           
       0.951858             0.00648795458            0.000494440138           
       0.954498             0.00801875719            0.000578291791           
       0.957138             0.00736034946            0.000532516588           
       0.959779             0.00644393213            0.000509162327           
       0.962419              0.0073051236            0.000521895519           
       0.965059             0.00785408722            0.000556521035           
       0.967700             0.00748368372            0.000525672396           
       0.970340             0.00706903452            0.000525258072           
       0.972981             0.00721232807            0.000512266116           
       0.975621             0.00736200881             0.00052839114           
       0.978261             0.00729358698            0.000501803165           
       0.980902             0.00715496011            0.000520676764           
       0.983542             0.00733308175            0.000511769816           
       0.986182             0.00734454026            0.000518914393           
       0.988823             0.00703134373             0.00049134751           
       0.991463              0.0074969013            0.000519471426           
       0.994104             0.00704811433            0.000486705114           
       0.996744             0.00830859566            0.000545573621           
       0.999384             0.00784100849            0.000512011182           
       1.002025             0.00748239907            0.000514091773           
       1.004665              0.0073103013            0.000487330578           
       1.007306             0.00628837407            0.000467131412           
       1.009946              0.0080824404            0.000509219081           
       1.012586             0.00770643886            0.000511536547           
       1.015227             0.00830336269            0.000514905912           
       1.017867             0.00856015733            0.000537789344           
       1.020507             0.00767058127            0.000489914717           
       1.023148             0.00693064541            0.000471310781           
       1.025788             0.00697096419            0.000467839588           
       1.028429             0.00774554516            0.000503927731           
       1.031069             0.00804228654            0.000494722234           
       1.033709             0.00754822726            0.000488489012           
       1.036350             0.00765536847            0.000479043929           
       1.038990             0.00767458563            0.000491486199           
       1.041630             0.00733550898             0.00047126196           
       1.044271             0.00758716717            0.000479331365           
       1.046911             0.00735910652            0.000463301334           
       1.049552             0.00790392968            0.000497448437           
       1.052192             0.00708508779            0.000449797286           
       1.054832             0.00820505228            0.000493457291           
       1.057473              0.0079678469            0.000480116089           
       1.060113             0.00777808952            0.000479501313           
       1.062754               0.007319914            0.000460019488           
       1.065394             0.00800837182            0.000476103961           
       1.068034             0.00764729178            0.000463445715           
       1.070675             0.00809167331            0.000485105883           
       1.073315             0.00856059528            0.000483712462           
       1.075955             0.00786070359            0.000471291184           
       1.078596              0.0083829115            0.000485732054           
       1.081236             0.00698126477            0.000436693405           
       1.083877              0.0081937935            0.000487878101           
       1.086517             0.00756906516             0.00045830309           
       1.089157             0.00805122802            0.000476140627           
       1.091798             0.00879575423            0.000487124892           
       1.094438             0.00805250898            0.000473497161           
       1.097078             0.00845934551            0.000472839732           
       1.099719             0.00847362815            0.000485367355           
       1.102359             0.00872125357            0.000466467854           
       1.105000             0.00797058136            0.000463503646           
       1.107640             0.00865128525            0.000467149243           
       1.110280             0.00916987783            0.000490577118           
       1.112921             0.00900315273            0.000477301275           
       1.115561             0.00805622978            0.000457233465           
       1.118202             0.00839576722            0.000453145799           
       1.120842              0.0088449949            0.000479765519           
       1.123482             0.00838109015            0.000453914093           
       1.126123             0.00766355013            0.000436757488           
       1.128763             0.00793158191            0.000442125769           
       1.131403             0.00794930627            0.000441931426           
       1.134044             0.00827911066            0.000450222986           
       1.136684             0.00820023734            0.000451440609           
       1.139325             0.00778730152            0.000427532136           
       1.141965             0.00902224839            0.000466203718           
       1.144605             0.00827970638            0.000449230599           
       1.147246             0.00796010955            0.000432133041           
       1.149886             0.00820221439            0.000441775097           
       1.152527             0.00798104823            0.000436214999           
       1.155167             0.00896136717            0.000455730655           
       1.157807             0.00830198447             0.00043894606           
       1.160448             0.00877503048            0.000457452896           
       1.163088             0.00886353422            0.000442697279           
       1.165728             0.00963375959            0.000480554894           
       1.168369             0.00863665156            0.000438763208           
       1.171009             0.00959876436            0.000466391901           
       1.173650             0.00885555988            0.000444742105           
       1.176290             0.00921181607            0.000458922212           
       1.178930             0.00858718246            0.000430634081           
       1.181571             0.00851647939            0.000442864747           
       1.184211             0.00863154148            0.000432381112           
       1.186851              0.0094410507             0.00045637178           
       1.189492             0.00866663159            0.000439682066           
       1.192132             0.00873510112            0.000434878008           
       1.194773             0.00886188149            0.000435379909           
       1.197413              0.0096982769            0.000459177973           
       1.200053                0.00923004            0.000445137771           
       1.202694             0.00947117875             0.00044751702           
       1.205334              0.0095855597            0.000455132678           
       1.207975             0.00974651773            0.000449945731           
       1.210615             0.00935241543            0.000450075319           
       1.213255             0.00914637565            0.000433315004           
       1.215896             0.00887143261             0.00043484164           
       1.218536              0.0092373343            0.000430938384           
       1.221176             0.00894547908            0.000434198141           
       1.223817             0.00971622952            0.000443087785           
       1.226457             0.00883541554            0.000427893713           
       1.229098             0.00981325695            0.000444109333           
       1.231738             0.00889848571            0.000428858722           
       1.234378             0.00916233108            0.000426714725           
       1.237019             0.00922011665            0.000431510908           
       1.239659             0.00991269182            0.000447182019           
       1.242299             0.00863740507            0.000415292628           
       1.244940             0.00958216815            0.000432694214           
       1.247580             0.00961493082            0.000435347104           
       1.250221             0.00951198498            0.000440078432           
       1.252861              0.0100066327            0.000434559342           
       1.255501             0.00969325852             0.00043977651           
       1.258142              0.0106579071            0.000452023608           
       1.260782             0.00998891003            0.000442550007           
       1.263423              0.0102757078            0.000439965525           
       1.266063             0.00945038105            0.000429791263           
       1.268703              0.0110378637            0.000452786197           
       1.271344             0.00921445361            0.000422710332           
       1.273984             0.00973580549            0.000427721296           
       1.276624             0.00999360814            0.000430703245           
       1.279265              0.0103858943            0.000440033871           
       1.281905              0.0105982662            0.000447249909           
       1.284546              0.0105121033            0.000440562104           
       1.287186             0.00990475623            0.000428056647           
       1.289826             0.00995996017            0.000431473814           
       1.292467              0.0106036656            0.000437252517           
       1.295107             0.00984980154            0.000428850997           
       1.297747              0.0104394114            0.000429919647           
       1.300388             0.00985531797            0.000428446073           
       1.303028              0.0104485592            0.000429934652           
       1.305669              0.0102176065            0.000430649521           
       1.308309             0.00985754273            0.000416633378           
       1.310949             0.00976575887             0.00041985787           
       1.313590              0.0101481744            0.000421375865           
       1.316230             0.00990754203            0.000423844406           
       1.318871              0.0100165371            0.000416975444           
       1.321511              0.0100228639            0.000419197368           
       1.324151             0.00998164645            0.000419987564           
       1.326792             0.00989843193            0.000414845312           
       1.329432              0.0103600132            0.000426621424           
       1.332072              0.0109524389            0.000431128014           
       1.334713              0.0104778883            0.000426914249           
       1.337353              0.0107472434             0.00042571596           
       1.339994              0.0100676954            0.000417906072           
       1.342634              0.0108396986            0.000423870791           
       1.345274              0.0100031919            0.000412510539           
       1.347915              0.0105346458            0.000424452195           
       1.350555              0.0104745501            0.000421586296           
       1.353195               0.010625065            0.000416481647           
       1.355836              0.0107293478            0.000426417092           
       1.358476              0.0112553299            0.000435515779           
       1.361117              0.0100863165            0.000401936471           
       1.363757              0.0104490806             0.00042265853           
       1.366397               0.010670077            0.000413804325           
       1.369038              0.0101908214            0.000412928075           
       1.371678              0.0108516862            0.000417502756           
       1.374319              0.0105923965            0.000415756165           
       1.376959              0.0115027891            0.000427289996           
       1.379599              0.0104593255            0.000415390727           
       1.382240              0.0110528009            0.000418902529           
       1.384880              0.0104103435             0.00041153722           
       1.387520              0.0106925963            0.000412202443           
       1.390161              0.0102090792            0.000401680049           
       1.392801              0.0103886588            0.000407612517           
       1.395442              0.0109944674            0.000414984135           
       1.398082              0.0102854346            0.000402753558           
       1.400722              0.0109094433            0.000412917174           
       1.403363              0.0111151008            0.000420658755           
       1.406003              0.0111503903            0.000410980277           
       1.408644              0.0109533635            0.000415884533           
       1.411284              0.0104383552            0.000403763214           
       1.413924              0.0104481186             0.00039896979           
       1.416565              0.0107017474            0.000403308599           
       1.419205               0.010970337            0.000412360636           
       1.421845              0.0102170118            0.000392947666           
       1.424486              0.0110648646            0.000410732334           
       1.427126              0.0109992945            0.000409255154           
       1.429767              0.0104471938            0.000392705561           
       1.432407               0.010622431            0.000405960843           
       1.435047              0.0106987386            0.000395173261           
       1.437688              0.0103708648            0.000397686827           
       1.440328              0.0103826488            0.000390201657           
       1.442968              0.0102485981             0.00039304108           
       1.445609              0.0100424245            0.000382668129           
       1.448249              0.0107117077             0.00039776944           
       1.450890              0.0103055953            0.000387373086           
       1.453530              0.0102458982            0.000389110488           
       1.456170              0.0101170277            0.000385785175           
       1.458811              0.0110497925            0.000399969755           
       1.461451              0.0104512169            0.000391844987           
       1.464092              0.0100475274            0.000380853781           
       1.466732              0.0104913296            0.000386787085           
       1.469372             0.00992700028            0.000375084125           
       1.472013              0.0105347665            0.000393308526           
       1.474653               0.011147756            0.000394599497           
       1.477293              0.0101045834            0.000382007018           
       1.479934              0.0101545402            0.000378942038           
       1.482574              0.0111121826            0.000395429613           
       1.485215              0.0103557835            0.000382717087           
       1.487855             0.00980178174             0.00037226239           
       1.490495              0.0114194442            0.000400943676           
       1.493136              0.0102094936             0.00037413636           
       1.495776              0.0107957761             0.00039143645           
       1.498416              0.0107108543            0.000382319318           
       1.501057              0.0100958662            0.000374373853           
       1.503697               0.010834713            0.000384102032           
       1.506338              0.0108484938            0.000387172743           
       1.508978             0.00966893019            0.000363360271           
       1.511618             0.00974226129             0.00036455124           
       1.514259             0.00991604072             0.00036845249           
       1.516899              0.0104603924            0.000378606904           
       1.519540             0.00993354025            0.000366901751           
       1.522180             0.00996132926            0.000362826203           
       1.524820              0.0102498089            0.000375475977           
       1.527461             0.00944947103            0.000352543528           
       1.530101              0.0101334947            0.000368855165           
       1.532741             0.00993418004            0.000363479351           
       1.535382              0.0104244082            0.000373159756           
       1.538022              0.0102979728            0.000367608396           
       1.540663             0.00993240843            0.000364436678           
       1.543303              0.0101495806            0.000363814872           
       1.545943             0.00949044753            0.000353774793           
       1.548584              0.0099141137            0.000363510523           
       1.551224              0.0101169408            0.000357795917           
       1.553864             0.00987908629            0.000362801237           
       1.556505             0.00997139464            0.000358885285           
       1.559145             0.00987647168            0.000357998704           
       1.561786             0.00949655699            0.000349455351           
       1.564426             0.00976147437            0.000353976037           
       1.567066             0.00964781979            0.000349162604           
       1.569707             0.00947530037              0.0003510363           
       1.572347             0.00987619468             0.00035373567           
       1.574988             0.00955594632            0.000346576726           
       1.577628             0.00954012528            0.000354086347           
       1.580268             0.00912242412             0.00033429905           
       1.582909             0.00993412131            0.000355379836           
       1.585549             0.00880879686            0.000331519172           
       1.588189             0.00939892971             0.00034626875           
       1.590830             0.00930428136            0.000338606942           
       1.593470             0.00916317723            0.000338773674           
       1.596111              0.0093495595             0.00033924484           
       1.598751             0.00924264831            0.000340747781           
       1.601391             0.00915816072            0.000337018198           
       1.604032             0.00931097073            0.000336980481           
       1.606672              0.0089998124             0.00033796999           
       1.609312             0.00896515606            0.000327281663           
       1.611953             0.00936618462            0.000339369558           
       1.614593             0.00902108825            0.000330525706           
       1.617234             0.00866355352            0.000325745635           
       1.619874             0.00873275172            0.000323196537           
       1.622514             0.00818980201            0.000315756226           
       1.625155             0.00870828356            0.000324792613           
       1.627795             0.00895504474            0.000326033936           
       1.630436             0.00863652767            0.000323401474           
       1.633076             0.00857391151            0.000320589862           
       1.635716             0.00877865064            0.000323829309           
       1.638357             0.00843604554            0.000316098627           
       1.640997             0.00801142633            0.000310449673           
       1.643637             0.00854623726            0.000314690414           
       1.646278              0.0089025888            0.000325991825           
       1.648918             0.00832198217            0.000311119041           
       1.651559             0.00861625037             0.00032055222           
       1.654199             0.00880123456            0.000319534129           
       1.656839             0.00805730239            0.000305649252           
       1.659480             0.00819166796            0.000310901534           
       1.662120             0.00872682299            0.000316596224           
       1.664761             0.00845241397            0.000314952405           
       1.667401             0.00808123706            0.000305090494           
       1.670041             0.00908267255            0.000323812264           
       1.672682             0.00804308642            0.000301850459           
       1.675322             0.00768430206            0.000300257821           
       1.677962             0.00822941944             0.00030455436           
       1.680603             0.00854779843            0.000313144434           
       1.683243              0.0088107516            0.000315572615           
       1.685884             0.00789022657            0.000299769245           
       1.688524             0.00860658447              0.0003122009           
       1.691164             0.00860787108            0.000311421728           
       1.693805             0.00846588849            0.000311340171           
       1.696445             0.00847440541            0.000307173365           
       1.699085             0.00850519096            0.000308959385           
       1.701726             0.00813700039            0.000298267109           
       1.704366             0.00830210778            0.000308608743           
       1.707007             0.00810531407            0.000298422167           
       1.709647             0.00862265947             0.00031162311           
       1.712287              0.0085967437            0.000305954464           
       1.714928             0.00818122984            0.000301470115           
       1.717568             0.00801205552             0.00029559349           
       1.720209             0.00821559528            0.000301172961           
       1.722849             0.00824660607             0.00030222464           
       1.725489             0.00840457932            0.000300242606           
       1.728130             0.00835722287            0.000305490298           
       1.730770             0.00837079964            0.000299275782           
       1.733410             0.00866699785            0.000308522341           
       1.736051             0.00791365711              0.0002902331           
       1.738691             0.00839439132            0.000301969701           
       1.741332             0.00783153606            0.000289874853           
       1.743972             0.00794993913            0.000292166233           
       1.746612             0.00846727568            0.000301592037           
       1.749253             0.00862165434             0.00030564418           
       1.751893             0.00843179874            0.000300446777           
       1.754533             0.00871744261            0.000301300665           
       1.757174             0.00832871612            0.000300012566           
       1.759814             0.00846458006            0.000297838666           
       1.762455              0.0079575754            0.000291239611           
       1.765095             0.00861759811            0.000298820949           
       1.767735             0.00861451032            0.000303844167           
       1.770376              0.0082155064            0.000292224179           
       1.773016             0.00846668269            0.000297125886           
       1.775657             0.00778020921            0.000285409448           
       1.778297             0.00842092981            0.000298381662           
       1.780937             0.00806529293            0.000290650331           
       1.783578             0.00840972766            0.000295398027           
       1.786218             0.00826543161            0.000297526012           
       1.788858             0.00806113282            0.000286525811           
       1.791499             0.00846950951            0.000299106667           
       1.794139             0.00867568092            0.000297135207           
       1.796780             0.00862973554            0.000298108217           
       1.799420             0.00883844836            0.000301307499           
       1.802060             0.00885612794            0.000297899099           
       1.804701             0.00896161209            0.000303688261           
       1.807341             0.00932599878            0.000306807366           
       1.809981             0.00893853683            0.000302361191           
       1.812622             0.00879421786             0.00029827635           
       1.815262              0.0090884397             0.00030430608           
       1.817903             0.00897313765             0.00029863397           
       1.820543             0.00925502338            0.000307037065           
       1.823183             0.00847346031             0.00028926023           
       1.825824              0.0086674989            0.000296952962           
       1.828464             0.00903878557            0.000302316092           
       1.831105             0.00824151645            0.000289793005           
       1.833745             0.00928931675            0.000307471635           
       1.836385             0.00866041333            0.000295726385           
       1.839026             0.00884347145            0.000303327687           
       1.841666             0.00940487063             0.00030874573           
       1.844306             0.00938443376            0.000312303665           
       1.846947              0.0084284774            0.000292166496           
       1.849587             0.00879740877            0.000302540778           
       1.852228             0.00837124805            0.000291983168           
       1.854868             0.00915198091            0.000310894735           
       1.857508             0.00910143602            0.000304310289           
       1.860149             0.00825366753            0.000292113992           
       1.862789             0.00890824306            0.000304819246           
       1.865429             0.00806169941            0.000290848635           
       1.868070             0.00872262734            0.000301490835           
       1.870710             0.00907436205            0.000308346928           
       1.873351             0.00913240397            0.000311306289           
       1.875991             0.00853489771            0.000302578039           
       1.878631             0.00936375867            0.000313984266           
       1.881272             0.00872829374            0.000302432838           
       1.883912             0.00857204838            0.000303228671           
       1.886553             0.00875384298            0.000302751471           
       1.889193             0.00867228555            0.000304818782           
       1.891833             0.00854106148            0.000299061361           
       1.894474             0.00888363073             0.00030741377           
       1.897114             0.00951677455            0.000315712034           
       1.899754             0.00826723137            0.000297556699           
       1.902395             0.00921469799            0.000314212034           
       1.905035             0.00925494039            0.000313663342           
       1.907676             0.00900320524            0.000309727757           
       1.910316             0.00869097489            0.000306250029           
       1.912956              0.0090745001             0.00031292192           
       1.915597             0.00906419319            0.000309483679           
       1.918237             0.00895820641            0.000312339329           
       1.920878             0.00899943493            0.000307516892           
       1.923518             0.00863836313            0.000309289418           
       1.926158             0.00889784051            0.000306687117           
       1.928799             0.00903492693            0.000313147283           
       1.931439             0.00891951777            0.000308647373           
       1.934079             0.00890023685            0.000311435849           
       1.936720             0.00837709931            0.000300366126           
       1.939360             0.00916065927             0.00031712691           
       1.942001             0.00870592234            0.000307966289           
       1.944641             0.00797731086            0.000293527349           
       1.947281             0.00869657375            0.000307955226           
       1.949922             0.00866028907            0.000307696752           
       1.952562             0.00826782611            0.000303230951           
       1.955202             0.00833697195            0.000296845915           
       1.957843             0.00821294933            0.000303989086           
       1.960483             0.00877961005            0.000309287855           
       1.963124              0.0091523953            0.000315551656           
       1.965764             0.00857024954            0.000305460498           
       1.968404             0.00823075195            0.000304702191           
       1.971045             0.00880417149             0.00030723788           
       1.973685             0.00799393095            0.000298222572           
       1.976326               0.008616988            0.000308276524           
       1.978966             0.00896415013            0.000315913001           
       1.981606             0.00780903439            0.000291738832           
       1.984247             0.00759822593            0.000290283379           
       1.986887              0.0081648555             0.00030372681           
       1.989527             0.00795525315            0.000293557018           
       1.992168             0.00852294489            0.000311181755           
       1.994808             0.00799605398             0.00029790379           
       1.997449             0.00812110044            0.000299783868           
       2.000089             0.00831807639             0.00030161118           
       2.002729             0.00798405781            0.000302264486           
       2.005370             0.00788778151            0.000294725386           
       2.008010             0.00795120312            0.000299836552           
       2.010650             0.00820637631            0.000303738398           
       2.013291             0.00850829228            0.000311035631           
       2.015931             0.00834936564            0.000305911785           
       2.018572             0.00773750896            0.000298400811           
       2.021212             0.00801981659            0.000301069231           
       2.023852             0.00819683994            0.000305972821           
       2.026493             0.00774667209            0.000296148682           
       2.029133             0.00761615548             0.00029140327           
       2.031774              0.0077881066            0.000297532093           
       2.034414             0.00804439252            0.000300583367           
       2.037054             0.00848903977            0.000312672355           
       2.039695             0.00725361488            0.000283333289           
       2.042335             0.00769200972            0.000296736084           
       2.044975             0.00750699193             0.00029080277           
       2.047616             0.00816466282            0.000304573205           
       2.050256             0.00786465988            0.000295408964           
       2.052897             0.00820777747             0.00031072215           
       2.055537             0.00761643665             0.00029115911           
       2.058177             0.00765255758            0.000294426682           
       2.060818             0.00793939584            0.000300794196           
       2.063458             0.00780757756            0.000298697532           
       2.066098             0.00736702819            0.000288860433           
       2.068739             0.00745956413            0.000293699645           
       2.071379              0.0069459391            0.000279222771           
       2.074020             0.00778364198            0.000299628821           
       2.076660             0.00808366595            0.000303279084           
       2.079300             0.00749908513            0.000292064988           
       2.081941             0.00796387706            0.000302809793           
       2.084581             0.00765355988            0.000297071483           
       2.087222              0.0078507778            0.000301079594           
       2.089862             0.00746437437            0.000289917625           
       2.092502             0.00777094471             0.00030118622           
       2.095143             0.00764640462            0.000294493129           
       2.097783             0.00746140045            0.000295335396           
       2.100423             0.00806265172            0.000301117489           
       2.103064             0.00721547282            0.000289776958           
       2.105704             0.00710072428            0.000286363817           
       2.108345             0.00764582927            0.000298516536           
       2.110985             0.00733720039            0.000288322125           
       2.113625             0.00793640354            0.000304588797           
       2.116266             0.00759906647            0.000295839254           
       2.118906             0.00782960714             0.00030007497           
       2.121546             0.00741343016            0.000291759107           
       2.124187             0.00766618637            0.000300794819           
       2.126827             0.00723409443            0.000287612536           
       2.129468             0.00748921757            0.000295694072           
       2.132108             0.00789220707             0.00030291727           
       2.134748             0.00717391254             0.00028771535           
       2.137389             0.00764755279            0.000299549487           
       2.140029             0.00772619155             0.00030035449           
       2.142670             0.00773321691            0.000300982009           
       2.145310             0.00737286025            0.000295008478           
       2.147950             0.00730532147            0.000294789382           
       2.150591             0.00740843341            0.000294140018           
       2.153231             0.00746139352            0.000299553659           
       2.155871             0.00759426494            0.000297844522           
       2.158512             0.00745395812            0.000300397428           
       2.161152             0.00732538003             0.00029035641           
       2.163793             0.00731012603            0.000294773519           
       2.166433             0.00745949532             0.00029260626           
       2.169073             0.00745486634            0.000299345013           
       2.171714             0.00754671748            0.000295051806           
       2.174354             0.00750477029            0.000298726801           
       2.176995             0.00765613719            0.000299221485           
       2.179635             0.00733602722            0.000298442509           
       2.182275             0.00729810478            0.000291761132           
       2.184916             0.00756279833            0.000303282082           
       2.187556             0.00733905392            0.000293952317           
       2.190196             0.00719769798            0.000295683277           
       2.192837             0.00734580174            0.000295438817           
       2.195477              0.0075857579            0.000303121437           
       2.198118             0.00742012832            0.000294259226           
       2.200758             0.00761392055            0.000302705982           
       2.203398             0.00814212775            0.000307838758           
       2.206039             0.00712335186            0.000292337447           
       2.208679              0.0071825348            0.000290675808           
       2.211319             0.00800499429            0.000308311658           
       2.213960             0.00743958931            0.000294063817           
       2.216600             0.00807818856            0.000313644788           
       2.219241             0.00745808195            0.000296984907           
       2.221881             0.00805722824            0.000310292667           
       2.224521             0.00704025829            0.000289044036           
       2.227162             0.00706472589            0.000294093734           
       2.229802              0.0070561511            0.000289144257           
       2.232443             0.00750571183            0.000299385392           
       2.235083             0.00713674457            0.000290183515           
       2.237723             0.00697999699            0.000289178361           
       2.240364             0.00737445564            0.000295725329           
       2.243004             0.00730405717            0.000295199547           
       2.245644             0.00747187283             0.00029788202           
       2.248285             0.00732960556            0.000296947725           
       2.250925              0.0070488061            0.000289842373           
       2.253566             0.00743142861            0.000298332722           
       2.256206             0.00765740474            0.000301927501           
       2.258846             0.00751716174            0.000299152537           
       2.261487             0.00712602639            0.000291769626           
       2.264127             0.00675608568            0.000286783267           
       2.266767             0.00716733821            0.000290608524           
       2.269408             0.00742195886            0.000299237705           
       2.272048             0.00761377991            0.000301215594           
       2.274689             0.00745059704              0.0002991419           
       2.277329             0.00699341268            0.000289433513           
       2.279969             0.00722228518            0.000295023008           
       2.282610             0.00724880203            0.000292681751           
       2.285250             0.00699734365            0.000292083051           
       2.287891             0.00725740537            0.000294459573           
       2.290531             0.00748871581            0.000300590357           
       2.293171             0.00740803656            0.000298952037           
       2.295812             0.00716063248             0.00029235765           
       2.298452              0.0076153646            0.000303428791           
       2.301092             0.00772546303            0.000307555642           
       2.303733             0.00709672949             0.00028894445           
       2.306373             0.00698301096            0.000293630545           
       2.309014             0.00726642327            0.000293757931           
       2.311654             0.00711219941            0.000293381984           
       2.314294             0.00697925506            0.000289992558           
       2.316935             0.00765229182            0.000304853478           
       2.319575             0.00692402014            0.000288898466           
       2.322215             0.00712692929            0.000297277625           
       2.324856             0.00724221286            0.000292146843           
       2.327496             0.00728267947             0.00030014176           
       2.330137             0.00689519841            0.000286661889           
       2.332777             0.00712437165            0.000294573741           
       2.335417             0.00678257561            0.000286557863           
       2.338058             0.00708547663             0.00029405885           
       2.340698             0.00705082993            0.000290450852           
       2.343339             0.00693141619            0.000293476258           
       2.345979             0.00713721477            0.000291858611           
       2.348619             0.00694493964            0.000293337388           
       2.351260             0.00758530972              0.0003000464           
       2.353900             0.00764356365             0.00030757645           
       2.356540             0.00712557986            0.000292887495           
       2.359181             0.00722377996            0.000298842212           
       2.361821             0.00702095915            0.000291027371           
       2.364462             0.00684160301            0.000292087423           
       2.367102             0.00668279149             0.00028032959           
       2.369742             0.00744966631             0.00030658419           
       2.372383              0.0071832629            0.000292276539           
       2.375023             0.00682367961            0.000292289142           
       2.377663             0.00710778728            0.000291972603           
       2.380304             0.00708373462            0.000295521473           
       2.382944             0.00762926414            0.000303689986           
       2.385585             0.00734658925            0.000300828111           
       2.388225             0.00675865196            0.000287236013           
       2.390865             0.00735854812            0.000300480019           
       2.393506             0.00676866652            0.000286856725           
       2.396146             0.00736702129            0.000300259342           
       2.398787             0.00697682068            0.000292455004           
       2.401427             0.00708344779            0.000292892035           
       2.404067             0.00722106842             0.00030023721           
       2.406708             0.00761233735            0.000304389417           
       2.409348             0.00679167311            0.000289676839           
       2.411988             0.00693695451            0.000291823699           
       2.414629              0.0072893502             0.00030012295           
       2.417269             0.00688177174            0.000288963441           
       2.419910             0.00697184281            0.000294516145           
       2.422550              0.0066262738            0.000282765848           
       2.425190             0.00703236138            0.000300473194           
       2.427831              0.0072395866            0.000293402428           
       2.430471              0.0070244403            0.000297458044           
       2.433112             0.00740175006            0.000298137447           
       2.435752             0.00686307515            0.000294351664           
       2.438392              0.0066647212            0.000285191379           
       2.441033             0.00716342219            0.000297023786           
       2.443673             0.00702897247            0.000295008861           
       2.446313             0.00694115477            0.000291598254           
       2.448954             0.00694876648            0.000294318175           
       2.451594             0.00686103953             0.00029069964           
       2.454235             0.00706275811            0.000294024321           
       2.456875             0.00770561599            0.000308669746           
       2.459515             0.00687682772            0.000292047554           
       2.462156             0.00724653096            0.000298249723           
       2.464796             0.00792433043            0.000317387732           
       2.467436             0.00766339505            0.000305573835           
       2.470077             0.00724422353             0.00030119607           
       2.472717             0.00781098599            0.000308843084           
       2.475358             0.00739814978            0.000303975924           
       2.477998             0.00754132892            0.000305265943           
       2.480638             0.00764157215            0.000308034761           
       2.483279             0.00741365642             0.00030470973           
       2.485919             0.00725317797            0.000299283421           
       2.488560               0.007019662            0.000295647553           
       2.491200             0.00758124634            0.000306824936           
       2.493840             0.00726449647            0.000298711607           
       2.496481             0.00697627645            0.000296553851           
       2.499121             0.00720956974            0.000297457642           
       2.501761             0.00735584051             0.00030556194           
       2.504402             0.00722371954            0.000297002372           
       2.507042             0.00717707528            0.000300963121           
       2.509683             0.00703020489            0.000295155131           
       2.512323             0.00825306297            0.000321048858           
       2.514963              0.0145814211             0.00042758882           
       2.517604              0.0177707308             0.00047019228           
       2.520244             0.00944308208            0.000342826731           
       2.522884             0.00741336411            0.000303091954           
       2.525525             0.00776090357            0.000312662387           
       2.528165              0.0152333161            0.000436042397           
       2.530806              0.0278385515            0.000587247958           
       2.533446              0.0125368486            0.000397589409           
       2.536086             0.00929980151            0.000339560493           
       2.538727             0.00898835986            0.000335966412           
       2.541367             0.00934137857            0.000341521067           
       2.544008             0.00733833577            0.000302955295           
       2.546648             0.00693301012            0.000294804119           
       2.549288              0.0068484915            0.000293043844           
       2.551929             0.00749180037            0.000307510835           
       2.554569             0.00710967775            0.000296828335           
       2.557209             0.00730123712            0.000304199226           
       2.559850               0.006954722            0.000293478852           
       2.562490             0.00709985021            0.000298684194           
       2.565131             0.00692805602            0.000295561803           
       2.567771             0.00684825876            0.000292297297           
       2.570411             0.00697810236            0.000298645785           
       2.573052             0.00644313835            0.000283620195           
       2.575692             0.00667566656            0.000289458484           
       2.578332             0.00685844513            0.000292527683           
       2.580973             0.00707778916            0.000299578071           
       2.583613             0.00673255444            0.000289517853           
       2.586254             0.00688241576            0.000295312027           
       2.588894             0.00697981484            0.000295807897           
       2.591534             0.00687781114            0.000294178571           
       2.594175             0.00692236355            0.000296842992           
       2.596815             0.00641635959             0.00028313085           
       2.599456             0.00672171977             0.00029216075           
       2.602096             0.00685483715            0.000293935441           
       2.604736             0.00700923351            0.000298006793           
       2.607377             0.00683762905            0.000293210615           
       2.610017             0.00718211927            0.000300401064           
       2.612657             0.00688055011            0.000296103668           
       2.615298             0.00718875481            0.000299702232           
       2.617938              0.0067909205            0.000293839518           
       2.620579             0.00753673319            0.000307026094           
       2.623219             0.00683202459            0.000296995837           
       2.625859             0.00702545201            0.000296094879           
       2.628500             0.00729647749            0.000306574787           
       2.631140             0.00683444504            0.000291477158           
       2.633780             0.00734959838            0.000306145085           
       2.636421             0.00731463228            0.000302636778           
       2.639061             0.00674446649            0.000294076998           
       2.641702             0.00692319614            0.000294763003           
       2.644342              0.0080292398            0.000320040465           
       2.646982             0.00670336023            0.000292176375           
       2.649623             0.00758548451             0.00031267002           
       2.652263             0.00684734982            0.000294704121           
       2.654904             0.00739744021            0.000307976383           
       2.657544             0.00677683245            0.000292700677           
       2.660184             0.00679315701            0.000293427853           
       2.662825             0.00724348689            0.000303723974           
       2.665465             0.00690873673            0.000297171421           
       2.668105             0.00678707347             0.00029465982           
       2.670746             0.00703263901            0.000297405121           
       2.673386             0.00650153943            0.000289420439           
       2.676027             0.00758922416            0.000310035949           
       2.678667             0.00720554127            0.000303667692           
       2.681307             0.00700660685            0.000297091753           
       2.683948             0.00726462448            0.000305516822           
       2.686588             0.00709925815            0.000299248016           
       2.689229             0.00707299084            0.000301374621           
       2.691869             0.00765764897            0.000310453209           
       2.694509             0.00743517478            0.000310105445           
       2.697150             0.00790750846            0.000314699621           
       2.699790             0.00744531607            0.000311707183           
       2.702430             0.00777050465            0.000312336188           
       2.705071             0.00726650856            0.000306170968           
       2.707711             0.00695278944             0.00029651903           
       2.710352             0.00664059158            0.000291434757           
       2.712992             0.00705590903             0.00030138676           
       2.715632             0.00606343881              0.0002777984           
       2.718273             0.00671810516            0.000293381701           
       2.720913             0.00763041466            0.000313190205           
       2.723553             0.00692684095            0.000297365077           
       2.726194             0.00718472269            0.000304310441           
       2.728834             0.00638862422            0.000284405299           
       2.731475             0.00704490144            0.000301266329           
       2.734115             0.00693402416            0.000297105177           
       2.736755             0.00680076983            0.000296181562           
       2.739396             0.00706566948            0.000300298391           
       2.742036             0.00687985858            0.000298346074           
       2.744677             0.00750656445            0.000312094186           
       2.747317             0.00713921725            0.000302883305           
       2.749957             0.00751556974             0.00031301866           
       2.752598             0.00698869244             0.00030275624           
       2.755238             0.00685652296            0.000299744573           
       2.757878             0.00806923813            0.000324248021           
       2.760519             0.00727209275            0.000304565618           
       2.763159             0.00728515214              0.0003097956           
       2.765800             0.00736068781            0.000306122508           
       2.768440             0.00699978024            0.000302455907           
       2.771080             0.00674559249            0.000294411383           
       2.773721              0.0072317108            0.000308574858           
       2.776361             0.00686874253            0.000297501345           
       2.779001             0.00720188343            0.000307832635           
       2.781642              0.0069520929            0.000300383341           
       2.784282             0.00643482237            0.000289093164           
       2.786923             0.00664953165             0.00029164161           
       2.789563             0.00632744008            0.000285062128           
       2.792203             0.00686112188             0.00029872997           
       2.794844             0.00710564371            0.000302623266           
       2.797484             0.00655603024            0.000291093538           
       2.800125             0.00713792351            0.000303344723           
       2.802765             0.00668142532            0.000298925062           
       2.805405              0.0067768696            0.000296706868           
       2.808046             0.00723971197            0.000311374043           
       2.810686             0.00703041528            0.000303570664           
       2.813326             0.00676875165            0.000301553105           
       2.815967             0.00677480183            0.000299786599           
       2.818607             0.00690981698            0.000305785574           
       2.821248             0.00685701153            0.000300816694           
       2.823888             0.00661972074            0.000300326516           
       2.826528             0.00632963866            0.000291920404           
       2.829169             0.00707933279            0.000307361561           
       2.831809             0.00681210631            0.000301768873           
       2.834449             0.00692225183            0.000298889012           
       2.837090              0.0069714478            0.000301754313           
       2.839730             0.00668352141            0.000293359077           
       2.842371             0.00725816168            0.000307840395           
       2.845011             0.00693868701            0.000300317925           
       2.847651             0.00670265696            0.000295707909           
       2.850292             0.00679348666            0.000296013263           
       2.852932             0.00695206401            0.000299985166           
       2.855573             0.00673463198            0.000297849865           
       2.858213             0.00704423921            0.000301201463           
       2.860853             0.00691383665            0.000300634028           
       2.863494             0.00635434063            0.000288907153           
       2.866134             0.00686362503            0.000304473288           
       2.868774             0.00670043517            0.000296226924           
       2.871415              0.0069783881             0.00030530074           
       2.874055             0.00675454713            0.000301852211           
       2.876696             0.00690356701            0.000302415921           
       2.879336             0.00650383057             0.00029547846           
       2.881976             0.00701634705            0.000306647313           
       2.884617             0.00693662022            0.000303206349           
       2.887257             0.00721130168              0.0003069958           
       2.889897             0.00675474996            0.000300524476           
       2.892538             0.00643225633            0.000291229406           
       2.895178             0.00658065387            0.000291565762           
       2.897819             0.00693498945            0.000302390942           
       2.900459              0.0063223339            0.000286334618           
       2.903099             0.00720779087            0.000307325046           
       2.905740             0.00692206774            0.000297810332           
       2.908380             0.00644746192            0.000291251033           
       2.911021             0.00757718744            0.000316338395           
       2.913661             0.00667804367            0.000293708624           
       2.916301             0.00745988339            0.000314842097           
       2.918942             0.00675169944            0.000295006442           
       2.921582             0.00689515542            0.000301251857           
       2.924222             0.00745047542            0.000311331728           
       2.926863             0.00736366526            0.000310334781           
       2.929503             0.00778590271            0.000322650568           
       2.932144             0.00795819829            0.000320851009           
       2.934784             0.00685179678            0.000298978537           
       2.937424             0.00754035557            0.000314221733           
       2.940065             0.00679978975            0.000298635455           
       2.942705             0.00677402222            0.000298974781           
       2.945346             0.00777167166            0.000318343307           
       2.947986             0.00851130408            0.000334312515           
       2.950626             0.00962659392            0.000356635196           
       2.953267             0.00947226813            0.000350006817           
       2.955907             0.00860758272            0.000338060369           
       2.958547             0.00769765741            0.000316414804           
       2.961188             0.00737427749            0.000312400772           
       2.963828             0.00655979865            0.000292974244           
       2.966469             0.00772808517            0.000318074089           
       2.969109             0.00698526424            0.000303947948           
       2.971749             0.00967435203            0.000356647726           
       2.974390             0.00879527202            0.000340991248           
       2.977030             0.00830679964            0.000330756318           
       2.979670              0.0077493067            0.000317404936           
       2.982311             0.00722316918            0.000308652036           
       2.984951             0.00692090282            0.000302906159           
       2.987592             0.00815717871            0.000327739201           
       2.990232             0.00798554436            0.000325100945           
       2.992872             0.00855701835             0.00033389971           
       2.995513              0.0112670923            0.000386152481           
       2.998153              0.0178903482            0.000489728282           
       3.000794               0.027384803            0.000597082753           
       3.003434              0.0229917959            0.000552900492           
       3.006074              0.0157369609            0.000458900324           
       3.008715              0.0148184609            0.000448697837           
       3.011355              0.0172787813            0.000489555773           
       3.013995              0.0157476063            0.000465075962           
       3.016636              0.0284316847            0.000626082323           
       3.019276               0.204433065             0.00171894575           
       3.021917               0.372344303             0.00228050049           
       3.024557               0.138907202               0.001404021           
       3.027197              0.0823968109             0.00109949957           
       3.029838               0.182413589             0.00162812114           
       3.032478               0.110100487             0.00127244825           
       3.035118              0.0874366579             0.00113978263           
       3.037759               0.072211235             0.00103762843           
       3.040399              0.0681840696             0.00101981691           
       3.043040              0.0668460485             0.00101956845           
       3.045680              0.0540120826            0.000902367301           
       3.048320              0.0707225556             0.00104913302           
       3.050961              0.0660331284             0.00102391921           
       3.053601              0.0962450347              0.0012306911           
       3.056242              0.0712212978             0.00106548066           
       3.058882               0.111354275             0.00135209425           
       3.061522               0.267538569             0.00208126441           
       3.064163               0.061335294            0.000998340791           
       3.066803              0.0215827222            0.000603662948           
       3.069443              0.0252902072            0.000649105737           
       3.072084              0.0730393626             0.00111292684           
       3.074724              0.0653005008             0.00105853039           
       3.077365              0.0132220681             0.00047597454           
       3.080005             0.00928295552            0.000403242845           
       3.082645             0.00879540998            0.000394509304           
       3.085286              0.0089259954            0.000397499638           
       3.087926             0.00766092072            0.000370598227           
       3.090566             0.00752458312            0.000371069027           
       3.093207             0.00709189198            0.000356350051           
       3.095847             0.00784533807            0.000382658019           
       3.098488             0.00841094353            0.000395493325           
       3.101128             0.00777933344            0.000382425938           
       3.103768             0.00821324421            0.000395160351           
       3.106409             0.00846699529            0.000403905564           
       3.109049              0.0100733811            0.000443982554           
       3.111690              0.0139962793            0.000521280169           
       3.114330              0.0209792437            0.000643883009           
       3.116970              0.0172898876            0.000592663468           
       3.119611              0.0119303021            0.000489105645           
       3.122251              0.0096418906            0.000443302598           
       3.124891              0.0091368651            0.000433631768           
       3.127532             0.00913586849            0.000441419052           
       3.130172             0.00976375777            0.000446948347           
       3.132813             0.00739856546            0.000396983809           
       3.135453             0.00722784346            0.000400653796           
       3.138093             0.00618301085            0.000361772931           
       3.140734             0.00650877929            0.000378089142           
       3.143374             0.00560181349            0.000356120894           
       3.146014             0.00599429558            0.000365711119           
       3.148655             0.00686102045            0.000394338637           
       3.151295             0.00792866391            0.000427266642           
       3.153936             0.00696110137             0.00040625845           
       3.156576             0.00631027237            0.000382360644           
       3.159216             0.00640139746            0.000388261287           
       3.161857             0.00625711291            0.000388569664           
       3.164497             0.00597526345            0.000387723798           
       3.167138             0.00591092084            0.000376378713           
       3.169778             0.00661364538            0.000405312483           
       3.172418             0.00639326023            0.000400830794           
       3.175059              0.0056201895             0.00038073433           
       3.177699             0.00628074029            0.000400897368           
       3.180339             0.00718006001            0.000432470533           
       3.182980             0.00635632366            0.000412400482           
       3.185620             0.00585159457            0.000400012318           
       3.188261             0.00564230666            0.000387647636           
       3.190901             0.00619761223            0.000412536128           
       3.193541             0.00628682689            0.000416863885           
       3.196182             0.00670458071            0.000439448266           
       3.198822             0.00594493728            0.000408788517           
       3.201463             0.00578387841            0.000408427323           
       3.204103             0.00575117142            0.000412694194           
       3.206743             0.00547559727            0.000406090031           
       3.209384             0.00670645267            0.000447417218           
       3.212024             0.00603267455            0.000425854537           
       3.214664             0.00636124827            0.000445633057           
       3.217305             0.00578187278            0.000434766812           
       3.219945             0.00601895227            0.000439881516           
       3.222586             0.00577887955            0.000433458924           
       3.225226             0.00509724003            0.000416264169           
       3.227866              0.0054605386             0.00043417628           
       3.230507             0.00641982233            0.000476388788           
       3.233147             0.00614350982            0.000459131013           
       3.235787             0.00669584509            0.000479456361           
       3.238428             0.00707230587            0.000501452858           
       3.241068             0.00530114221            0.000442947956           
       3.243709             0.00600368237            0.000468769764           
       3.246349             0.00558516776            0.000449606031           
       3.248989             0.00485776429            0.000428891215           
       3.251630             0.00630559853            0.000490805302           
       3.254270             0.00564677526            0.000478734721           
       3.256911             0.00489462609            0.000434544391           
       3.259551             0.00503392728            0.000450422518           
       3.262191             0.00614617985            0.000502280634           
       3.264832             0.00513872716            0.000463583092           
       3.267472             0.00597764163            0.000507084598           
       3.270112             0.00545626826            0.000485845194           
       3.272753             0.00570499133            0.000502900564           
       3.275393             0.00579419711            0.000509425827           
       3.278034             0.00633671588            0.000543593888           
       3.280674             0.00485390097            0.000477140757           
       3.283314             0.00645351876            0.000553213073           
       3.285955             0.00523791992            0.000507756274           
       3.288595             0.00483719265            0.000493390472           
       3.291235             0.00555571069            0.000531872563           
       3.293876             0.00567560745            0.000540764141           
       3.296516             0.00628898363            0.000580845812           
       3.299157             0.00659166474             0.00060364719           
       3.301797             0.00510387358            0.000531398227           
       3.304437             0.00575024382            0.000574617162           
       3.307078             0.00515719752            0.000549466183           
       3.309718             0.00635016926            0.000615801098           
       3.312359             0.00633951058             0.00062771629           
       3.314999             0.00540422604            0.000585645107           
       3.317639             0.00560073297            0.000602617411           
       3.320280             0.00528288118             0.00059381455           
       3.322920             0.00486081955              0.0005781225           
       3.325560             0.00552260633            0.000628121019           
       3.328201             0.00550344389            0.000629680946           
       3.330841             0.00676495717            0.000715108271           
       3.333482             0.00514481691            0.000631544268           
       3.336122             0.00623021817            0.000710082078           
       3.338762             0.00613371623            0.000711005434           
       3.341403             0.00599874644             0.00070966222           
       3.344043              0.0060152438            0.000737760469           
       3.346683             0.00539577115            0.000705826842           
       3.349324             0.00491051281             0.00068376399           
       3.351964             0.00604705527            0.000783171607           
       3.354605             0.00483381673             0.00070814192           
       3.357245              0.0065957696            0.000856270716           
       3.359885             0.00573523457             0.00079874843           
       3.362526             0.00544999089            0.000818444479           
       3.365166             0.00546216993            0.000809242479           
       3.367807             0.00311177302            0.000653841434           
       3.370447              0.0053310793            0.000856139236           
       3.373087             0.00484404169            0.000861305458           
       3.375728             0.00520964409            0.000886465558           
       3.378368             0.00400991828            0.000840389182           
       3.381008             0.00443274021            0.000875881629           
       3.383649             0.00441856282            0.000946386153           
       3.386289             0.00561607894             0.00106739099           
       3.388930             0.00653896548             0.00126491537           
       3.391570             0.00434600179             0.00103165375           
       3.394210             0.00331670076            0.000965662734           
       3.396851             0.00289986309            0.000978102014           
       3.399491             0.00499504561             0.00130700292           
       3.402131             0.00469743795             0.00150032435           
       3.404772             0.00416328742             0.00141305452           
       3.407412             0.00429407852             0.00178075189           
       3.410053             0.00758171341             0.00246387628           
       3.412693              0.0121150977             0.00440651957           
       3.415333             0.00667522397             0.00400762785           
