################################################################################
# EDF_DataBlockID                     0.Image.Psd
# EDF_BinarySize                      4366944
# EDF_HeaderSize                      2560
# ByteOrder                           LowByteFirst
# DataType                            FloatValue
# Dim_1                               1028
# Dim_2                               1062
# Image                               0
# HeaderID                            EH:000000:000000:000000
# Size                                4366944
# Center_1                            607.5320
# Center_2                            651.4720
# Comment                             Xenocs_Cell_Window - front_window_open_only
# DDummy                              0.6
# Date                                2025-10-19T17:33:22
# Delta                               0
# Dummy                               -1.5
# ExposureTime                        360
# Gamma                               0
# Intensity1                          8.92428e-10
# PSize_1                             7.5e-05
# PSize_2                             7.5e-05
# Pressure                            0.0327597
# SampleDistance                      0.450002
# SampleEnvKind                       large
# SampleEnvPN                         ElectroChemical cell
# SampleEnvSN                         1141
# Thickness                           0
# Wavelength                          1.541891e-10
# Wavelength                          1.54189e-10
# aux                                 0
# aux_dial                            0.002375
# beamx                               588.429
# beamx_dial                          588.429
# beamz                               657.855
# beamz_dial                          657.855
# det0x                               -0.000396875
# det0x_dial                          6.36905
# det0xvd                             -0.0005
# det0xvd_dial                        -0.0005
# det0y                               450.002
# det0y_dial                          481.635
# det0z                               0
# det0z_dial                          1.2295
# det0zvd                             0
# det0zvd_dial                        0
# mag                                 1.818
# mag_dial                            1.818
# om                                  0.2499
# om_dial                             -0.610199
# phi                                 -0.0120535
# phi_dial                            0
# ry                                  0.599993
# ry_dial                             0.599993
# s1bot                               0.8
# s1bot_dial                          -1.66094
# s1hl                                0.8
# s1hl_dial                           -0.608437
# s1hr                                0.8
# s1hr_dial                           0.970938
# s1top                               0.8
# s1top_dial                          -0.461562
# s2bot                               0.45
# s2bot_dial                          1.36109
# s2hl                                0.45
# s2hl_dial                           -0.83375
# s2hr                                0.45
# s2hr_dial                           -0.118594
# s2top                               0.45
# s2top_dial                          1.44734
# w2theta                             32
# w2theta_dial                        32
# waxsch                              19.2605
# waxsch_dial                         -32.7238
# waxsh                               137.085
# waxsh_dial                          -43.5335
# waxsth                              26.0607
# waxsth_dial                         -19.4068
# waxsz                               67.0407
# waxsz_dial                          -23.7962
# wind                                65.9854
# wind_dial                           66.0041
# wpsi                                124
# wpsi_dial                           124
# wstod                               115
# wstod_dial                          115
# x                                   0
# x_dial                              1.00969
# z                                   0
# z_dial                              13.3172
# CountCutoff                         15302352
# DetectorModel                       Dectris EIGER2 Si 1M, S/N E-02-0362
# ThresholdSetting                    4023.88989258
# Saturation                          0
# FlatField                           Corrected
# BackgroundReductionExtra            0.02
# BackgroundCorrectionConstant        0.0026712
# Detector                            0
# Monitor                             0
# Pil_Roi0                            0
# SumForIntensity1                    3.21274e+08
# TransmittedFlux                     892428
# det                                 0
# mon                                 0
# pilai0                              3.21274e+08
# pilai1                              691779
# pilct0                              5.55473e+08
# pilct1                              691779
# pilroi0                             0
# pilroi1                             0
# sec                                 1
# title                               20251017__0_00431.edf
# usaxs0                              0
# Operation                           Azimuthal average I(q)
# Error_model                         ErrorModel.poisson
# Geometrical_correction              True
# Transmission_correction             True
# Thickness_correction                False
# Binning mode                        Uniform
# Binning factor                      1.0
# Psi                                 0.0
# Omega                               0.2499
# MaskInvalidPixels                   True
# DetectorEdge                        3
# MaskFiles                           ['SAXS_correted.edf']
################################################################################
    q(A⁻¹)                Intensity(a.u.)            Sigma_I(a.u.)            
       0.000340                352232.414                114.701573           
       0.001019                351612.091                70.1782062           
       0.001698                348360.852                49.3935309           
       0.002377                331568.762                43.1009902           
       0.003056                299638.915                34.6286536           
       0.003735                260671.359                28.4846581           
       0.004415                204447.167                25.2263841           
       0.005094                152566.046                18.8722706           
       0.005773                101412.181                  14.24515           
       0.006452                60948.1878                10.6689313           
       0.007131                33009.2451                7.60228473           
       0.007810                16253.2439                5.25308671           
       0.008490                8430.60824                3.35356355           
       0.009169                3260.30109                2.06108831           
       0.009848                1287.13306                1.24533869           
       0.010527                 363.68883               0.665562066           
       0.011206                123.798476               0.366992185           
       0.011885                50.4261967               0.221665078           
       0.012564                25.0678037               0.156972704           
       0.013244                16.9803658               0.122887305           
       0.013923                12.4069197               0.106750814           
       0.014602                9.49077599              0.0859387689           
       0.015281                 7.4428493              0.0783105129           
       0.015960                6.19447907                0.07066678           
       0.016639                4.92811381              0.0589335418           
       0.017319                4.05305133              0.0526247845           
       0.017998                3.45840027              0.0471937725           
       0.018677                2.87897037              0.0443525758           
       0.019356                2.47337131               0.040377819           
       0.020035                2.18522756              0.0357125532           
       0.020714                1.81768191              0.0330036416           
       0.021394                1.57209253              0.0288949618           
       0.022073                1.38976882              0.0284803644           
       0.022752                1.24752553              0.0254994586           
       0.023431                1.08025053              0.0231951444           
       0.024110               0.994093811              0.0232544885           
       0.024789               0.885620024              0.0204633579           
       0.025469               0.782084073              0.0196924851           
       0.026148               0.756383854              0.0183400104           
       0.026827               0.663972458              0.0173212262           
       0.027506               0.611260052              0.0171830068           
       0.028185               0.558392468              0.0157268008           
       0.028864               0.527658784              0.0150807018           
       0.029544                0.49286607              0.0142761879           
       0.030223               0.436284247              0.0138739824           
       0.030902               0.398481863              0.0136977689           
       0.031581               0.349942253               0.012029523           
       0.032260               0.346165165              0.0124818145           
       0.032939               0.314853705              0.0119279314           
       0.033619               0.287806997              0.0118163183           
       0.034298               0.266983691              0.0110284175           
       0.034977               0.264448217              0.0108877876           
       0.035656               0.217801251              0.0103694926           
       0.036335                0.22701032              0.0103172759           
       0.037014               0.203319023              0.0102946588           
       0.037693               0.176295531             0.00932933963           
       0.038373               0.174766137             0.00970378515           
       0.039052               0.177828683             0.00962779666           
       0.039731               0.138420546              0.0087851361           
       0.040410               0.149416205             0.00912742215           
       0.041089               0.124286051             0.00870063016           
       0.041768               0.136352737             0.00959461232           
       0.042448               0.148297952             0.00930395537           
       0.043127               0.122481155             0.00883141139           
       0.043806               0.121014634               0.009149859           
       0.044485               0.105044036             0.00817868502           
       0.045164               0.114153005             0.00902711835           
       0.045843               0.106005912             0.00803549601           
       0.046523               0.105098731             0.00822776501           
       0.047202               0.109278167              0.0088043484           
       0.047881               0.105906098              0.0085863342           
       0.048560               0.101267985              0.0085297303           
       0.049239              0.0954258457             0.00786272053           
       0.049918              0.0834682135             0.00826350867           
       0.050598              0.0808777995             0.00764740899           
       0.051277              0.0786088488             0.00732960664           
       0.051956              0.0656871924             0.00744016877           
       0.052635              0.0846247119             0.00864204267           
       0.053314              0.0851676912             0.00819906432           
       0.053993               0.075681024             0.00807782206           
       0.054673              0.0760909037             0.00780506097           
       0.055352              0.0842563469             0.00869204104           
       0.056031              0.0932852337             0.00910957395           
       0.056710              0.0755504203             0.00819806777           
       0.057389              0.0747281834             0.00815336397           
       0.058068              0.0722856145             0.00780515598           
       0.058748              0.0749632619             0.00797848253           
       0.059427              0.0734313675              0.0071949346           
       0.060106              0.0524251172             0.00734247672           
       0.060785              0.0445798674              0.0061295892           
       0.061464              0.0527718238             0.00699194048           
       0.062143              0.0542763044             0.00668846937           
       0.062822              0.0384274589             0.00601644618           
       0.063502              0.0565292498              0.0076246124           
       0.064181              0.0604772932             0.00774556581           
       0.064860              0.0558814537             0.00799500378           
       0.065539              0.0482800887              0.0072842281           
       0.066218              0.0493484629             0.00771252602           
       0.066897               0.046213747             0.00730807205           
       0.067577              0.0385978021              0.0069336975           
       0.068256              0.0423026888             0.00695628844           
       0.068935              0.0432547784             0.00722077876           
       0.069614              0.0409814261             0.00674439896           
       0.070293               0.055344602             0.00834939153           
       0.070972              0.0457269931             0.00723248331           
       0.071652              0.0413466531             0.00709810217           
       0.072331              0.0456731042             0.00795070779           
       0.073010              0.0346696782             0.00724734545           
       0.073689              0.0315203208             0.00644774168           
       0.074368              0.0435955654             0.00736925609           
       0.075047              0.0373031323               0.007056003           
       0.075727               0.053508409             0.00932425703           
       0.076406              0.0347610851             0.00780344911           
       0.077085              0.0216397999             0.00561323258           
       0.077764              0.0238473198             0.00618023077           
       0.078443              0.0236217106             0.00575369412           
       0.079122              0.0382316953             0.00766281765           
       0.079802              0.0567005692               0.010045314           
       0.080481              0.0362600582             0.00726626639           
       0.081160              0.0477392357             0.00995601296           
       0.081839              0.0229613278             0.00639256091           
       0.082518              0.0361851472             0.00755935717           
       0.083197               0.035980213             0.00826907485           
       0.083876              0.0506465354             0.00822221017           
       0.084556              0.0491586467             0.00983372723           
       0.085235              0.0337395952             0.00757104598           
       0.085914              0.0274963939             0.00649884985           
       0.086593              0.0327393022             0.00751519745           
       0.087272              0.0282309353             0.00649675634           
       0.087951              0.0260184208             0.00697319783           
       0.088631              0.0356046777             0.00777769594           
       0.089310              0.0190708296             0.00552723091           
       0.089989              0.0325281152             0.00679500878           
       0.090668              0.0308002671             0.00728949036           
       0.091347              0.0270027775             0.00698855495           
       0.092026              0.0285280487             0.00609913288           
       0.092706              0.0365972977             0.00863827376           
       0.093385              0.0296447545               0.007207261           
       0.094064              0.0194027177             0.00587692072           
       0.094743              0.0171555612             0.00520552512           
       0.095422              0.0146691423             0.00523625416           
       0.096101              0.0253758371             0.00804230212           
       0.096781              0.0256924828             0.00687285548           
       0.097460              0.0230547693             0.00667679451           
       0.098139              0.0365793727             0.00888220449           
       0.098818              0.0257754388             0.00666888625           
       0.099497              0.0140844972             0.00535918468           
       0.100176              0.0239535884             0.00642895839           
       0.100856              0.0509062578              0.0101887062           
       0.101535              0.0188153962             0.00670078007           
       0.102214              0.0171442192             0.00520415186           
       0.102893              0.0300367033             0.00709106847           
       0.103572              0.0251127955             0.00629860239           
       0.104251             0.00892453229             0.00405094429           
       0.104931              0.0279481446             0.00776436973           
       0.105610              0.0215370734             0.00651013475           
       0.106289              0.0140471567             0.00535241722           
       0.106968              0.0282148593             0.00632943805           
       0.107647              0.0260047476             0.00697257853           
       0.108326               0.022315108             0.00674626961           
       0.109005              0.0196382071             0.00528063217           
       0.109685               0.011589926             0.00477589081           
       0.110364              0.0247711129             0.00621241773           
       0.111043              0.0242689011             0.00703559807           
       0.111722              0.0197970792             0.00551568286           
       0.112401              0.0266383004             0.00688725059           
       0.113080              0.0249524882             0.00694719348           
       0.113760               0.019193123             0.00609295441           
       0.114439               0.013702292             0.00435638491           
       0.115118              0.0207667823             0.00557351923           
       0.115797              0.0267496505             0.00650142055           
       0.116476              0.0284004251             0.00711170625           
       0.117155              0.0173029823             0.00550750602           
       0.117835              0.0185816185             0.00562027523           
       0.118514              0.0261686785             0.00677316899           
       0.119193              0.0208588084             0.00582390492           
       0.119872              0.0259908718             0.00697158974           
       0.120551              0.0331413537             0.00762246846           
       0.121230              0.0211501995             0.00613748944           
       0.121910              0.0150888819             0.00506481317           
       0.122589               0.022242934              0.0059711379           
       0.123268              0.0275304311             0.00669106865           
       0.123947              0.0138490446             0.00440739169           
       0.124626              0.0166356765             0.00483053602           
       0.125305              0.0180363395              0.0052297598           
       0.125985               0.019297683             0.00560214896           
       0.126664              0.0253964134             0.00657119503           
       0.127343              0.0222548988             0.00673852628           
       0.128022              0.0111422672             0.00425695502           
       0.128701              0.0203954436             0.00528323633           
       0.129380              0.0173715114             0.00551915546           
       0.130059              0.0255871363              0.0068610891           
       0.130739              0.0288012462             0.00722038959           
       0.131418              0.0247675856             0.00621340674           
       0.132097              0.0196272195             0.00569157755           
       0.132776              0.0269894646             0.00698976538           
       0.133455              0.0234439016             0.00651454074           
       0.134134              0.0260373603             0.00632710934           
       0.134814              0.0185039351             0.00516008192           
       0.135493              0.0237906047              0.0066162708           
       0.136172              0.0187929686             0.00523397367           
       0.136851              0.0168518469             0.00489319831           
       0.137530              0.0119219875             0.00425250362           
       0.138209              0.0195827695             0.00545018946           
       0.138889              0.0165042483             0.00500352339           
       0.139568              0.0103919481              0.0039703641           
       0.140247               0.020318604             0.00566785719           
       0.140926              0.0120887977             0.00406808317           
       0.141605               0.026173897             0.00602283049           
       0.142284             0.00768014471             0.00348472085           
       0.142964              0.0104122621             0.00397441446           
       0.143643              0.0193062358             0.00560459635           
       0.144322              0.0259089779             0.00649268916           
       0.145001              0.0192815781             0.00560111474           
       0.145680                0.01434116             0.00435225564           
       0.146359              0.0145995088             0.00464406195           
       0.147039             0.00729920725             0.00332783304           
       0.147718              0.0212203094             0.00614962738           
       0.148397              0.0160825461             0.00511564319           
       0.149076              0.0231512978              0.0060085975           
       0.149755               0.025974934             0.00582348821           
       0.150434              0.0206381179             0.00575367602           
       0.151114               0.025107584             0.00593637072           
       0.151793              0.0235633362             0.00610459449           
       0.152472              0.0197307392             0.00529577489           
       0.153151             0.00913985097             0.00377554054           
       0.153830             0.00795865205              0.0033013584           
       0.154509              0.0223222379             0.00559767256           
       0.155188              0.0138048856             0.00440209429           
       0.155868              0.0166870364             0.00448890348           
       0.156547              0.0189029079             0.00571483449           
       0.157226              0.0222266897             0.00541911117           
       0.157905              0.0193609987             0.00561363365           
       0.158584              0.0143737857             0.00435797598           
       0.159263             0.00877905741             0.00398787113           
       0.159943              0.0174062897             0.00485323502           
       0.160622              0.0111282839             0.00397760908           
       0.161301              0.0129972492             0.00463337262           
       0.161980              0.0174475773             0.00469248445           
       0.162659              0.0204172982             0.00568334769           
       0.163338              0.0145265864             0.00440738529           
       0.164018              0.0256933022             0.00624506788           
       0.164697              0.0169575771             0.00473390871           
       0.165376              0.0156491068             0.00474732913           
       0.166055              0.0187298762             0.00503482855           
       0.166734              0.0204800741             0.00514241589           
       0.167413              0.0192077453             0.00498016935           
       0.168093              0.0158335304             0.00480632987           
       0.168772              0.0156476712             0.00454767797           
       0.169451              0.0268354108             0.00651634261           
       0.170130              0.0168617247              0.0048968935           
       0.170809               0.020473843             0.00569191312           
       0.171488              0.0245505206             0.00579984301           
       0.172168              0.0168481484             0.00509227398           
       0.172847              0.0216291057             0.00602259305           
       0.173526              0.0187928403             0.00523669606           
       0.174205              0.0104651536             0.00374148406           
       0.174884              0.0275808736             0.00651565217           
       0.175563              0.0139967871             0.00425182117           
       0.176243              0.0174835483             0.00469834274           
       0.176922              0.0211751818             0.00548819421           
       0.177601              0.0132270995             0.00401950978           
       0.178280               0.015398783             0.00468024851           
       0.178959              0.0150992056             0.00439116386           
       0.179638              0.0158519951               0.004605223           
       0.180317              0.0130120137             0.00396537569           
       0.180997               0.024316213             0.00545020141           
       0.181676              0.0185508802             0.00517009146           
       0.182355              0.0189131779             0.00475538831           
       0.183034              0.0307596214             0.00616371692           
       0.183713               0.018789099             0.00504419448           
       0.184392              0.0194628635             0.00504355522           
       0.185072              0.0185329818             0.00497989922           
       0.185751              0.0153455509             0.00428370843           
       0.186430              0.0104947671             0.00374752363           
       0.187109              0.0204425603             0.00497082949           
       0.187788              0.0100240462              0.0035783896           
       0.188467              0.0133783334             0.00406530177           
       0.189147              0.0068456068             0.00349504824           
       0.189826              0.0105896781             0.00378726052           
       0.190505               0.024422458             0.00534794154           
       0.191184               0.021616436              0.0049798008           
       0.191863             0.00924842877             0.00353942614           
       0.192542              0.0237591838             0.00533083047           
       0.193222              0.0242018662             0.00495120435           
       0.193901              0.0193666561             0.00538827539           
       0.194580              0.0196485826             0.00492723483           
       0.195259              0.0229961554             0.00595154787           
       0.195938              0.0104444416             0.00373914102           
       0.196617              0.0134404867              0.0040753125           
       0.197297              0.0125263992             0.00419611376           
       0.197976               0.016242994             0.00436196418           
       0.198655              0.0129496484             0.00393600138           
       0.199334             0.00989845576             0.00333640691           
       0.200013              0.0225082184             0.00518928116           
       0.200692              0.0178188613             0.00516910369           
       0.201371              0.0118612286             0.00378734258           
       0.202051              0.0171153974             0.00459927489           
       0.202730              0.0110373014             0.00371391675           
       0.203409              0.0198997568              0.0051619254           
       0.204088              0.0181900796             0.00443540728           
       0.204767             0.00659703895             0.00300819467           
       0.205446              0.0085229495             0.00326375267           
       0.206126              0.0115619642              0.0035194161           
       0.206805              0.0160706539             0.00431703731           
       0.207484              0.0123896889             0.00395726771           
       0.208163               0.016007487             0.00447307311           
       0.208842              0.0189122595             0.00448012784           
       0.209521              0.0161893099             0.00420506308           
       0.210201              0.0219267231             0.00491778637           
       0.210880              0.0143926628             0.00458578318           
       0.211559              0.0155557646             0.00418349693           
       0.212238             0.00959123354             0.00323681455           
       0.212917              0.0161693344             0.00420274075           
       0.213596              0.0171072048              0.0043021301           
       0.214276              0.0188574432             0.00505613932           
       0.214955              0.0146148413             0.00425107698           
       0.215634              0.0246080606             0.00551627448           
       0.216313              0.0169255325             0.00454999565           
       0.216992              0.0094500866             0.00338155238           
       0.217671              0.0194605046             0.00504630405           
       0.218351              0.0165465425              0.0044508293           
       0.219030               0.010751343             0.00362655759           
       0.219709              0.0237388774             0.00560639157           
       0.220388              0.0208384376             0.00507669193           
       0.221067              0.0158695052             0.00426917009           
       0.221746              0.0126825808             0.00385610223           
       0.222426              0.0127732967             0.00371810129           
       0.223105              0.0109297758             0.00367686328           
       0.223784              0.0228256923             0.00512032388           
       0.224463              0.0291416884             0.00572745541           
       0.225142              0.0122675491             0.00357583576           
       0.225821              0.0172463941             0.00420116034           
       0.226500              0.0211676264             0.00500837521           
       0.227180              0.0191039883             0.00452580461           
       0.227859              0.0109369175             0.00367842045           
       0.228538              0.0150732489             0.00379230496           
       0.229217              0.0130959546             0.00366116398           
       0.229896              0.0187718978             0.00471677393           
       0.230575              0.0174901319             0.00439395206           
       0.231255               0.012940988             0.00393717867           
       0.231934              0.0165859768             0.00445736131           
       0.232613              0.0102057044             0.00344201666           
       0.233292              0.0118759924             0.00379207776           
       0.233971              0.0159074012             0.00427540331           
       0.234650              0.0101334957             0.00341242066           
       0.235330              0.0202985376             0.00509675383           
       0.236009              0.0202801945             0.00480316399           
       0.236688               0.012806765             0.00372407472           
       0.237367              0.0182261601             0.00457674169           
       0.238046              0.0125358626              0.0038152161           
       0.238725              0.0196560356             0.00452762112           
       0.239405             0.00637307207             0.00265286373           
       0.240084              0.0122932374             0.00358070352           
       0.240763             0.00888415998             0.00367744048           
       0.241442              0.0112918519             0.00344786708           
       0.242121             0.00733539647             0.00304707439           
       0.242800              0.0163361928             0.00410898701           
       0.243480             0.00653749902             0.00271384576           
       0.244159               0.014206008             0.00369852795           
       0.244838              0.0118134481             0.00359469306           
       0.245517              0.0172962617             0.00481654454           
       0.246196              0.0144452584             0.00403429679           
       0.246875             0.00794177774             0.00305305845           
       0.247554              0.0155463631             0.00434001968           
       0.248234              0.0138860564             0.00403718679           
       0.248913             0.00873182438             0.00334382278           
       0.249592               0.021514129              0.0048281828           
       0.250271              0.0108460177             0.00364490748           
       0.250950              0.0161123315             0.00432658468           
       0.251629              0.0124265994             0.00396679387           
       0.252309             0.00673368582             0.00279708432           
       0.252988               0.010353379             0.00348640082           
       0.253667             0.00952601817             0.00341617925           
       0.254346              0.0134601157             0.00376546123           
       0.255025              0.0127261431             0.00386549086           
       0.255704             0.00719250548             0.00276557935           
       0.256384              0.0118898745             0.00360724888           
       0.257063             0.00865931497             0.00310880933           
       0.257742              0.0103050152             0.00347862831           
       0.258421             0.00821532823             0.00277810321           
       0.259100              0.0114825052             0.00410021434           
       0.259779              0.0118894297             0.00379646551           
       0.260459             0.00792676128             0.00283748486           
       0.261138             0.00908401278             0.00326631131           
       0.261817              0.0138598034              0.0042140411           
       0.262496               0.010941273             0.00368198057           
       0.263175              0.0224512844             0.00545740867           
       0.263854              0.0174438538             0.00452655714           
       0.264534               0.010907841             0.00347263342           
       0.265213              0.0108006975             0.00345559485           
       0.265892              0.0127357239             0.00406308443           
       0.266571              0.0161289494             0.00449564836           
       0.267250              0.0135769565             0.00412475188           
       0.267929              0.0138458008             0.00403318839           
       0.268609              0.0159417423              0.0044450797           
       0.269288              0.0205660614             0.00486521448           
       0.269967              0.0121464769             0.00408756467           
       0.270646             0.00434321921             0.00223587111           
       0.271325              0.0159529275             0.00444693447           
       0.272004              0.0143074419             0.00384800496           
       0.272683              0.0165463241             0.00480046675           
       0.273363              0.0176616458             0.00457969582           
       0.274042              0.0166949972             0.00419557471           
       0.274721             0.00823972539             0.00316163852           
       0.275400             0.00690229036             0.00287830812           
       0.276079              0.0101171126             0.00362227252           
       0.276758              0.0116172406             0.00353326361           
       0.277438               0.018606256             0.00499939071           
       0.278117              0.0197532046             0.00512086737           
       0.278796              0.0131295657             0.00399140727           
       0.279475              0.0115086159             0.00410690984           
       0.280154              0.0110488589             0.00422052268           
       0.280833             0.00999092253             0.00382667718           
       0.281513              0.0146800008             0.00559109207           
       0.282192              0.0148328763             0.00449110046           
       0.282871             0.00746027143              0.0033962706           
       0.283550              0.0214116132             0.00596162286           
       0.284229              0.0141282127             0.00503124911           
       0.284908              0.0207768908             0.00559202424           
       0.285588              0.0203855541             0.00546679855           
       0.286267              0.0147520419              0.0049487648           
       0.286946             0.00965497466              0.0043729107           
       0.287625              0.0161569926             0.00514157089           
       0.288304              0.0100292794             0.00383474978           
       0.288983             0.00986150101             0.00377815643           
       0.289663             0.00762657532             0.00345829381           
       0.290342             0.00627535156             0.00369137406           
       0.291021              0.0167072529             0.00560732282           
       0.291700              0.0159354922             0.00534440383           
       0.292379              0.0113835151             0.00405961796           
       0.293058              0.0125443243             0.00478002072           
       0.293738             0.00678328642             0.00345970898           
       0.294417             0.00669684825             0.00341111531           
       0.295096              0.0158864936             0.00566037802           
       0.295775             0.00716028472             0.00364110697           
       0.296454              0.0092445412             0.00417165287           
       0.297133              0.0121903076             0.00463838878           
       0.297812             0.00953571948             0.00364662732           
       0.298492              0.0154016595             0.00517358735           
       0.299171             0.00604346027             0.00307928571           
       0.299850              0.0151640448             0.00538843282           
       0.300529              0.0128187783             0.00430889056           
       0.301208             0.00737953202             0.00335656954           
       0.301887              0.0122042703             0.00434609796           
       0.302567             0.00205973776             0.00220190467           
       0.303246              0.0136759313             0.00487576912           
       0.303925               0.011078251             0.00456761883           
       0.304604              0.0165367002             0.00588255296           
       0.305283             0.00871681136             0.00395416215           
       0.305962              0.0116882059             0.00481382786           
       0.306642              0.0233702032             0.00705920158           
       0.307321              0.0301785916             0.00780414576           
       0.308000              0.0264129036             0.00662570633           
       0.308679              0.0121117166             0.00498893111           
       0.309358              0.0115385941             0.00521255418           
       0.310037             0.00950650959             0.00430428034           
       0.310717             0.00919514548             0.00416213112           
       0.311396              0.0266438615             0.00740008883           
       0.312075             0.00717599037             0.00364673356           
       0.312754              0.0110911808             0.00500772426           
       0.313433             0.00667625954             0.00340764778           
       0.314112               0.017764126             0.00564618428           
       0.314792              0.0142386674             0.00642487679           
       0.315471              0.0095933419             0.00485597576           
       0.316150              0.0618231383              0.0126045591           
       0.316829             0.00820664118             0.00481659654           
       0.317508               0.015499855             0.00592071807           
       0.318187              0.0023920612             0.00253785005           
       0.318866              0.0251269194             0.00761525689           
       0.319546             0.00619585569             0.00447443832           
       0.320225             0.00253640275             0.00267799405           
       0.320904             0.00689897881             0.00407456832           
       0.321583             0.00614975278             0.00362274539           
       0.322262              0.0129722937             0.00584157017           
       0.322941              0.0156557376             0.00557396141           
       0.323621              0.0166941165             0.00633877871           
       0.324300              0.0149098911             0.00612225687           
       0.324979             0.00638270551             0.00376276642           
       0.325658             0.00784193709             0.00459605894           
       0.326337             0.00804229228              0.0047109215           
       0.327016             0.00425806124              0.0031041122           
       0.327696              0.0108905403             0.00491546304           
       0.328375             0.00972078842             0.00568781128           
       0.329054              0.0297206756              0.0094076397           
       0.329733              0.0195002846             0.00692616443           
       0.330412              0.0110749712             0.00500664662           
       0.331091              0.0107769365             0.00627244484           
       0.331771              0.0160362406             0.00657361914           
       0.332450              0.0148866286             0.00749416785           
       0.333129               0.011075961             0.00559830168           
       0.333808              0.0108130354             0.00546369363           
       0.334487             0.00600779056             0.00434629664           
       0.335166              0.0172293659             0.00707171861           
       0.335846             0.00728988488             0.00524483147           
       0.336525             0.00295840717             0.00309339686           
       0.337204             0.00904490081             0.00457144989           
       0.337883             0.00798619543                 0.0040546           
       0.338562             0.00789086716              0.0046121806           
       0.339241              0.0135078943             0.00680790385           
       0.339921             0.00824867175             0.00483222742           
       0.340600             0.00639950271             0.00376949339           
       0.341279             0.00551170856             0.00400050918           
       0.341958           -0.000302505861                         0           
       0.342637             0.00892841753             0.00522768847           
       0.343316              0.0182092111             0.00746580848           
       0.343995             0.00958050681             0.00485686568           
       0.344675             0.00825688621             0.00483535341           
       0.345354             0.00703708476             0.00507077111           
       0.346033             0.00255167291             0.00268813013           
       0.346712              0.0163684094             0.00672493949           
       0.347391              0.0118222603             0.00533811782           
       0.348070             0.00524885462              0.0038083437           
       0.348750              0.0172186869              0.0070725044           
       0.349429              0.0155724526             0.00700070065           
       0.350108              0.0128921381             0.00749548489           
       0.350787              0.0609437455              0.0149250839           
       0.351466             0.00572462566             0.00413166025           
       0.352145             0.00501599108             0.00363577218           
       0.352825             0.00664235762              0.0047760174           
       0.353504             0.00616123885             0.00446653872           
       0.354183             0.00605764276             0.00436697359           
       0.354862             0.00337433043             0.00351239412           
       0.355541              0.0092658034             0.00540120211           
       0.356220           -0.000302777899                         0           
       0.356900               0.012104227             0.00608955384           
       0.357579               0.011505189             0.00670619401           
       0.358258             0.00314314582             0.00328596174           
       0.358937             0.00634705354             0.00460038148           
       0.359616             0.00357104128             0.00367361796           
       0.360295               0.011495972             0.00670409942           
       0.360975              0.0128090582              0.0074739101           
       0.361654             0.00924652378             0.00539665665           
       0.362333              0.0124044387             0.00559084685           
       0.363012             0.00878474379             0.00631248721           
       0.363691              0.0201420542             0.00903207449           
       0.364370              0.0203879048              0.0102517949           
       0.365050              0.0040068267               0.004180687           
       0.365729              0.0105592915             0.00755182317           
       0.366408             0.00819914865             0.00586889223           
       0.367087             0.00746983817             0.00438827569           
       0.367766             0.00363874663             0.00377269279           
       0.368445               0.010081015             0.00720982622           
       0.369124               0.016818298             0.00976717163           
       0.369804             0.00391073474             0.00405369418           
       0.370483              0.0139971298             0.00813442746           
       0.371162              0.0120190042             0.00697875541           
       0.371841             0.00409153062             0.00422561317           
       0.372520              0.0172597186             0.00867908398           
       0.373199             0.00962551384             0.00689129338           
       0.373879             0.00362622085             0.00376695571           
       0.374558              0.0217933492                0.00893211           
       0.375237             0.00394088818              0.0040700363           
       0.375916           -0.000303174596                         0           
       0.376595             0.00735973012             0.00527682816           
       0.377274             0.00364399701             0.00377661518           
       0.377954              0.0208618613             0.00936521157           
       0.378633             0.00573477942             0.00585348955           
       0.379312              0.0117571128             0.00838139043           
       0.379991           -0.000303258134                         0           
       0.380670             0.00731122406             0.00526016045           
       0.381349              0.0123563657              0.0088284346           
       0.382029             0.00541513912             0.00554463443           
       0.382708           -0.000303315759                         0           
       0.383387              0.0101023927             0.00589604105           
       0.384066             0.00488254907             0.00502027846           
       0.384745             0.00926454485              0.0066211346           
       0.385424             0.00405470242             0.00420851137           
       0.386104              0.0377196261              0.0125964227           
       0.386783              0.0396087475              0.0149981293           
       0.387462              0.0123808507             0.00721703613           
       0.388141              0.0120226084             0.00698387928           
       0.388820              0.0167673596             0.00975895712           
       0.389499             0.00377903806             0.00391569512           
       0.390178              0.0245941267              0.0110219296           
       0.390858              0.0110947548             0.00648210822           
       0.391537           -0.000303504002                         0           
       0.392216              0.0105899402             0.00756966128           
       0.392895             0.00571284327             0.00584519608           
       0.393574              0.0225744851              0.0113254094           
       0.394253              0.0145946769             0.00849190126           
       0.394933             0.00538696947             0.00553271958           
       0.395612             0.00815794021             0.00586004018           
       0.396291              0.0140810746              0.0100014144           
       0.396970             0.00467824189             0.00480829556           
       0.397649              0.0173181596              0.0123056103           
       0.398328             0.00379831678             0.00392691403           
       0.399008             0.00447372835             0.00460336027           
       0.399687           -0.000303682583                         0           
       0.400366             0.00429121639             0.00441760511           
       0.401045              0.0131793334             0.00938858517           
       0.401724           -0.000303726184                         0           
       0.402403              0.0117550707             0.00838754891           
       0.403083           -0.000303755998                         0           
       0.403762             0.00513274823             0.00527214128           
       0.404441           -0.000303788092                         0           
       0.405120              0.0111732542             0.00797107007           
       0.405799           -0.000303815662                         0           
       0.406478           -0.000303833222                         0           
       0.407158              0.0131916991             0.00939507842           
       0.407837             0.00851035466             0.00610199819           
       0.408516             0.00731027538             0.00744592153           
       0.409195             0.00515661037             0.00528543126           
       0.409874              0.0171513095              0.0122517057           
       0.410553           -0.000303925167                         0           
       0.411233           -0.000303940048                         0           
       0.411912           -0.000303955864                         0           
       0.412591              0.0377342414              0.0154452424           
       0.413270             0.00571324739             0.00584977223           
       0.413949           -0.000304001318                         0           
       0.414628                0.01989605              0.0115413401           
       0.415307             0.00788600849             0.00800704581           
       0.415987              0.0064189192             0.00655579557           
       0.416666             0.00467202371             0.00480862109           
       0.417345           -0.000304079432                         0           
       0.418024             0.00793221922              0.0080313081           
       0.418703            -0.00030411344                         0           
       0.419382           -0.000304124862                         0           
       0.420062             0.00777539305             0.00795210924           
       0.420741             0.00741348865             0.00750176696           
       0.421420           -0.000304175114                         0           
       0.422099           -0.000304190948                         0           
       0.422778              0.0160634955             0.00933342134           
       0.423457           -0.000304222116                         0           
       0.424137             0.00490241694              0.0050378774           
       0.424816           -0.000304254386                         0           
       0.425495           -0.000304269613                         0           
       0.426174             0.00921741688             0.00935409698           
       0.426853           -0.000304300258                         0           
       0.427532             0.00925341015             0.00937282672           
       0.428212              0.0111271807               0.011259399           
       0.428891           -0.000304348647                         0           
       0.429570           -0.000304365488                         0           
       0.430249            -0.00030438062                         0           
       0.430928              0.0140360719              0.0141398265           
       0.431607           -0.000304415323                         0           
       0.432287           -0.000304430698                         0           
       0.432966             0.00850593437             0.00863561172           
       0.433645           -0.000304462189                         0           
       0.434324           -0.000304479959                         0           
       0.435003           -0.000304494468                         0           
       0.435682           -0.000304512877                         0           
       0.436361           -0.000304529073                         0           
       0.437041           -0.000304546621                         0           
       0.437720           -0.000304558716                         0           
       0.438399           -0.000304576891                         0           
       0.439078           -0.000304595104                         0           
       0.439757              0.0227332183              0.0161008677           
       0.440436           -0.000304630919                         0           
       0.441116               0.042184833              0.0245231425           
       0.441795              0.0254915856              0.0179734418           
       0.442474           -0.000304676819                         0           
       0.443153           -0.000304692686                         0           
       0.443832           -0.000304709917                         0           
       0.444511               0.045476115              0.0322114351           
       0.445191           -0.000304744412                         0           
       0.445870           -0.000304762833                         0           
       0.446549             0.00926693328             0.00938672185           
       0.447228              0.0125517603               0.012614804           
       0.447907              0.0458273945               0.032340037           
       0.448586              0.0140356251              0.0141497195           
       0.449266              0.0226502898              0.0160777517           
       0.449945              0.0452428464              0.0321355972           
       0.450624               0.099343354              0.0321058261           
       0.451303           -0.000304897883                         0           
       0.451982               0.028635436              0.0285861837           
       0.452661              0.0285148993              0.0285266015           
       0.453341              0.0188237415              0.0189250224           
       0.454020           -0.000304962879                         0           
       0.454699            -0.00030497645                         0           
       0.455378              0.0769490542               0.054117328           
       0.456057              0.0112347389               0.011326359           
       0.456736           -0.000305035005                         0           
       0.457416           -0.000305049179                         0           
       0.458095           -0.000305066085                         0           
       0.458774           -0.000305085463                         0           
       0.459453            -0.00030510204                         0           
       0.460132           -0.000305118686                         0           
       0.460811              0.0383692696              0.0382230774           
       0.461490              0.0227471377              0.0227973823           
       0.462170            -0.00030516951                         0           
       0.462849              0.0381833685              0.0381336809           
       0.463528           -0.000305201456                         0           
       0.464207           -0.000305221072                         0           
       0.464886           -0.000305233422                         0           
       0.465565           -0.000305259657                         0           
       0.466245           -0.000305285004                         0           
       0.466924           -0.000305290994                         0           
       0.467603           -0.000305314504                         0           
       0.468282           -0.000305327015                         0           
       0.468961           -0.000305349773                         0           
       0.469640           -0.000305364239                         0           
       0.470320                       nan                       nan           
       0.470999              0.0570443859              0.0403794556           
       0.471678              0.0379804238              0.0380464346           
       0.472357           -0.000305430493                         0           
       0.473036           -0.000305452256                         0           
       0.473715           -0.000305468925                         0           
       0.474395           -0.000305486595                         0           
       0.475074                       nan                       nan           
       0.475753           -0.000305522485                         0           
       0.476432           -0.000305545006                         0           
       0.477111           -0.000305563492                         0           
       0.477790                       nan                       nan           
       0.478470           -0.000305601299                         0           
       0.479149           -0.000305615526                         0           
       0.479828           -0.000305635812                         0           
       0.480507           -0.000305650783                         0           
       0.481186           -0.000305671136                         0           
       0.481865           -0.000305686715                         0           
       0.482545           -0.000305705042                         0           
       0.483224           -0.000305720567                         0           
       0.483903                       nan                       nan           
       0.484582                       nan                       nan           
       0.485261           -0.000305779583                         0           
