################################################################################
# EDF_DataBlockID                     0.Image.Psd
# EDF_BinarySize                      4366944
# EDF_HeaderSize                      2560
# ByteOrder                           LowByteFirst
# DataType                            FloatValue
# Dim_1                               1028
# Dim_2                               1062
# Image                               0
# HeaderID                            EH:000000:000000:000000
# Size                                4366944
# Center_1                            607.5320
# Center_2                            651.4720
# Comment                             Xenocs_Cell_Window - front_window_open_only
# DDummy                              0.6
# Date                                2025-10-18T23:37:09
# Delta                               0
# Dummy                               -1.5
# ExposureTime                        360
# Gamma                               0
# Intensity1                          9.05649e-10
# PSize_1                             7.5e-05
# PSize_2                             7.5e-05
# Pressure                            0.0332413
# SampleDistance                      0.450002
# SampleEnvKind                       large
# SampleEnvPN                         ElectroChemical cell
# SampleEnvSN                         1141
# Thickness                           0
# Wavelength                          1.541891e-10
# Wavelength                          1.54189e-10
# aux                                 0
# aux_dial                            0.002375
# beamx                               588.429
# beamx_dial                          588.429
# beamz                               657.855
# beamz_dial                          657.855
# det0x                               -0.000396875
# det0x_dial                          6.36905
# det0xvd                             -0.0005
# det0xvd_dial                        -0.0005
# det0y                               450.002
# det0y_dial                          481.635
# det0z                               0
# det0z_dial                          1.2295
# det0zvd                             0
# det0zvd_dial                        0
# mag                                 1.818
# mag_dial                            1.818
# om                                  0.2499
# om_dial                             -0.610199
# phi                                 -0.0120535
# phi_dial                            0
# ry                                  0.599993
# ry_dial                             0.599993
# s1bot                               0.8
# s1bot_dial                          -1.66094
# s1hl                                0.8
# s1hl_dial                           -0.608437
# s1hr                                0.8
# s1hr_dial                           0.970938
# s1top                               0.8
# s1top_dial                          -0.461562
# s2bot                               0.45
# s2bot_dial                          1.36109
# s2hl                                0.45
# s2hl_dial                           -0.83375
# s2hr                                0.45
# s2hr_dial                           -0.118594
# s2top                               0.45
# s2top_dial                          1.44734
# w2theta                             32
# w2theta_dial                        32
# waxsch                              19.2605
# waxsch_dial                         -32.7238
# waxsh                               137.085
# waxsh_dial                          -43.5335
# waxsth                              26.0607
# waxsth_dial                         -19.4068
# waxsz                               67.0407
# waxsz_dial                          -23.7962
# wind                                65.9854
# wind_dial                           66.0041
# wpsi                                124
# wpsi_dial                           124
# wstod                               115
# wstod_dial                          115
# x                                   0
# x_dial                              1.00969
# z                                   0
# z_dial                              13.3172
# CountCutoff                         15302352
# DetectorModel                       Dectris EIGER2 Si 1M, S/N E-02-0362
# ThresholdSetting                    4023.88989258
# Saturation                          0
# FlatField                           Corrected
# BackgroundReductionExtra            0.02
# BackgroundCorrectionConstant        0.0026712
# Detector                            0
# Monitor                             0
# Pil_Roi0                            0
# SumForIntensity1                    3.26034e+08
# TransmittedFlux                     905649
# det                                 0
# mon                                 0
# pilai0                              3.26034e+08
# pilai1                              703170
# pilct0                              5.63944e+08
# pilct1                              703170
# pilroi0                             0
# pilroi1                             0
# sec                                 1
# title                               20251017__0_00268.edf
# usaxs0                              0
# Operation                           Azimuthal average I(q)
# Error_model                         ErrorModel.poisson
# Geometrical_correction              True
# Transmission_correction             True
# Thickness_correction                False
# Binning mode                        Uniform
# Binning factor                      1.0
# Psi                                 0.0
# Omega                               0.2499
# MaskInvalidPixels                   True
# DetectorEdge                        3
# MaskFiles                           ['SAXS_correted.edf']
################################################################################
    q(A⁻¹)                Intensity(a.u.)            Sigma_I(a.u.)            
       0.000340                 352801.59                113.953225           
       0.001019                352076.427                 69.710063           
       0.001698                348447.925                49.0378002           
       0.002377                 331364.35                42.7720409           
       0.003056                 299141.36                34.3464114           
       0.003735                260880.913                28.2873422           
       0.004415                204884.181                25.0683245           
       0.005094                152846.728                 18.751237           
       0.005773                  101527.5                14.1488274           
       0.006452                 60883.817                10.5851763           
       0.007131                33031.0176                7.54907864           
       0.007810                16256.9095                5.21519047           
       0.008490                8410.54221                3.32503118           
       0.009169                3241.85696                2.04019326           
       0.009848                1286.84663                1.23607775           
       0.010527                364.445609               0.661373179           
       0.011206                123.750827               0.364233478           
       0.011885                50.5010021               0.220204306           
       0.012564                25.0281968               0.155699571           
       0.013244                 16.789026                0.12129779           
       0.013923                12.4601769               0.106195949           
       0.014602                 9.3863052              0.0848383552           
       0.015281                7.62158543              0.0786646753           
       0.015960                6.13741092              0.0698251933           
       0.016639                5.04123571              0.0591694207           
       0.017319                4.04037616               0.052157506           
       0.017998                3.34884931              0.0461000617           
       0.018677                3.00990572              0.0450177031           
       0.019356                2.50702872              0.0403538049           
       0.020035                2.08374539              0.0346179646           
       0.020714                1.86227191              0.0331612661           
       0.021394                1.62127501              0.0291284955           
       0.022073                1.36855648              0.0280551284           
       0.022752                1.26004026              0.0254392959           
       0.023431                1.12817563              0.0235304282           
       0.024110               0.992001992              0.0230598255           
       0.024789               0.875241591              0.0201940672           
       0.025469               0.818853592              0.0200024675           
       0.026148                0.72560827              0.0178314312           
       0.026827               0.659939184              0.0171420279           
       0.027506               0.638567108              0.0174339609           
       0.028185               0.573619536              0.0158230141           
       0.028864               0.506131455              0.0146616642           
       0.029544               0.466987812              0.0137945395           
       0.030223               0.456173368              0.0140827664           
       0.030902               0.418705339               0.013938192           
       0.031581               0.363501522              0.0121705434           
       0.032260               0.346762407              0.0124010565           
       0.032939               0.315160343              0.0118463116           
       0.033619               0.279700918              0.0115633878           
       0.034298               0.270944793              0.0110285362           
       0.034977               0.240908954              0.0103157885           
       0.035656               0.213532174              0.0101921456           
       0.036335               0.233028467              0.0103765593           
       0.037014               0.209611343              0.0103761676           
       0.037693               0.201029996             0.00988934029           
       0.038373               0.175789055              0.0096608443           
       0.039052               0.179189974             0.00959377424           
       0.039731               0.149425311             0.00906080818           
       0.040410               0.169910376             0.00966197423           
       0.041089               0.151920979             0.00954893695           
       0.041768               0.135058796             0.00947902299           
       0.042448               0.128830611              0.0086082766           
       0.043127               0.130019993              0.0090324837           
       0.043806               0.124123736             0.00919876477           
       0.044485               0.126016975             0.00889239911           
       0.045164               0.129496549             0.00954423661           
       0.045843               0.108013357             0.00805180069           
       0.046523               0.132416167             0.00916769774           
       0.047202               0.108441261             0.00870631625           
       0.047881               0.109219609             0.00865574098           
       0.048560               0.090636566              0.0080104622           
       0.049239              0.0906895493             0.00760895631           
       0.049918              0.0683252794             0.00742166375           
       0.050598              0.0891020756             0.00796801609           
       0.051277              0.0828956004             0.00747166391           
       0.051956              0.0872927901             0.00851409051           
       0.052635              0.0643667474             0.00748178501           
       0.053314              0.0794145427             0.00785929361           
       0.053993              0.0764460726             0.00805907151           
       0.054673              0.0742366974             0.00765289736           
       0.055352              0.0733020809             0.00804794955           
       0.056031              0.0831919879             0.00853962899           
       0.056710               0.078920199             0.00831751869           
       0.057389              0.0822605835             0.00849174899           
       0.058068              0.0821761046              0.0082610464           
       0.058748              0.0694073281             0.00762088419           
       0.059427              0.0646297391             0.00670052578           
       0.060106              0.0668791858             0.00823237224           
       0.060785              0.0622773647             0.00719173597           
       0.061464              0.0519995263             0.00688974269           
       0.062143              0.0633142779              0.0071709893           
       0.062822              0.0556431873             0.00718673845           
       0.063502              0.0474046318             0.00693103652           
       0.064181              0.0478718279             0.00684074842           
       0.064860              0.0583199579              0.0081077447           
       0.065539              0.0639019697             0.00831884952           
       0.066218              0.0606360833             0.00848656684           
       0.066897              0.0465854234             0.00728364701           
       0.067577              0.0491104004             0.00776384718           
       0.068256              0.0563696301             0.00797118384           
       0.068935              0.0379550375             0.00671441751           
       0.069614              0.0492041184             0.00733596219           
       0.070293              0.0408502799             0.00712067802           
       0.070972              0.0508003906             0.00756730575           
       0.071652              0.0467031825             0.00748862255           
       0.072331              0.0434915607             0.00770166566           
       0.073010              0.0401731051             0.00774423273           
       0.073689               0.048007721             0.00789904336           
       0.074368              0.0317928476             0.00624703364           
       0.075047              0.0274747293             0.00601117618           
       0.075727              0.0399553415             0.00799829244           
       0.076406              0.0376937359             0.00806642629           
       0.077085              0.0342221821             0.00700723857           
       0.077764              0.0455317155             0.00847712425           
       0.078443              0.0371674146             0.00716438492           
       0.079122              0.0331934509             0.00708776897           
       0.079802              0.0367052929             0.00802307393           
       0.080481              0.0284092441              0.0063845978           
       0.081160              0.0285061977             0.00763702139           
       0.081839               0.043635352             0.00874786869           
       0.082518              0.0231378728             0.00600050838           
       0.083197              0.0316541392             0.00769922391           
       0.083876              0.0354172327             0.00682539285           
       0.084556              0.0191955656              0.0060999362           
       0.085235              0.0384190499             0.00801984358           
       0.085914              0.0453751047             0.00828731966           
       0.086593              0.0270434323             0.00678021131           
       0.087272              0.0219427045             0.00568572252           
       0.087951              0.0275520471             0.00712319927           
       0.088631              0.0351937463             0.00767603275           
       0.089310              0.0378553016               0.007730237           
       0.089989              0.0221975764             0.00557211396           
       0.090668              0.0303883232             0.00718753432           
       0.091347              0.0301104464             0.00732568769           
       0.092026              0.0372091977             0.00691454891           
       0.092706              0.0462438571             0.00963909182           
       0.093385              0.0309199099             0.00730671333           
       0.094064              0.0208960354             0.00605420517           
       0.094743              0.0294363255             0.00676878185           
       0.095422              0.0274517847             0.00711066613           
       0.096101              0.0199999042             0.00708746278           
       0.096781              0.0215270842             0.00624501401           
       0.097460              0.0246497177             0.00685330772           
       0.098139              0.0231372234             0.00701237122           
       0.098818              0.0116363531             0.00444800594           
       0.099497              0.0219571985             0.00664237137           
       0.100176              0.0236608703             0.00634274599           
       0.100856              0.0280242796             0.00750425046           
       0.101535              0.0257633338             0.00778352541           
       0.102214              0.0214945268             0.00578444489           
       0.102893              0.0230008825             0.00615976912           
       0.103572              0.0262595699              0.0063936242           
       0.104251              0.0215159168             0.00624381611           
       0.104931              0.0293916306               0.007904023           
       0.105610              0.0290374359             0.00750381994           
       0.106289              0.0199126864             0.00632597267           
       0.106968             0.00816228503             0.00337939319           
       0.107647              0.0219478462             0.00635871975           
       0.108326              0.0178645248             0.00599192777           
       0.109005              0.0222560691             0.00558040691           
       0.109685              0.0250509615             0.00697000187           
       0.110364              0.0243940773             0.00611979292           
       0.111043               0.019972447             0.00633575307           
       0.111722              0.0133590959             0.00449773536           
       0.112401              0.0296924231             0.00721808657           
       0.113080              0.0245831526             0.00684506996           
       0.113760              0.0150659411             0.00535870533           
       0.114439              0.0285283511             0.00623985661           
       0.115118               0.018918091             0.00528068415           
       0.115797              0.0356300858             0.00744842202           
       0.116476              0.0314500696             0.00742897389           
       0.117155              0.0414132521             0.00845806084           
       0.117835              0.0165627037             0.00526730018           
       0.118514               0.018831534             0.00570361894           
       0.119193              0.0206308564             0.00574956243           
       0.119872              0.0182181127             0.00579401651           
       0.120551              0.0135896162             0.00484530086           
       0.121230              0.0331711372             0.00762992628           
       0.121910             0.00986486846             0.00406524933           
       0.122589              0.0155374438             0.00495401694           
       0.123268              0.0238059044              0.0061764362           
       0.123947              0.0302478208             0.00646584703           
       0.124626              0.0177932534             0.00495917474           
       0.125305              0.0102300231              0.0039097815           
       0.125985              0.0190691481             0.00552808042           
       0.126664              0.0182415375             0.00552834988           
       0.127343              0.0199706856             0.00633658463           
       0.128022              0.0141928658             0.00476929256           
       0.128701              0.0227796574             0.00554260198           
       0.129380              0.0292281941             0.00710659315           
       0.130059              0.0143015359             0.00509190387           
       0.130739              0.0193837416             0.00588004211           
       0.131418              0.0243255065             0.00611259373           
       0.132097              0.0242777157             0.00628367648           
       0.132776              0.0176560498             0.00561201566           
       0.133455              0.0212363408             0.00615481977           
       0.134134              0.0225794934             0.00584885154           
       0.134814              0.0196872801              0.0052835284           
       0.135493              0.0160777989             0.00539921306           
       0.136172              0.0170466739              0.0049483488           
       0.136851              0.0278910277             0.00624896311           
       0.137530              0.0177344149             0.00514855587           
       0.138209              0.0178006073             0.00515820492           
       0.138889              0.0161970872             0.00492043113           
       0.139568              0.0162341229             0.00492609635           
       0.140247               0.020082236             0.00559351282           
       0.140926              0.0200870166             0.00520550209           
       0.141605              0.0216431851             0.00543667873           
       0.142284              0.0138543931              0.0046460479           
       0.142964              0.0161931503             0.00492008855           
       0.143643              0.0222849554             0.00597734137           
       0.144322              0.0109787995             0.00419549817           
       0.145001              0.0206451183             0.00575331969           
       0.145680              0.0193451017             0.00501781218           
       0.146359              0.0260874906             0.00616242537           
       0.147039              0.0192226599             0.00536089204           
       0.147718              0.0191698045             0.00580214297           
       0.148397               0.019070568             0.00552982381           
       0.149076             0.00896471154             0.00371159209           
       0.149755               0.021677317             0.00528099039           
       0.150434              0.0235099557             0.00609597115           
       0.151114              0.0192064166             0.00515404686           
       0.151793              0.0263628112             0.00640974759           
       0.152472              0.0222615631             0.00558396007           
       0.153151              0.0120940726             0.00431124302           
       0.153830              0.0119430122             0.00401454649           
       0.154509              0.0149957456             0.00455438032           
       0.155188              0.0262225213             0.00602263849           
       0.155868              0.0199786394             0.00487573679           
       0.156547              0.0202989094             0.00587871408           
       0.157226               0.019331109             0.00501678732           
       0.157905              0.0207213829             0.00576495862           
       0.158584               0.025928907             0.00581029244           
       0.159263              0.0194425299             0.00589115157           
       0.159943              0.0171820173             0.00478654265           
       0.160622              0.0180639406             0.00503061274           
       0.161301              0.0209686888             0.00584202995           
       0.161980              0.0222490561             0.00526014492           
       0.162659              0.0232415206              0.0060192724           
       0.163338              0.0182777342             0.00490757616           
       0.164018              0.0117505219             0.00419239714           
       0.164697              0.0075715712             0.00314005765           
       0.165376              0.0168510734              0.0048901816           
       0.166055              0.0171575208             0.00478355903           
       0.166734              0.0112275173             0.00377963568           
       0.167413              0.0189878484             0.00491530456           
       0.168093              0.0243411886             0.00591564662           
       0.168772              0.0310364077             0.00635780509           
       0.169451              0.0154338728             0.00490561976           
       0.170130              0.0194665614             0.00522301077           
       0.170809              0.0122187095             0.00436493606           
       0.171488              0.0173368254             0.00483812752           
       0.172168              0.0302801663              0.0067767496           
       0.172847              0.0130315793             0.00464054941           
       0.173526              0.0112864671             0.00402853187           
       0.174205              0.0182262004             0.00490146385           
       0.174884               0.025592597             0.00623042539           
       0.175563             0.00866151831             0.00332020167           
       0.176243              0.0159696211             0.00445742301           
       0.176922              0.0138162542             0.00440065876           
       0.177601              0.0203228846             0.00494584034           
       0.178280              0.0152166259             0.00461839989           
       0.178959              0.0148874557             0.00432832112           
       0.179638              0.0156233653             0.00453839856           
       0.180317              0.0236552626             0.00530740964           
       0.180997              0.0251611608             0.00550346941           
       0.181676              0.0126248685             0.00423385553           
       0.182355              0.0187580126             0.00470114646           
       0.183034              0.0180449318             0.00468636868           
       0.183713              0.0199180401             0.00515547618           
       0.184392              0.0126390796             0.00403457482           
       0.185072              0.0156018744             0.00453568547           
       0.185751              0.0210437106             0.00497962294           
       0.186430              0.0236182975             0.00558070299           
       0.187109              0.0129115128             0.00392153798           
       0.187788              0.0060479385             0.00275915701           
       0.188467              0.0254440039             0.00556533289           
       0.189147              0.0155996004             0.00523733765           
       0.189826              0.0225494786             0.00548603647           
       0.190505              0.0217075709             0.00500500156           
       0.191184              0.0156546779             0.00420676867           
       0.191863              0.0198539318             0.00514788428           
       0.192542              0.0127658851             0.00387892352           
       0.193222              0.0197776363             0.00444304033           
       0.193901              0.0175066598             0.00508546591           
       0.194580              0.0119626568             0.00381643708           
       0.195259              0.0149881297             0.00476960784           
       0.195938               0.015625723             0.00454000081           
       0.196617              0.0180725616              0.0046910484           
       0.197297              0.0122878438             0.00412551915           
       0.197976              0.0194597187             0.00473940662           
       0.198655              0.0210762895             0.00498459605           
       0.199334              0.0164358507             0.00426774066           
       0.200013             0.00804311964             0.00307932511           
       0.200692              0.0116218702             0.00414400163           
       0.201371               0.015291839             0.00426880433           
       0.202051              0.0131613233             0.00400361484           
       0.202730              0.0145556955             0.00423373658           
       0.203409             0.00767899719             0.00318307397           
       0.204088              0.0168321539             0.00423538301           
       0.204767              0.0214383934             0.00538312133           
       0.205446              0.0132936995             0.00404624197           
       0.206126              0.0145357263             0.00391723668           
       0.206805              0.0181240728             0.00455096573           
       0.207484              0.0172389877             0.00463369824           
       0.208163              0.0145744048             0.00423688298           
       0.208842              0.0133727861             0.00373969586           
       0.209521              0.0192031157             0.00454622404           
       0.210201              0.0106508819             0.00340237529           
       0.210880             0.00986052127             0.00376790129           
       0.211559              0.0164468353             0.00427013478           
       0.212238               0.015997241             0.00414963374           
       0.212917             0.00947121246             0.00319297823           
       0.213596              0.0233061725             0.00498466674           
       0.214276             0.00510400246             0.00261119739           
       0.214955              0.0119432886             0.00381478897           
       0.215634              0.0107755887             0.00362355047           
       0.216313              0.0106374931             0.00358068481           
       0.216992              0.0177639449             0.00460229626           
       0.217671              0.0140057436             0.00424967863           
       0.218351             0.00918080873             0.00329104951           
       0.219030              0.0179397104             0.00465026359           
       0.219709              0.0115220313             0.00387725621           
       0.220388              0.0156383912             0.00436567003           
       0.221067              0.0156658607               0.004210615           
       0.221746              0.0159544353             0.00429330831           
       0.222426              0.0136803756              0.0038196658           
       0.223105              0.0169149823             0.00454061068           
       0.223784              0.0133963817             0.00389390944           
       0.224463              0.0120181737             0.00365115474           
       0.225142               0.011105124             0.00337727951           
       0.225821               0.017005832             0.00414119502           
       0.226500              0.0208200865             0.00493070113           
       0.227180              0.0167204682             0.00420305075           
       0.227859              0.0120362176             0.00383058897           
       0.228538               0.012000528             0.00335897393           
       0.229217              0.0169604379             0.00413595465           
       0.229896              0.0197147022             0.00479835879           
       0.230575              0.0106530996             0.00340410859           
       0.231255              0.0139830912             0.00406265216           
       0.231934              0.0115882523             0.00369847699           
       0.232613             0.00890927051             0.00319241385           
       0.233292              0.0189207095             0.00475135658           
       0.233971              0.0145066817             0.00405292111           
       0.234650              0.0145308191             0.00405634239           
       0.235330             0.00603131247             0.00275787029           
       0.236009              0.0109343118             0.00350101299           
       0.236688              0.0115209193             0.00350629839           
       0.237367              0.0202347318             0.00478700825           
       0.238046              0.0193103138             0.00470049218           
       0.238725             0.00799444451             0.00286630827           
       0.239405              0.0150066906             0.00404100725           
       0.240084              0.0172815008             0.00421436935           
       0.240763              0.0087558629             0.00362404499           
       0.241442              0.0143031565             0.00385203755           
       0.242121              0.0110090054             0.00370554371           
       0.242800              0.0109827723             0.00334442893           
       0.243480              0.0209768702             0.00482565562           
       0.244159              0.0178484199             0.00411528013           
       0.244838              0.0127392931             0.00370555086           
       0.245517              0.0103431478             0.00369736614           
       0.246196              0.0176167823              0.0044225741           
       0.246875             0.00901587434             0.00322913958           
       0.247554              0.0177374451             0.00460181829           
       0.248234              0.0148379074             0.00414268915           
       0.248913              0.0149447247             0.00434251526           
       0.249592              0.0136534663             0.00381812304           
       0.250271              0.0142733722             0.00415069945           
       0.250950                0.01237484              0.0037639379           
       0.251629               0.016054365             0.00447575895           
       0.252309              0.0147069815             0.00410343487           
       0.252988              0.0136876704             0.00397930903           
       0.253667              0.0227177367             0.00523689801           
       0.254346               0.013272705             0.00371176219           
       0.255025             0.00786014095                0.00301563           
       0.255704              0.0113191812              0.0034439764           
       0.256384              0.0149470969             0.00401487968           
       0.257063              0.0118705782             0.00361322405           
       0.257742              0.0043644904             0.00224727964           
       0.258421             0.00807503983             0.00273410312           
       0.259100              0.0128001177             0.00429736116           
       0.259779              0.0129172561             0.00392817403           
       0.260459             0.00977996986             0.00312867938           
       0.261138              0.0113256843             0.00362040846           
       0.261817             0.00986994498             0.00353007747           
       0.262496                0.01452067             0.00421063438           
       0.263175              0.0102872711              0.0036670988           
       0.263854              0.0137007942             0.00398222962           
       0.264534               0.016162776             0.00419618045           
       0.265213              0.0172322061             0.00433285339           
       0.265892              0.0151691699             0.00440181285           
       0.266571              0.0170984442              0.0045948806           
       0.267250              0.0158704263             0.00442687796           
       0.267929              0.0114157154             0.00363536207           
       0.268609              0.0106952216              0.0036142084           
       0.269288             0.00883662763               0.003165748           
       0.269967             0.00651801923             0.00297237725           
       0.270646              0.0179657978              0.0045140959           
       0.271325              0.0119702278             0.00382382827           
       0.272004              0.0130097008             0.00364246109           
       0.272683             0.00799842219             0.00331315308           
       0.273363              0.0126811143             0.00385217843           
       0.274042             0.00807198645             0.00289597717           
       0.274721              0.0129031218             0.00392744292           
       0.275400             0.00924083824             0.00330600108           
       0.276079             0.00738934929             0.00307300004           
       0.276758              0.0146202521             0.00393467275           
       0.277438              0.0103851172             0.00370766017           
       0.278117              0.0155150711             0.00450513977           
       0.278796              0.0154193877             0.00429379262           
       0.279475              0.0185675799             0.00517830839           
       0.280154              0.0157013799             0.00499439716           
       0.280833              0.0113220769             0.00404379116           
       0.281513              0.0123355914             0.00508768518           
       0.282192              0.0158915655              0.0046145575           
       0.282871             0.00582711012             0.00297960176           
       0.283550              0.0128699003             0.00458811224           
       0.284229             0.00858695734             0.00389366425           
       0.284908             0.00868965301              0.0035899353           
       0.285588              0.0113716967             0.00405313512           
       0.286267              0.0178100721             0.00539771838           
       0.286946              0.0133547095             0.00510527218           
       0.287625             0.00782942057             0.00355293297           
       0.288304              0.0229072796             0.00575301576           
       0.288983              0.0154520845             0.00469470813           
       0.289663             0.00745700088             0.00339457838           
       0.290342              0.0148058187             0.00562848971           
       0.291021              0.0146551077             0.00521319753           
       0.291700              0.0121496693             0.00463239295           
       0.292379              0.0169367007             0.00491550356           
       0.293058             0.00873157118             0.00395875823           
       0.293738              0.0171824106             0.00546598173           
       0.294417              0.0151947403             0.00510051996           
       0.295096              0.0076967742             0.00391104147           
       0.295775             0.00891073522             0.00403210376           
       0.296454              0.0184057656             0.00584317729           
       0.297133              0.0189455989             0.00574011537           
       0.297812              0.0163759686             0.00474378268           
       0.298492              0.0151812172             0.00509879982           
       0.299171              0.0169211992             0.00511480825           
       0.299850              0.0053976628             0.00319127666           
       0.300529             0.00968584274             0.00371806939           
       0.301208              0.0103448218             0.00394502158           
       0.301887              0.0134420591             0.00452775731           
       0.302567              0.0184258587             0.00653752036           
       0.303246              0.0117774715             0.00449156145           
       0.303925             0.00905437146             0.00409911446           
       0.304604              0.0225697136             0.00682199005           
       0.305283              0.0121923699             0.00464222678           
       0.305962             0.00757800621             0.00384769594           
       0.306642              0.0208076378             0.00661214497           
       0.307321               0.019731383             0.00626413761           
       0.308000              0.0194823381             0.00564873609           
       0.308679             0.00378156465             0.00276724148           
       0.309358              0.0254441617             0.00768377864           
       0.310037             0.00357092886               0.002618709           
       0.310717              0.0146688378             0.00521844302           
       0.311396               0.020105797             0.00638124815           
       0.312075             0.00890166577              0.0040318595           
       0.312754              0.0109058052             0.00492932011           
       0.313433             0.00661224429             0.00336642681           
       0.314112             0.00147915599             0.00161732296           
       0.314792             0.00249088917             0.00266755861           
       0.315471              0.0143902879             0.00590381756           
       0.316150              0.0374033502             0.00973226726           
       0.316829             0.00532865438             0.00385276892           
       0.317508              0.0108635213             0.00492042383           
       0.318187               0.013073235             0.00588949405           
       0.318866             0.00887360454             0.00449232955           
       0.319546              0.0125400275             0.00631893316           
       0.320225              0.0053093319             0.00384615759           
       0.320904             0.00447777184             0.00325856822           
       0.321583              0.0060795249             0.00357561246           
       0.322262              0.0128332948             0.00576762393           
       0.322941             0.00954918299             0.00432132506           
       0.323621              0.0115829162             0.00524130541           
       0.324300           -0.000297769924                         0           
       0.324979             0.00849949399             0.00431030527           
       0.325658              0.0130937507             0.00589539061           
       0.326337             0.00243207265             0.00257164402           
       0.327016              0.0131606038             0.00541721416           
       0.327696              0.0173647669             0.00616142035           
       0.328375              0.0228407249             0.00865477959           
       0.329054              0.0262736062             0.00878047112           
       0.329733              0.0119304138             0.00537782559           
       0.330412             0.00194758329             0.00208415634           
       0.331091             0.00334338311             0.00346807833           
       0.331771              0.0130389024             0.00588410497           
       0.332450              0.0146514675             0.00738027322           
       0.333129             0.00528813964             0.00383993333           
       0.333808              0.0106074772             0.00537186658           
       0.334487              0.0153653065             0.00689984324           
       0.335166              0.0141255423             0.00635622887           
       0.335846              0.0184803156              0.0082895801           
       0.336525             0.00612591635             0.00441874394           
       0.337204             0.00660509959             0.00387791587           
       0.337883              0.0200739282             0.00638117815           
       0.338562              0.0237716571             0.00794658082           
       0.339241               0.006522523             0.00469606429           
       0.339921              0.0109101835             0.00551668289           
       0.340600              0.0151331691             0.00575415364           
       0.341279              0.0083578855             0.00489020421           
       0.341958             0.00301935065             0.00314802116           
       0.342637             0.00577405935             0.00417320494           
       0.343316             0.00577389347             0.00417322981           
       0.343995              0.0167262213             0.00637041035           
       0.344675             0.00251460804             0.00264887741           
       0.345354             0.00700077938             0.00502062113           
       0.346033              0.0137598407             0.00619656668           
       0.346712             0.00518306399             0.00375651445           
       0.347391              0.0116895702             0.00526918936           
       0.348070             0.00791922308             0.00464356779           
       0.348750             0.00835092324             0.00488930462           
       0.349429             0.00594919961             0.00429535347           
       0.350108             0.00401033619             0.00414986805           
       0.350787              0.0335660295              0.0109953443           
       0.351466              0.0145182123             0.00653152006           
       0.352145             0.00756547955             0.00443244293           
       0.352825             0.00995121685             0.00580295906           
       0.353504              0.0125177371             0.00631984799           
       0.354183             0.00905676117             0.00530056095           
       0.354862               0.010614746              0.0061840199           
       0.355541             0.00283066748             0.00296346604           
       0.356220             0.00612793351             0.00442220136           
       0.356900              0.0179235532             0.00735589697           
       0.357579               0.007459434             0.00536029646           
       0.358258             0.00311014152             0.00324471795           
       0.358937             0.00961754866             0.00562142731           
       0.359616             0.00720138988             0.00517858792           
       0.360295             0.00738276229             0.00533314852           
       0.360975             0.00397866444             0.00413489575           
       0.361654              0.0153499872             0.00690233749           
       0.362333              0.0122302777             0.00551078965           
       0.363012             0.00420739774             0.00433660018           
       0.363691             0.00774576183              0.0055599942           
       0.364370              0.0202612319              0.0101450262           
       0.365050              0.0255366287              0.0104769723           
       0.365729             0.00508186991             0.00520059258           
       0.366408             0.00387468593             0.00400494582           
       0.367087              0.0048046404             0.00349361778           
       0.367766              0.0075136055             0.00538153745           
       0.368445              0.0201735358              0.0101244238           
       0.369124              0.0109409495             0.00782009345           
       0.369804             0.00385690011             0.00399620387           
       0.370483             0.00910195131             0.00651150513           
       0.371162              0.0158654904             0.00795934121           
       0.371841             0.00838487975             0.00600484625           
       0.372520              0.0170557947             0.00856445345           
       0.373199             0.00948900933             0.00679212786           
       0.373879               0.019118823             0.00858619214           
       0.374558              0.0033442098             0.00347332538           
       0.375237             0.00808753701             0.00578783318           
       0.375916             0.00385794859             0.00399757083           
       0.376595             0.00718363876             0.00517512552           
       0.377274             0.00744528266             0.00535871872           
       0.377954             0.00805660534             0.00577728443           
       0.378633              0.0055492388             0.00571583697           
       0.379312             0.00561965079             0.00575210801           
       0.379991              0.0143373729             0.00835084706           
       0.380670             0.00722035893             0.00518907534           
       0.381349              0.0185175198               0.010728435           
       0.382029           -0.000298872466                         0           
       0.382708             0.00374217323             0.00386708612           
       0.383387             0.00993134735             0.00580308723           
       0.384066           -0.000298917522                         0           
       0.384745             0.00907316313             0.00650438696           
       0.385424              0.0170770323             0.00857357299           
       0.386104              0.0122009421             0.00711159241           
       0.386783              0.0165906817             0.00963563391           
       0.387462             0.00387919548             0.00401015451           
       0.388141              0.0277158239              0.0105261101           
       0.388820              0.0165668639             0.00962936971           
       0.389499           -0.000299029615                         0           
       0.390178              0.0145196243             0.00840671371           
       0.390858                0.02599264             0.00984893467           
       0.391537             0.00460486298             0.00473456494           
       0.392216           -0.000299087577                         0           
       0.392895             0.00562254967             0.00575633708           
       0.393574             0.00534989885              0.0054729869           
       0.394253           -0.000299132029                         0           
       0.394933              0.0110135102             0.00785300583           
       0.395612              0.0122272412             0.00712165961           
       0.396291             0.00680242875             0.00690052542           
       0.396970           -0.000299190065                         0           
       0.397649             0.00830919457             0.00846132526           
       0.398328             0.00378987068             0.00389380892           
       0.399008              0.0231713843              0.0103997474           
       0.399687             0.00958646943             0.00683327342           
       0.400366             0.00423391859             0.00435586663           
       0.401045            -0.00029927847                         0           
       0.401724             0.00674324568              0.0068717768           
       0.402403           -0.000299307902                         0           
       0.403083              0.0185911569             0.00931672863           
       0.403762              0.0051357186             0.00523503159           
       0.404441              0.0184101012             0.00927174051           
       0.405120             0.00532937054             0.00546476365           
       0.405799             0.00953984942             0.00681813112           
       0.406478           -0.000299397752                         0           
       0.407158           -0.000299411652                         0           
       0.407837             0.00392576471             0.00411402585           
       0.408516           -0.000299442974                         0           
       0.409195              0.0050893889             0.00521239989           
       0.409874           -0.000299473829                         0           
       0.410553           -0.000299488355                         0           
       0.411233             0.00779682601              0.0079020959           
       0.411912              0.0122516352             0.00873613765           
       0.412591              0.0122399443               0.008732192           
       0.413270           -0.000299549211                         0           
       0.413949           -0.000299563394                         0           
       0.414628             0.00635372963              0.0064743148           
       0.415307              0.0157980328              0.0112499822           
       0.415987             0.00634862512             0.00647203605           
       0.416666           -0.000299628835                         0           
       0.417345              0.0336039597              0.0194152138           
       0.418024             0.00781625553             0.00791397995           
       0.418703             0.00633548437             0.00646601468           
       0.419382              0.0159702538              0.0159987584           
       0.420062             0.00774075687             0.00787625036           
       0.420741               0.014806149              0.0105239785           
       0.421420              0.0116227791             0.00828501805           
       0.422099              0.0222369317              0.0223397856           
       0.422778             0.00510656215             0.00522386317           
       0.423457           -0.000299780969                         0           
       0.424137           -0.000299797027                         0           
       0.424816              0.0209120005              0.0121118268           
       0.425495             0.00908845912             0.00922013384           
       0.426174           -0.000299844059                         0           
       0.426853            -0.00029985797                         0           
       0.427532              0.0185176106              0.0131619063           
       0.428212           -0.000299892064                         0           
       0.428891              0.0480817687              0.0277702835           
       0.429570              0.0240200154              0.0138794979           
       0.430249              0.0304909784                0.01764214           
       0.430928           -0.000299952346                         0           
       0.431607              0.0129539242             0.00925045078           
       0.432287           -0.000299986506                         0           
       0.432966             0.00837956896             0.00850843277           
       0.433645             0.00912216879             0.00924013975           
       0.434324              0.0122633664              0.0123713297           
       0.435003           -0.000300049345                         0           
       0.435682             0.00776477341             0.00789326412           
       0.436361              0.0099857347              0.0100986071           
       0.437041           -0.000300100737                         0           
       0.437720              0.0122470675              0.0123647046           
       0.438399           -0.000300130565                         0           
       0.439078              0.0188145982              0.0187709709           
       0.439757           -0.000300163125                         0           
       0.440436              0.0283885902              0.0282411473           
       0.441116              0.0554781829              0.0279168045           
       0.441795           -0.000300211865                         0           
       0.442474              0.0307389517              0.0177223504           
       0.443153           -0.000300244669                         0           
       0.443832           -0.000300261648                         0           
       0.444511           -0.000300280058                         0           
       0.445191             0.00997980006              0.0100991746           
       0.445870           -0.000300313792                         0           
       0.446549           -0.000300325911                         0           
       0.447228              0.0122791393              0.0123856496           
       0.447907           -0.000300362395                         0           
       0.448586           -0.000300381781                         0           
       0.449266              0.0222679643              0.0158246944           
       0.449945           -0.000300408717                         0           
       0.450624               0.119379484              0.0349370255           
       0.451303              0.0185725866               0.018659122           
       0.451982              0.0564267571              0.0398339583           
       0.452661           -0.000300474704                         0           
       0.453341           -0.000300495381                         0           
       0.454020           -0.000300510918                         0           
       0.454699              0.0561244866              0.0561885433           
       0.455378              0.0380759549              0.0377891168           
       0.456057           -0.000300564277                         0           
       0.456736           -0.000300581991                         0           
       0.457416           -0.000300595958                         0           
       0.458095              0.0279483441               0.028041319           
       0.458774           -0.000300631712                         0           
       0.459453           -0.000300648048                         0           
       0.460132            -0.00030066445                         0           
       0.460811           -0.000300682892                         0           
       0.461490           -0.000300699639                         0           
       0.462170              0.0185925994              0.0186774864           
       0.462849           -0.000300735133                         0           
       0.463528           -0.000300746012                         0           
       0.464207           -0.000300765342                         0           
       0.464886           -0.000300777511                         0           
       0.465565           -0.000300803363                         0           
       0.466245               0.114288212               0.113450622           
       0.466924              0.0280735975              0.0281144416           
       0.467603           -0.000300857409                         0           
       0.468282           -0.000300869738                         0           
       0.468961           -0.000300892164                         0           
       0.469640           -0.000300906418                         0           
       0.470320                       nan                       nan           
       0.470999              0.0279984478              0.0280819732           
       0.471678           -0.000300960203                         0           
       0.472357           -0.000300971706                         0           
       0.473036           -0.000300993151                         0           
       0.473715              0.0280051279              0.0280883179           
       0.474395           -0.000301026988                         0           
       0.475074                       nan                       nan           
       0.475753           -0.000301062354                         0           
       0.476432           -0.000301084547                         0           
       0.477111           -0.000301102763                         0           
       0.477790                       nan                       nan           
       0.478470           -0.000301140018                         0           
       0.479149           -0.000301154037                         0           
       0.479828           -0.000301174027                         0           
       0.480507            -0.00030118878                         0           
       0.481186           -0.000301208836                         0           
       0.481865           -0.000301224187                         0           
       0.482545           -0.000301242247                         0           
       0.483224           -0.000301257545                         0           
       0.483903                       nan                       nan           
       0.484582                       nan                       nan           
       0.485261             -0.0003013157                         0           
