################################################################################
# EDF_DataBlockID                     0.Image.Psd
# EDF_BinarySize                      2105344
# EDF_HeaderSize                      2560
# ByteOrder                           LowByteFirst
# DataType                            FloatValue
# Dim_1                               512
# Dim_2                               1028
# Image                               0
# HeaderID                            EH:000000:000000:000000
# Size                                2105344
# Center_1                            304.9000
# Center_2                            588.7000
# Comment                             Xenocs_Cell_Window - front_window_open_only
# DDummy                              0.6
# Date                                2025-10-17T19:34:02
# Delta                               21.910000
# Dummy                               -1.5
# ExposureTime                        360
# Gamma                               15.360000
# Intensity1                          9.8906e-10
# PSize_1                             7.5e-05
# PSize_2                             7.5e-05
# Pressure                            0.0395308
# SampleDistance                      0.115750
# SampleEnvKind                       large
# SampleEnvPN                         ElectroChemical cell
# SampleEnvSN                         1141
# Thickness                           0
# Wavelength                          1.541891e-10
# Wavelength                          1.54189e-10
# aux                                 0
# aux_dial                            0.002375
# beamx                               588.429
# beamx_dial                          588.429
# beamz                               657.855
# beamz_dial                          657.855
# det0x                               -0.000396875
# det0x_dial                          6.36905
# det0xvd                             -0.0005
# det0xvd_dial                        -0.0005
# det0y                               450.002
# det0y_dial                          481.635
# det0z                               0
# det0z_dial                          1.2295
# det0zvd                             0
# det0zvd_dial                        0
# mag                                 1.818
# mag_dial                            1.818
# om                                  0.2499
# om_dial                             -0.610199
# phi                                 -0.0120535
# phi_dial                            0
# ry                                  0.599993
# ry_dial                             0.599993
# s1bot                               0.8
# s1bot_dial                          -1.66094
# s1hl                                0.8
# s1hl_dial                           -0.608437
# s1hr                                0.8
# s1hr_dial                           0.970938
# s1top                               0.8
# s1top_dial                          -0.461562
# s2bot                               0.45
# s2bot_dial                          1.36109
# s2hl                                0.45
# s2hl_dial                           -0.83375
# s2hr                                0.45
# s2hr_dial                           -0.118594
# s2top                               0.45
# s2top_dial                          1.44734
# w2theta                             32
# w2theta_dial                        32
# waxsch                              19.2605
# waxsch_dial                         -32.7238
# waxsh                               137.085
# waxsh_dial                          -43.5335
# waxsth                              26.0607
# waxsth_dial                         -19.4068
# waxsz                               67.0407
# waxsz_dial                          -23.7962
# wind                                65.9854
# wind_dial                           66.0041
# wpsi                                124
# wpsi_dial                           124
# wstod                               115
# wstod_dial                          115
# x                                   0
# x_dial                              1.00969
# z                                   0
# z_dial                              13.3172
# CountCutoff                         6807993
# DetectorModel                       Dectris EIGER2 Si 500K, S/N E-01-0554
# ThresholdSetting                    4023.88989258
# Saturation                          0
# FlatField                           Corrected
# BackgroundReductionExtra            0.02
# BackgroundCorrectionConstant        0.0026712
# Detector                            0
# Monitor                             0
# Pil_Roi0                            0
# SumForIntensity1                    3.56062e+08
# TransmittedFlux                     989060
# det                                 0
# mon                                 0
# pilai0                              3.56062e+08
# pilai1                              772213
# pilct0                              6.12242e+08
# pilct1                              772213
# pilroi0                             0
# pilroi1                             0
# sec                                 1
# title                               20251017__1_00013.edf
# usaxs0                              0
# Operation                           Azimuthal average I(q)
# Error_model                         ErrorModel.poisson
# Geometrical_correction              True
# Transmission_correction             True
# Thickness_correction                False
# Binning mode                        Uniform
# Binning factor                      1.0
# Psi                                 0.0
# Omega                               0.2499
# MaskInvalidPixels                   True
# DetectorEdge                        3
# MaskFiles                           ['20251017__1_00233_mask.edf']
################################################################################
    q(A⁻¹)                Intensity(a.u.)            Sigma_I(a.u.)            
       0.690460             0.00697288147             0.00732149414           
       0.693100              0.0057157666             0.00296359305           
       0.695741             0.00520917505             0.00239018723           
       0.698381               0.012902677             0.00351830532           
       0.701021             0.00680289028             0.00208499593           
       0.703662             0.00956121679             0.00228800726           
       0.706302             0.00399577901             0.00142849064           
       0.708942             0.00667869823             0.00164046325           
       0.711583             0.00509113819             0.00143201805           
       0.714223             0.00537476772             0.00128216856           
       0.716864             0.00657319821             0.00144692274           
       0.719504             0.00649267245             0.00133090052           
       0.722144             0.00651587185             0.00128767364           
       0.724785             0.00536979866             0.00114979772           
       0.727425             0.00435719125            0.000960690778           
       0.730065             0.00704727328             0.00125713647           
       0.732706             0.00503496846            0.000955538288           
       0.735346             0.00713315605             0.00122852194           
       0.737987             0.00532156627            0.000918437774           
       0.740627             0.00620495835             0.00108644372           
       0.743267             0.00654574874            0.000959849164           
       0.745908             0.00514777441            0.000912254955           
       0.748548              0.0042896145            0.000776686607           
       0.751189             0.00518433627            0.000845808976           
       0.753829             0.00629385488            0.000940338407           
       0.756469             0.00542541111            0.000821149381           
       0.759110             0.00673137604            0.000946065844           
       0.761750             0.00643531625            0.000846588886           
       0.764390             0.00647983385            0.000911904416           
       0.767031             0.00687213285            0.000849779031           
       0.769671             0.00764815229            0.000950741952           
       0.772312             0.00612229075            0.000775153285           
       0.774952             0.00692001464            0.000883487556           
       0.777592             0.00711296955            0.000819270816           
       0.780233             0.00499638776            0.000723863915           
       0.782873             0.00531522343            0.000682729073           
       0.785513              0.0054218758            0.000733511311           
       0.788154             0.00590221954            0.000702950498           
       0.790794             0.00683415006            0.000782866329           
       0.793435             0.00566751341            0.000684753988           
       0.796075              0.0058148428            0.000697261633           
       0.798715              0.0061491137             0.00071292958           
       0.801356             0.00700054548            0.000740330227           
       0.803996             0.00625835773            0.000711172764           
       0.806637             0.00682293015            0.000701913354           
       0.809277             0.00567057077            0.000669438707           
       0.811917             0.00600173463            0.000651718976           
       0.814558             0.00826364596            0.000783416251           
       0.817198             0.00577137677            0.000624262888           
       0.819838             0.00665059786            0.000699015862           
       0.822479             0.00627282728            0.000625617871           
       0.825119             0.00713393886            0.000716721297           
       0.827760             0.00628179025            0.000623190584           
       0.830400              0.0065526588            0.000670617193           
       0.833040             0.00534004179            0.000565005239           
       0.835681             0.00618204967            0.000636621796           
       0.838321             0.00616564857            0.000595075227           
       0.840961             0.00641665151            0.000634533035           
       0.843602             0.00619247535             0.00058717123           
       0.846242             0.00586318957            0.000591518767           
       0.848883             0.00656525373            0.000608891474           
       0.851523             0.00582273242            0.000577723647           
       0.854163             0.00572962043            0.000566427893           
       0.856804             0.00667159845            0.000595579448           
       0.859444             0.00638989927            0.000587060816           
       0.862085             0.00756148473              0.0006293262           
       0.864725             0.00738189661            0.000619525048           
       0.867365             0.00729023701            0.000611257693           
       0.870006             0.00671387963            0.000594781906           
       0.872646               0.006799928            0.000572530555           
       0.875286             0.00579325079            0.000546460715           
       0.877927             0.00670024644            0.000562682341           
       0.880567             0.00689264828            0.000581853179           
       0.883208             0.00669023663            0.000556690699           
       0.885848             0.00753337739            0.000606048241           
       0.888488             0.00670206414             0.00054351948           
       0.891129             0.00701002941            0.000584315399           
       0.893769             0.00649739629            0.000531744584           
       0.896410             0.00750402407            0.000589055674           
       0.899050             0.00572935048            0.000496280489           
       0.901690             0.00663632813            0.000545268531           
       0.904331             0.00730582904             0.00055213818           
       0.906971             0.00584376732            0.000509905616           
       0.909611             0.00672435853            0.000525005607           
       0.912252             0.00712588549            0.000549818025           
       0.914892             0.00737530421            0.000545189717           
       0.917533             0.00662252165            0.000528274795           
       0.920173             0.00726393676             0.00053071997           
       0.922813              0.0079163844            0.000578983982           
       0.925454               0.007133704            0.000521619842           
       0.928094             0.00588695759            0.000484022332           
       0.930734             0.00727733656            0.000525310105           
       0.933375             0.00728330461            0.000536728276           
       0.936015             0.00648201102             0.00048447778           
       0.938656             0.00756257531            0.000545254024           
       0.941296             0.00611300398            0.000472570994           
       0.943936             0.00659205319            0.000499576511           
       0.946577             0.00632027433             0.00047110074           
       0.949217             0.00679798043            0.000505834904           
       0.951858             0.00727728724            0.000494778877           
       0.954498             0.00722627027              0.0005187011           
       0.957138             0.00771500838            0.000515132201           
       0.959779             0.00661356643             0.00048737721           
       0.962419              0.0066930182            0.000472005827           
       0.965059              0.0077924364            0.000523765551           
       0.967700              0.0062264744            0.000453048958           
       0.970340             0.00754222435            0.000512635858           
       0.972981             0.00771277471            0.000500529628           
       0.975621             0.00684515517            0.000481410526           
       0.978261             0.00750367175             0.00048091276           
       0.980902             0.00703352131            0.000487772786           
       0.983542             0.00670495299            0.000462376599           
       0.986182             0.00687822308            0.000474480218           
       0.988823             0.00710931216            0.000466820544           
       0.991463             0.00646837486            0.000455916102           
       0.994104             0.00687045637             0.00045403445           
       0.996744             0.00645754137            0.000454453783           
       0.999384             0.00636917191            0.000436015113           
       1.002025             0.00801683246            0.000502791814           
       1.004665              0.0072581937            0.000458814225           
       1.007306             0.00743208994            0.000479835018           
       1.009946             0.00776245194            0.000471519273           
       1.012586             0.00750888427            0.000477094135           
       1.015227             0.00767054185            0.000467606424           
       1.017867             0.00754471466             0.00047704495           
       1.020507             0.00687446708            0.000438220248           
       1.023148             0.00744230728            0.000461467273           
       1.025788             0.00746782792            0.000457524408           
       1.028429             0.00699866873             0.00045260209           
       1.031069             0.00753154022            0.000452355766           
       1.033709             0.00660060061            0.000431609124           
       1.036350             0.00717144475            0.000438088843           
       1.038990              0.0070064906             0.00044371152           
       1.041630             0.00733175398            0.000445161681           
       1.044271             0.00744279572            0.000448570434           
       1.046911             0.00814007092             0.00046039614           
       1.049552             0.00694843961             0.00044069361           
       1.052192             0.00755526118            0.000438869629           
       1.054832              0.0084602978            0.000473443647           
       1.057473             0.00780192585            0.000448893433           
       1.060113             0.00768967828            0.000450478419           
       1.062754             0.00741613815            0.000437500668           
       1.065394             0.00841548976            0.000461143351           
       1.068034             0.00827791494            0.000455587809           
       1.070675             0.00739799095             0.00043826909           
       1.073315             0.00781279518            0.000436621469           
       1.075955             0.00782125566            0.000444184521           
       1.078596             0.00723437273            0.000426350069           
       1.081236             0.00811894445            0.000444965088           
       1.083877             0.00734346516            0.000436401174           
       1.086517             0.00738001639             0.00042758937           
       1.089157             0.00794244072            0.000446835573           
       1.091798             0.00784368758            0.000434640805           
       1.094438              0.0074310901            0.000429778422           
       1.097078             0.00798152623            0.000433965422           
       1.099719             0.00823527537            0.000452107278           
       1.102359              0.0082043011            0.000427483772           
       1.105000             0.00858717564             0.00045456909           
       1.107640             0.00775829762            0.000417989261           
       1.110280             0.00842461958            0.000444290714           
       1.112921             0.00796543282             0.00042419598           
       1.115561             0.00841958208            0.000441655789           
       1.118202             0.00891170381            0.000441117928           
       1.120842             0.00837025709            0.000440977277           
       1.123482             0.00849641096            0.000431824958           
       1.126123             0.00788818798            0.000418678401           
       1.128763             0.00811502329            0.000422549294           
       1.131403             0.00828778537            0.000426359645           
       1.134044             0.00780484108             0.00041303269           
       1.136684             0.00809177033            0.000423716873           
       1.139325             0.00762640722            0.000399762303           
       1.141965             0.00803651688            0.000415737162           
       1.144605             0.00837382432            0.000426864815           
       1.147246             0.00754396979            0.000397488434           
       1.149886             0.00878423035            0.000431970515           
       1.152527             0.00801824318            0.000413120563           
       1.155167             0.00824969024            0.000413148805           
       1.157807             0.00909421524            0.000434079609           
       1.160448              0.0082858708            0.000420008149           
       1.163088             0.00850591793             0.00040976094           
       1.165728             0.00810422696            0.000416454418           
       1.168369              0.0091918487            0.000427686469           
       1.171009             0.00784149458            0.000398299106           
       1.173650             0.00829000361            0.000406578275           
       1.176290             0.00859161664            0.000418765088           
       1.178930              0.0084793086            0.000404324303           
       1.181571             0.00817744802            0.000410030847           
       1.184211             0.00911009994            0.000419711315           
       1.186851             0.00942248261            0.000430782312           
       1.189492             0.00920107176            0.000428054795           
       1.192132             0.00884076721            0.000413375781           
       1.194773              0.0087753598            0.000409359106           
       1.197413             0.00851841127            0.000406611476           
       1.200053             0.00820397922             0.00039652585           
       1.202694             0.00883281141            0.000408341569           
       1.205334             0.00871071042            0.000409942214           
       1.207975             0.00936252067            0.000416675884           
       1.210615              0.0101066878            0.000442073316           
       1.213255             0.00959433374            0.000419327354           
       1.215896             0.00948079574            0.000424740051           
       1.218536             0.00863288592            0.000393628398           
       1.221176             0.00874334513            0.000405594019           
       1.223817             0.00909467812            0.000405043004           
       1.226457             0.00894150586             0.00040671887           
       1.229098             0.00877200253            0.000396733855           
       1.231738             0.00847984891            0.000395564058           
       1.234378             0.00908794519            0.000401544851           
       1.237019             0.00896991703            0.000402146559           
       1.239659             0.00896490023            0.000401816562           
       1.242299             0.00887993212            0.000397863386           
       1.244940             0.00968182689            0.000410955147           
       1.247580              0.0096694234            0.000412505212           
       1.250221             0.00936359739            0.000412555561           
       1.252861             0.00940347983            0.000398030162           
       1.255501             0.00913172921            0.000403311138           
       1.258142             0.00942313433            0.000401596035           
       1.260782             0.00936388227            0.000404853452           
       1.263423             0.00950998573             0.00039991646           
       1.266063             0.00987333836            0.000415079712           
       1.268703             0.00888784311            0.000383897628           
       1.271344             0.00979315939             0.00041175232           
       1.273984             0.00904661445            0.000389569138           
       1.276624              0.0102942079            0.000413028505           
       1.279265             0.00974966731            0.000402833545           
       1.281905             0.00989972667            0.000408423783           
       1.284546              0.0105810546            0.000417631625           
       1.287186              0.0113617089            0.000433179358           
       1.289826             0.00965950112            0.000401485223           
       1.292467             0.00991512635            0.000399502964           
       1.295107             0.00971643584            0.000402450759           
       1.297747             0.00934884549            0.000384410154           
       1.300388               0.010003241            0.000407847483           
       1.303028              0.0104130284            0.000405535938           
       1.305669              0.0101385608            0.000405325673           
       1.308309              0.0102093344            0.000400622202           
       1.310949             0.00983193234            0.000398047878           
       1.313590             0.00978556691            0.000390962645           
       1.316230             0.00978100055            0.000397907119           
       1.318871             0.00985108178            0.000390715116           
       1.321511             0.00971157049            0.000389882674           
       1.324151             0.00998489134            0.000396893132           
       1.326792              0.0104233674            0.000402229188           
       1.329432              0.0099635084            0.000395307656           
       1.332072              0.0105439832            0.000399686749           
       1.334713             0.00997961753             0.00039366544           
       1.337353             0.00996141236            0.000387256238           
       1.339994               0.010520032            0.000403634937           
       1.342634              0.0105592405            0.000395282695           
       1.345274              0.0116473932            0.000420578136           
       1.347915              0.0109392607            0.000408676228           
       1.350555              0.0113776142            0.000415155667           
       1.353195              0.0100020951            0.000381805459           
       1.355836              0.0110755859              0.0004093529           
       1.358476              0.0103987482            0.000395532235           
       1.361117              0.0103300723            0.000384334503           
       1.363757              0.0105918723            0.000402071732           
       1.366397              0.0105565961             0.00038890164           
       1.369038              0.0102235235            0.000390783925           
       1.371678              0.0107169992            0.000392025129           
       1.374319             0.00975870735            0.000377054652           
       1.376959               0.010514425            0.000385993937           
       1.379599              0.0103205658            0.000389873112           
       1.382240             0.00990400597            0.000374669921           
       1.384880              0.0105006933            0.000390527975           
       1.387520             0.00985457237            0.000373899119           
       1.390161              0.0100908163            0.000377325971           
       1.392801              0.0100789301            0.000379351285           
       1.395442              0.0103292093              0.0003800533           
       1.398082              0.0102428165            0.000379755726           
       1.400722               0.010315164             0.00037937289           
       1.403363              0.0104743718            0.000385836932           
       1.406003              0.0105615836            0.000377926235           
       1.408644              0.0100892599            0.000377133618           
       1.411284              0.0101134319            0.000375514372           
       1.413924              0.0104933176            0.000377784336           
       1.416565              0.0106496216            0.000380140197           
       1.419205             0.00994241167            0.000370919496           
       1.421845              0.0100282111            0.000367833325           
       1.424486             0.00987628619             0.00036664794           
       1.427126              0.0106310972            0.000380160824           
       1.429767              0.0101453815            0.000365652032           
       1.432407              0.0103539012            0.000378696045           
       1.435047              0.0103014374             0.00036638421           
       1.437688              0.0101843768            0.000372363859           
       1.440328              0.0103134088            0.000367453779           
       1.442968              0.0102882801            0.000372086297           
       1.445609              0.0104946726            0.000369618778           
       1.448249             0.00996038322            0.000362415408           
       1.450890               0.010725189            0.000373389371           
       1.453530              0.0102751592            0.000368178795           
       1.456170               0.009897336            0.000360532811           
       1.458811             0.00983488618            0.000356534312           
       1.461451              0.0102907199            0.000367384065           
       1.464092             0.00991053014            0.000357391064           
       1.466732              0.0106484017            0.000368184487           
       1.469372              0.0100469013            0.000356535114           
       1.472013             0.00931176099            0.000349384301           
       1.474653              0.0106600751            0.000364593991           
       1.477293              0.0104526793            0.000367106877           
       1.479934              0.0105542216            0.000365024767           
       1.482574              0.0103359172            0.000360338435           
       1.485215              0.0105243454             0.00036454445           
       1.487855              0.0103538131            0.000361504229           
       1.490495              0.0100082699            0.000354655715           
       1.493136              0.0104528451            0.000357693993           
       1.495776              0.0102987981             0.00036123862           
       1.498416             0.00996062553            0.000348356619           
       1.501057              0.0106378887            0.000363101473           
       1.503697              0.0103959173            0.000355496951           
       1.506338              0.0100823192            0.000352668642           
       1.508978              0.0100052049             0.00034924307           
       1.511618              0.0100704917            0.000350203598           
       1.514259              0.0103800166              0.0003561869           
       1.516899             0.00960035493            0.000342708408           
       1.519540             0.00966834216            0.000342011206           
       1.522180              0.0100015723            0.000343511049           
       1.524820              0.0100511669            0.000351316937           
       1.527461             0.00961068219            0.000335933008           
       1.530101             0.00981800093            0.000343047576           
       1.532741              0.0100349658            0.000345174141           
       1.535382             0.00998499998            0.000345071986           
       1.538022             0.00996448971            0.000341667489           
       1.540663              0.0102183885            0.000349262995           
       1.543303              0.0104401288            0.000348638946           
       1.545943              0.0106345754             0.00035384266           
       1.548584              0.0100187925             0.00034527434           
       1.551224              0.0104748367            0.000343994089           
       1.553864              0.0100715876            0.000346119375           
       1.556505              0.0098355801            0.000336778426           
       1.559145              0.0098554172            0.000337897224           
       1.561786             0.00979891976            0.000335400943           
       1.564426             0.00990618392            0.000336927082           
       1.567066              0.0101157051            0.000337814111           
       1.569707              0.0100703797            0.000341936162           
       1.572347             0.00987091324            0.000334140621           
       1.574988             0.00945036567            0.000325651755           
       1.577628             0.00923963094            0.000329250185           
       1.580268             0.00931582065            0.000319195784           
       1.582909             0.00902270609            0.000320009619           
       1.585549             0.00933268157            0.000322418645           
       1.588189             0.00872444754            0.000315217006           
       1.590830             0.00935984362            0.000320889355           
       1.593470             0.00921000246            0.000320909857           
       1.596111             0.00950048227            0.000323114967           
       1.598751              0.0094765595            0.000326006862           
       1.601391             0.00903214459            0.000316235947           
       1.604032             0.00922092975             0.00031685546           
       1.606672             0.00879274579            0.000315638698           
       1.609312              0.0089115398            0.000308308639           
       1.611953             0.00888107106            0.000312241606           
       1.614593             0.00885515777            0.000309414385           
       1.617234             0.00877878732            0.000309823539           
       1.619874             0.00827550492            0.000297272658           
       1.622514             0.00889522752            0.000310928352           
       1.625155             0.00945297181            0.000319735322           
       1.627795             0.00903837839            0.000309485823           
       1.630436             0.00899635839            0.000311869108           
       1.633076             0.00862189396            0.000303758331           
       1.635716             0.00902608417            0.000310254817           
       1.638357             0.00873289397            0.000303877691           
       1.640997             0.00882354108            0.000307839478           
       1.643637             0.00841185556            0.000294990832           
       1.646278             0.00826420903            0.000296767113           
       1.648918             0.00856037881            0.000298144132           
       1.651559             0.00860590901            0.000302694537           
       1.654199             0.00946362558            0.000313069531           
       1.656839             0.00844339149             0.00029563343           
       1.659480             0.00841317277            0.000297702973           
       1.662120               0.008588882            0.000296764903           
       1.664761             0.00877788034            0.000303260573           
       1.667401             0.00885115389            0.000301686775           
       1.670041             0.00872671136            0.000299901297           
       1.672682             0.00839335236            0.000291349833           
       1.675322              0.0087713083            0.000303103447           
       1.677962             0.00809342178            0.000285373001           
       1.680603             0.00878243265            0.000299910415           
       1.683243             0.00859027938            0.000294417111           
       1.685884             0.00860463537            0.000295784319           
       1.688524              0.0080795535            0.000285811031           
       1.691164             0.00839152922            0.000290528113           
       1.693805             0.00847064838            0.000294254957           
       1.696445             0.00834345143            0.000287984014           
       1.699085             0.00829124278             0.00028822772           
       1.701726             0.00882884551            0.000293556518           
       1.704366             0.00845371974            0.000294241915           
       1.707007             0.00872282357            0.000292510374           
       1.709647             0.00807150507            0.000284874041           
       1.712287             0.00808222757            0.000280299237           
       1.714928              0.0082131993            0.000285402467           
       1.717568             0.00806452782            0.000280206971           
       1.720209             0.00795326348            0.000279985615           
       1.722849             0.00845576441            0.000289158028           
       1.725489             0.00844377154            0.000284347321           
       1.728130             0.00833113731            0.000288194142           
       1.730770             0.00836672698            0.000282704338           
       1.733410             0.00803122976            0.000280614347           
       1.736051             0.00806158225            0.000276780216           
       1.738691             0.00845795956            0.000286396786           
       1.741332              0.0080719616            0.000278062987           
       1.743972             0.00832140454            0.000282431421           
       1.746612             0.00812954165            0.000279220708           
       1.749253             0.00774522512            0.000273718671           
       1.751893             0.00848492343             0.00028477245           
       1.754533             0.00787612152            0.000270600328           
       1.757174             0.00853293862            0.000286923619           
       1.759814             0.00779436928             0.00027004456           
       1.762455              0.0079719674            0.000275428827           
       1.765095             0.00816997171             0.00027491268           
       1.767735             0.00778625889             0.00027293963           
       1.770376              0.0082000281            0.000275850148           
       1.773016             0.00871687374             0.00028485956           
       1.775657             0.00777063714            0.000269505477           
       1.778297             0.00805305035            0.000275701346           
       1.780937             0.00790253527            0.000271838236           
       1.783578             0.00851014325            0.000280770602           
       1.786218             0.00801406232            0.000276812121           
       1.788858             0.00818234803            0.000272754083           
       1.791499             0.00815944569            0.000277391957           
       1.794139             0.00849880052            0.000277873876           
       1.796780             0.00814690284             0.00027367684           
       1.799420             0.00835755652            0.000276839567           
       1.802060             0.00863104281            0.000277872429           
       1.804701             0.00837482898            0.000277389157           
       1.807341             0.00854569014            0.000277496972           
       1.809981             0.00844509521             0.00027769092           
       1.812622             0.00828511194            0.000273549531           
       1.815262             0.00812884399            0.000271923619           
       1.817903             0.00831362359            0.000271599393           
       1.820543              0.0082901164            0.000274567376           
       1.823183             0.00853206379            0.000274253354           
       1.825824             0.00822438433            0.000273312211           
       1.828464             0.00837264198            0.000274918558           
       1.831105             0.00783209494            0.000266925385           
       1.833745              0.0076346158            0.000263374266           
       1.836385             0.00761227704            0.000261965821           
       1.839026             0.00731138358            0.000260595567           
       1.841666             0.00794272203            0.000268087029           
       1.844306             0.00772661337            0.000267752915           
       1.846947             0.00842270538            0.000275961329           
       1.849587              0.0076981834             0.00026740359           
       1.852228              0.0074988211            0.000261111368           
       1.854868              0.0078226842            0.000271581565           
       1.857508             0.00765482564            0.000263691361           
       1.860149             0.00745012705            0.000262226928           
       1.862789             0.00798110361            0.000272611645           
       1.865429             0.00753781492              0.0002657315           
       1.868070             0.00779657028            0.000269320137           
       1.870710             0.00755940151            0.000265914399           
       1.873351             0.00768128978            0.000269760889           
       1.875991              0.0073394955             0.00026511721           
       1.878631             0.00768519923            0.000268767604           
       1.881272             0.00817579502            0.000276564121           
       1.883912             0.00796357355            0.000276152212           
       1.886553             0.00820253474            0.000276902896           
       1.889193             0.00764739875            0.000270457096           
       1.891833             0.00790688247            0.000271877706           
       1.894474             0.00821175645            0.000279262533           
       1.897114             0.00721241711             0.00025968881           
       1.899754              0.0080234015             0.00027697178           
       1.902395             0.00788282082            0.000274593127           
       1.905035             0.00770630269            0.000270437279           
       1.907676             0.00788481826             0.00027386969           
       1.910316             0.00767259706            0.000271881502           
       1.912956             0.00716649416            0.000262751123           
       1.915597             0.00795854704            0.000274003835           
       1.918237              0.0079156167            0.000277411903           
       1.920878             0.00739064057             0.00026331098           
       1.923518             0.00748080391            0.000271950613           
       1.926158              0.0074919405            0.000265899156           
       1.928799             0.00802467938            0.000278847493           
       1.931439             0.00726795369            0.000263247676           
       1.934079             0.00770624763            0.000273814141           
       1.936720             0.00743073779            0.000267292432           
       1.939360             0.00768298166            0.000274410801           
       1.942001              0.0075580395            0.000271123359           
       1.944641             0.00789041318             0.00027582699           
       1.947281             0.00752602372            0.000270684166           
       1.949922              0.0073073875            0.000267057243           
       1.952562             0.00700137448            0.000263655046           
       1.955202             0.00763838451            0.000268469057           
       1.957843             0.00769098241            0.000277949503           
       1.960483             0.00713537614            0.000263451249           
       1.963124             0.00703098274             0.00026132302           
       1.965764             0.00785634092            0.000276334466           
       1.968404             0.00776010188            0.000279547817           
       1.971045             0.00697872704            0.000258455151           
       1.973685             0.00762110052            0.000275128597           
       1.976326             0.00756697732            0.000272954651           
       1.978966             0.00741896644             0.00027155088           
       1.981606             0.00771082815            0.000273913009           
       1.984247             0.00746794386            0.000271914999           
       1.986887             0.00722647769             0.00026998447           
       1.989527             0.00754328217            0.000270092308           
       1.992168             0.00753265284            0.000276413873           
       1.994808             0.00718562027            0.000266831363           
       1.997449             0.00731928544            0.000268906768           
       2.000089             0.00773505954            0.000274811174           
       2.002729             0.00755841045            0.000277879876           
       2.005370             0.00722806307            0.000266573914           
       2.008010             0.00732572052            0.000271931738           
       2.010650             0.00693338706            0.000263793008           
       2.013291             0.00770073531            0.000279589988           
       2.015931             0.00684272728            0.000261668026           
       2.018572              0.0070309733            0.000268765621           
       2.021212             0.00732113679            0.000271794077           
       2.023852             0.00700930798            0.000267339892           
       2.026493             0.00761940727            0.000277510477           
       2.029133             0.00712115872             0.00026623701           
       2.031774             0.00711445934             0.00026869241           
       2.034414             0.00737942135            0.000272016999           
       2.037054             0.00726949787            0.000273387706           
       2.039695             0.00709833311            0.000264828742           
       2.042335             0.00734208392            0.000273921861           
       2.044975             0.00759966836            0.000276458189           
       2.047616             0.00747511508            0.000275358243           
       2.050256             0.00694410492            0.000262275913           
       2.052897             0.00757695293            0.000282080649           
       2.055537              0.0071251947            0.000266084396           
       2.058177             0.00762289104             0.00027765167           
       2.060818             0.00771308602            0.000280127912           
       2.063458             0.00722144967            0.000271426501           
       2.066098             0.00718894975            0.000269613224           
       2.068739             0.00748892654            0.000278050099           
       2.071379             0.00795924379            0.000282415042           
       2.074020             0.00754334814            0.000278702464           
       2.076660             0.00752636046            0.000276501417           
       2.079300             0.00741091976            0.000274332957           
       2.081941             0.00768615921            0.000281079326           
       2.084581             0.00661882877            0.000261027563           
       2.087222             0.00734798652            0.000275217299           
       2.089862              0.0068889615              0.0002631609           
       2.092502              0.0072171789            0.000274251175           
       2.095143             0.00726999614             0.00027131899           
       2.097783             0.00717764013            0.000273692401           
       2.100423             0.00732635535            0.000271211183           
       2.103064             0.00746736592            0.000278536262           
       2.105704              0.0070923002            0.000270412614           
       2.108345             0.00700293394            0.000269937166           
       2.110985             0.00672204778            0.000260753503           
       2.113625             0.00749377126            0.000279652589           
       2.116266             0.00764830551            0.000280430253           
       2.118906             0.00738795374            0.000275415541           
       2.121546             0.00736459412            0.000274761451           
       2.124187              0.0069862799            0.000271312766           
       2.126827             0.00718286738            0.000270789127           
       2.129468             0.00707041318              0.0002714647           
       2.132108             0.00739253074            0.000277005212           
       2.134748             0.00724598074            0.000273212242           
       2.137389             0.00714051594            0.000273488272           
       2.140029             0.00740715012            0.000277871202           
       2.142670             0.00705830525            0.000271692239           
       2.145310             0.00701491297            0.000271890613           
       2.147950             0.00716432407            0.000275833084           
       2.150591             0.00689427131            0.000268103005           
       2.153231             0.00692434411            0.000272659447           
       2.155871             0.00728116523            0.000275558468           
       2.158512             0.00679226397            0.000270942159           
       2.161152              0.0068542976            0.000265377678           
       2.163793             0.00738387353            0.000279920517           
       2.166433             0.00736149334            0.000274649255           
       2.169073             0.00688912849            0.000271894744           
       2.171714             0.00695241431            0.000267579986           
       2.174354             0.00725700217            0.000277556043           
       2.176995             0.00717793136             0.00027375001           
       2.179635               0.007279807            0.000280903222           
       2.182275             0.00709731735            0.000271854217           
       2.184916             0.00725187998             0.00028060627           
       2.187556             0.00707387462            0.000272679257           
       2.190196             0.00694062687            0.000274344259           
       2.192837              0.0072678788            0.000277663226           
       2.195477             0.00712699113            0.000277611112           
       2.198118             0.00713920699            0.000272719342           
       2.200758             0.00709100035            0.000276017844           
       2.203398             0.00718546036            0.000273242477           
       2.206039             0.00684993785            0.000270864532           
       2.208679             0.00715534325             0.00027412701           
       2.211319             0.00693052635            0.000271056057           
       2.213960             0.00650632304            0.000259837299           
       2.216600             0.00736880667            0.000283038971           
       2.219241             0.00687967254            0.000269507751           
       2.221881              0.0070011501            0.000273293905           
       2.224521             0.00662594003            0.000264947631           
       2.227162             0.00683139148            0.000273249436           
       2.229802              0.0070615279            0.000273304352           
       2.232443             0.00717572644            0.000276588534           
       2.235083             0.00723007239            0.000275969163           
       2.237723             0.00714606794            0.000276463828           
       2.240364             0.00686748614            0.000269642912           
       2.243004              0.0071831198            0.000276602903           
       2.245644             0.00679039691            0.000268314232           
       2.248285             0.00684680184            0.000271175315           
       2.250925             0.00716815128            0.000276168568           
       2.253566             0.00734596281            0.000280256485           
       2.256206             0.00678714226            0.000268578918           
       2.258846              0.0070535171            0.000273801094           
       2.261487             0.00686648049            0.000270613859           
       2.264127             0.00757066595            0.000286840089           
       2.266767             0.00693363059            0.000270069987           
       2.269408             0.00666924612            0.000268016783           
       2.272048              0.0074827984            0.000282147293           
       2.274689             0.00711310598            0.000276170905           
       2.277329             0.00730498682            0.000279499174           
       2.279969             0.00755637954            0.000285129417           
       2.282610             0.00731825341            0.000277864344           
       2.285250             0.00709407743            0.000277878081           
       2.287891             0.00750514123              0.0002829313           
       2.290531             0.00728819496            0.000280186969           
       2.293171             0.00692268242            0.000273057265           
       2.295812             0.00691765976            0.000271509445           
       2.298452             0.00723213771            0.000279390319           
       2.301092             0.00690108006             0.00027465439           
       2.303733             0.00706448945            0.000272390649           
       2.306373             0.00717826509            0.000281291228           
       2.309014             0.00630511306            0.000258548645           
       2.311654             0.00667793985            0.000268608223           
       2.314294             0.00712524414            0.000276852702           
       2.316935             0.00674790163            0.000270486963           
       2.319575              0.0070435482            0.000275314062           
       2.322215             0.00665989468            0.000271525894           
       2.324856             0.00699056878            0.000271199188           
       2.327496               0.006817469            0.000274384129           
       2.330137             0.00689148299            0.000270781814           
       2.332777             0.00691211016            0.000274152775           
       2.335417              0.0068945147            0.000272981636           
       2.338058             0.00693804815            0.000274938113           
       2.340698             0.00693300202            0.000272132099           
       2.343339             0.00696806407            0.000278025497           
       2.345979              0.0070705774            0.000274474588           
       2.348619             0.00677612649            0.000273772933           
       2.351260             0.00732613238            0.000278615784           
       2.353900             0.00671536249            0.000272399584           
       2.356540             0.00710221568             0.00027628304           
       2.359181              0.0065561156            0.000268998317           
       2.361821             0.00688842402            0.000272371789           
       2.364462             0.00706318602            0.000280414727           
       2.367102              0.0070381442            0.000271822649           
       2.369742             0.00670384787            0.000274795739           
       2.372383             0.00740811813            0.000280448808           
       2.375023             0.00642409187            0.000267963606           
       2.377663             0.00713764236             0.00027645144           
       2.380304             0.00710340551             0.00027961327           
       2.382944             0.00692194315            0.000273318943           
       2.385585             0.00698957984            0.000277247505           
       2.388225               0.006908809            0.000274395519           
       2.390865              0.0069362538            0.000275644031           
       2.393506             0.00731526236            0.000281770163           
       2.396146             0.00673895985            0.000271339846           
       2.398787             0.00729080802            0.000282478033           
       2.401427             0.00731939891            0.000281312801           
       2.404067             0.00712596343            0.000281807245           
       2.406708             0.00706395069            0.000277051776           
       2.409348             0.00690491632            0.000275975907           
       2.411988             0.00705621504            0.000278092075           
       2.414629             0.00711487463            0.000280159271           
       2.417269             0.00747672285            0.000284586951           
       2.419910             0.00634306614            0.000265430917           
       2.422550             0.00717012874             0.00027792161           
       2.425190             0.00687906814            0.000280793159           
       2.427831              0.0062348141            0.000257267631           
       2.430471             0.00789093879            0.000297886462           
       2.433112             0.00642142989            0.000262380627           
       2.435752             0.00720090665            0.000284883491           
       2.438392             0.00681853678            0.000272557142           
       2.441033             0.00710851503            0.000279567687           
       2.443673              0.0071039993            0.000280225188           
       2.446313              0.0071399201            0.000279435967           
       2.448954             0.00699500085            0.000279012514           
       2.451594             0.00731080337            0.000283529765           
       2.454235             0.00753540436            0.000286956419           
       2.456875             0.00783058237            0.000294004507           
       2.459515             0.00807252948             0.00029897226           
       2.462156              0.0077461911             0.00029135713           
       2.464796             0.00758723614            0.000293438586           
       2.467436             0.00804143528            0.000295759646           
       2.470077             0.00775488527            0.000294447344           
       2.472717             0.00801013542            0.000295509505           
       2.475358             0.00766716761            0.000292389438           
       2.477998             0.00731456494            0.000284063371           
       2.480638             0.00764163789            0.000291050379           
       2.483279             0.00735989228            0.000286861587           
       2.485919             0.00688260117            0.000275461792           
       2.488560             0.00724952887            0.000283881868           
       2.491200             0.00690620908            0.000276698485           
       2.493840             0.00682542522            0.000273577748           
       2.496481             0.00694795064            0.000279631867           
       2.499121              0.0074170618            0.000285070961           
       2.501761             0.00703734406            0.000282393094           
       2.504402             0.00731148447            0.000282324673           
       2.507042             0.00686461179            0.000278108393           
       2.509683             0.00723134003            0.000282840966           
       2.512323              0.0071600139            0.000282544629           
       2.514963             0.00863605526            0.000310921457           
       2.517604              0.0125261451            0.000372990818           
       2.520244              0.0359322185            0.000631868033           
       2.522884              0.0164654638             0.00042679596           
       2.525525              0.0120985643            0.000368852717           
       2.528165              0.0206525445            0.000479716712           
       2.530806              0.0337166511            0.000610642444           
       2.533446              0.0201206793            0.000475914031           
       2.536086              0.0224157583            0.000498108103           
       2.538727              0.0221314213            0.000498111836           
       2.541367              0.0273774284             0.00055242702           
       2.544008              0.0129232304            0.000379867269           
       2.546648              0.0106905244            0.000345890559           
       2.549288             0.00743213113            0.000288441933           
       2.551929             0.00770763691            0.000294709762           
       2.554569             0.00756276345            0.000289259233           
       2.557209             0.00769058929            0.000294989298           
       2.559850             0.00755762882             0.00028906551           
       2.562490             0.00737366202            0.000287604604           
       2.565131             0.00763562971             0.00029317816           
       2.567771             0.00743573052             0.00028778166           
       2.570411             0.00732513268            0.000289109287           
       2.573052              0.0072108649            0.000283497136           
       2.575692             0.00699012852            0.000279864697           
       2.578332             0.00730244085            0.000285203424           
       2.580973             0.00737936575            0.000289026258           
       2.583613             0.00729865601            0.000284821935           
       2.586254             0.00735576437            0.000288463694           
       2.588894             0.00678295207            0.000275526744           
       2.591534             0.00663643192            0.000273035933           
       2.594175             0.00722197695            0.000286479943           
       2.596815             0.00734449437            0.000286213668           
       2.599456             0.00716282019            0.000284964177           
       2.602096             0.00748583676             0.00029022855           
       2.604736             0.00740595752            0.000289433024           
       2.607377             0.00696485628            0.000279607987           
       2.610017             0.00741095307            0.000288322653           
       2.612657             0.00714778498            0.000285157317           
       2.615298             0.00675476739              0.0002744953           
       2.617938             0.00721973972            0.000286268277           
       2.620579             0.00706124294            0.000280795968           
       2.623219             0.00717990239            0.000287674585           
       2.625859             0.00653709409            0.000269868815           
       2.628500              0.0066047156            0.000275596341           
       2.631140             0.00699831397            0.000278686661           
       2.633780             0.00715334777            0.000285375529           
       2.636421             0.00697212122            0.000279173694           
       2.639061             0.00737727805            0.000290604213           
       2.641702             0.00693235319            0.000278693326           
       2.644342             0.00772076562            0.000296527131           
       2.646982             0.00684857182            0.000279039315           
       2.649623             0.00740893937            0.000291970634           
       2.652263             0.00746954112            0.000290829519           
       2.654904             0.00715319781            0.000286149752           
       2.657544             0.00685763893            0.000278204554           
       2.660184             0.00729579412            0.000287321661           
       2.662825             0.00770474125            0.000295972142           
       2.665465             0.00731768944             0.00028897567           
       2.668105             0.00720349657             0.00028682559           
       2.670746             0.00700134183            0.000280379653           
       2.673386             0.00688732591            0.000281457605           
       2.676027             0.00664052945            0.000274019387           
       2.678667             0.00725501808            0.000287906259           
       2.681307             0.00695838379            0.000279741876           
       2.683948              0.0065481514            0.000274065565           
       2.686588             0.00760818349            0.000292706157           
       2.689229             0.00767058219            0.000296541765           
       2.691869             0.00711127233            0.000282675816           
       2.694509             0.00707664065            0.000285853784           
       2.697150             0.00702994865            0.000280361927           
       2.699790             0.00720677515             0.00028976258           
       2.702430             0.00665455578            0.000273101321           
       2.705071             0.00706167071            0.000285181544           
       2.707711             0.00687142962            0.000278524342           
       2.710352             0.00689325111            0.000280554077           
       2.712992             0.00650773404            0.000273482256           
       2.715632             0.00658132699            0.000273459835           
       2.718273             0.00673080576            0.000277465969           
       2.720913             0.00686059482            0.000280596054           
       2.723553             0.00658494156            0.000273945955           
       2.726194             0.00654135684             0.00027435466           
       2.728834             0.00709090589            0.000283107546           
       2.731475             0.00648650889            0.000273139944           
       2.734115             0.00697106486            0.000281471015           
       2.736755              0.0072461684             0.00028886822           
       2.739396             0.00689387849            0.000280268785           
       2.742036             0.00692925785            0.000282904924           
       2.744677             0.00735256801            0.000291844268           
       2.747317             0.00755212617            0.000294341317           
       2.749957             0.00743399926            0.000294148816           
       2.752598             0.00702151318            0.000286732598           
       2.755238             0.00722409788             0.00029070851           
       2.757878             0.00740712466            0.000293529982           
       2.760519             0.00689291166            0.000280168368           
       2.763159             0.00674549276            0.000281662705           
       2.765800             0.00725582467            0.000287174601           
       2.768440             0.00730256688            0.000291893358           
       2.771080             0.00682168865            0.000279741608           
       2.773721             0.00608363996            0.000267416585           
       2.776361             0.00634312027            0.000270127228           
       2.779001             0.00703352113            0.000287438269           
       2.781642             0.00644124645            0.000273193015           
       2.784282             0.00618669831            0.000267833924           
       2.786923              0.0065859472            0.000274239276           
       2.789563             0.00680878752            0.000279400363           
       2.792203             0.00660593551            0.000276958671           
       2.794844             0.00665127211            0.000276642902           
       2.797484              0.0066341357            0.000276675586           
       2.800125             0.00636276891            0.000270607699           
       2.802765             0.00631648778            0.000274620006           
       2.805405             0.00694770278            0.000283857402           
       2.808046             0.00667802409             0.00028256107           
       2.810686             0.00684308094            0.000282983897           
       2.813326             0.00643182248            0.000277742994           
       2.815967             0.00682549436            0.000284313543           
       2.818607             0.00707718948            0.000292402247           
       2.821248             0.00653271151            0.000277426414           
       2.823888             0.00635233366            0.000277975851           
       2.826528             0.00694284158            0.000288875156           
       2.829169             0.00574793754            0.000261683285           
       2.831809             0.00653876421            0.000279349658           
       2.834449             0.00699911959            0.000283971354           
       2.837090             0.00640201292            0.000273222741           
       2.839730             0.00644054899            0.000272097703           
       2.842371             0.00669993486            0.000279456459           
       2.845011             0.00674618902            0.000279794022           
       2.847651             0.00695705322            0.000284654911           
       2.850292             0.00663540869            0.000276417299           
       2.852932               0.006193632            0.000267535964           
       2.855573             0.00689518193            0.000284760608           
       2.858213             0.00706068745            0.000284924697           
       2.860853             0.00682314449            0.000282187281           
       2.863494             0.00661142214            0.000278443488           
       2.866134             0.00688628764            0.000288158594           
       2.868774             0.00694106135             0.00028487382           
       2.871415             0.00696264315            0.000288140258           
       2.874055             0.00739501443            0.000298423026           
       2.876696              0.0070993475            0.000289763494           
       2.879336             0.00605424661            0.000269362941           
       2.881976             0.00656422609            0.000280247645           
       2.884617             0.00627246134            0.000272426846           
       2.887257             0.00645416113            0.000274417673           
       2.889897             0.00628691514            0.000273943237           
       2.892538             0.00671034916            0.000281055887           
       2.895178             0.00683127783            0.000280685222           
       2.897819               0.006831052            0.000283567363           
       2.900459             0.00685250859            0.000281660866           
       2.903099             0.00742057097            0.000294633484           
       2.905740             0.00669428939            0.000276720066           
       2.908380             0.00703150044             0.00028738471           
       2.911021             0.00676677824            0.000282459013           
       2.913661             0.00653308348            0.000274484452           
       2.916301             0.00685104784            0.000285083348           
       2.918942             0.00696458235            0.000283099474           
       2.921582             0.00681626474            0.000283007211           
       2.924222              0.0070396029            0.000285938111           
       2.926863             0.00685253871            0.000282862748           
       2.929503             0.00691941024            0.000287394903           
       2.932144              0.0067589374            0.000279384184           
       2.934784             0.00695560653            0.000284624219           
       2.937424             0.00755213187            0.000297126688           
       2.940065             0.00752798857            0.000296892806           
       2.942705             0.00645617559            0.000275781728           
       2.945346             0.00659716768            0.000277130188           
       2.947986             0.00703616704            0.000287203168           
       2.950626             0.00698936541            0.000287126529           
       2.953267             0.00807489039            0.000305340493           
       2.955907              0.0102996493             0.00034940688           
       2.958547              0.0102908139            0.000345675772           
       2.961188             0.00849670659            0.000316843093           
       2.963828              0.0082462145            0.000310368813           
       2.966469               0.006758278            0.000281045698           
       2.969109             0.00742157944            0.000296021013           
       2.971749             0.00696150599            0.000285855591           
       2.974390             0.00760876176            0.000299669236           
       2.977030             0.00823621597            0.000311187195           
       2.979670              0.0100043014            0.000340754977           
       2.982311             0.00875604565            0.000321089301           
       2.984951             0.00829274189            0.000313287002           
       2.987592             0.00777532425            0.000302332079           
       2.990232             0.00740231349            0.000295744229           
       2.992872             0.00681489542             0.00028154705           
       2.995513             0.00737411605            0.000295171527           
       2.998153             0.00774101657             0.00030437667           
       3.000794             0.00950420221            0.000332356459           
       3.003434              0.0198522824            0.000485436384           
       3.006074              0.0672076359            0.000896053239           
       3.008715              0.0534145056            0.000804912379           
       3.011355              0.0328625711            0.000637915221           
       3.013995              0.0229354213            0.000530318225           
       3.016636              0.0343659603            0.000650370689           
       3.019276               0.184945225              0.0015448088           
       3.021917               0.195831813             0.00156266545           
       3.024557               0.129574461             0.00128126069           
       3.027197               0.159312101             0.00144454414           
       3.029838               0.167937239             0.00147604025           
       3.032478              0.0573427394            0.000867663443           
       3.035118              0.0336428637            0.000668018223           
       3.037759              0.0927335511              0.0011110267           
       3.040399               0.240620232             0.00181014512           
       3.043040               0.114562093             0.00126114657           
       3.045680              0.0552747694            0.000862517531           
       3.048320               0.170771686             0.00154037368           
       3.050961               0.238474902             0.00183853824           
       3.053601                0.06986685            0.000990745366           
       3.056242              0.0547999527            0.000883074397           
       3.058882               0.203769938             0.00172818467           
       3.061522               0.115749189             0.00129347967           
       3.064163              0.0207521735            0.000548683574           
       3.066803               0.026218461            0.000628653851           
       3.069443              0.0378499865            0.000750306471           
       3.072084              0.0647106132            0.000989788633           
       3.074724              0.0221558016            0.000582579747           
       3.077365              0.0107818736            0.000406113775           
       3.080005             0.00906547946            0.000376517787           
       3.082645             0.00901757847            0.000377433761           
       3.085286             0.00917358977            0.000380754144           
       3.087926             0.00818701627            0.000361986399           
       3.090566             0.00764338484            0.000353364502           
       3.093207             0.00738356345            0.000343554268           
       3.095847             0.00731873314            0.000349212287           
       3.098488             0.00711355101             0.00034365811           
       3.101128             0.00756737721            0.000356381714           
       3.103768             0.00989606102             0.00040983944           
       3.106409              0.0105688026            0.000426377858           
       3.109049              0.0111223181             0.00044080093           
       3.111690              0.0107451294            0.000431556141           
       3.114330             0.00967623363             0.00041317287           
       3.116970             0.00935762857            0.000411966164           
       3.119611              0.0129544212            0.000481562361           
       3.122251              0.0153772368            0.000528962522           
       3.124891              0.0110419617            0.000450414307           
       3.127532             0.00941889939            0.000423489655           
       3.130172             0.00732933139            0.000365887514           
       3.132813             0.00824648343            0.000396004392           
       3.135453             0.00932279266            0.000429936661           
       3.138093             0.00819828657            0.000393608243           
       3.140734             0.00635606083            0.000353024648           
       3.143374             0.00669865451            0.000367953972           
       3.146014             0.00650452649              0.0003599511           
       3.148655             0.00607748284            0.000350673879           
       3.151295             0.00613055914            0.000354989575           
       3.153936             0.00565735643            0.000346048341           
       3.156576             0.00685478374            0.000376541271           
       3.159216             0.00650438175            0.000369790949           
       3.161857             0.00640001377            0.000371311948           
       3.164497             0.00560670846             0.00035486608           
       3.167138             0.00639025185            0.000369762651           
       3.169778             0.00579978297            0.000358626165           
       3.172418             0.00651060485            0.000382188073           
       3.175059             0.00513165077            0.000343749186           
       3.177699             0.00497481636            0.000337118734           
       3.180339             0.00583272614            0.000368294176           
       3.182980             0.00630031834            0.000387939483           
       3.185620             0.00649090214            0.000398066248           
       3.188261             0.00567273438            0.000367258279           
       3.190901             0.00556098374            0.000369225914           
       3.193541             0.00563235542            0.000372812204           
       3.196182             0.00542618756            0.000373538971           
       3.198822             0.00563384254            0.000376005307           
       3.201463             0.00640361632            0.000406054601           
       3.204103             0.00569188657            0.000387922432           
       3.206743             0.00579528995            0.000394739637           
       3.209384             0.00530337982            0.000375931918           
       3.212024             0.00533559086            0.000378411359           
       3.214664             0.00596049547            0.000407581047           
       3.217305             0.00583436902            0.000412653602           
       3.219945             0.00571027357            0.000404827768           
       3.222586             0.00510237856            0.000384838966           
       3.225226             0.00506792095            0.000392177774           
       3.227866             0.00628353197            0.000440065012           
       3.230507              0.0058986696            0.000431463076           
       3.233147             0.00591149136            0.000425543003           
       3.235787             0.00612753161            0.000433366902           
       3.238428             0.00533542513            0.000411529225           
       3.241068             0.00503066952            0.000407706319           
       3.243709             0.00627473263            0.000452808868           
       3.246349              0.0056682546            0.000427962056           
       3.248989             0.00493024481            0.000408253341           
       3.251630             0.00447041069            0.000390468831           
       3.254270             0.00547908387            0.000445569261           
       3.256911             0.00540514082            0.000431463903           
       3.259551             0.00557579472            0.000447905698           
       3.262191             0.00589898185            0.000464942135           
       3.264832             0.00529980006            0.000444832105           
       3.267472              0.0057339347             0.00046925448           
       3.270112             0.00517397346            0.000447021823           
       3.272753             0.00624965192            0.000497335106           
       3.275393              0.0052834716            0.000459632351           
       3.278034             0.00538245577            0.000473368392           
       3.280674             0.00536616992            0.000474023467           
       3.283314             0.00580488104            0.000495743903           
       3.285955             0.00510379293            0.000473575218           
       3.288595             0.00580813789            0.000510833181           
       3.291235              0.0061037918             0.00052674959           
       3.293876             0.00507225414            0.000483024085           
       3.296516             0.00757514216             0.00060232737           
       3.299157             0.00695559527            0.000585894408           
       3.301797             0.00515293661            0.000504503426           
       3.304437              0.0045678748            0.000483903911           
       3.307078             0.00502043061            0.000512237235           
       3.309718             0.00528966008            0.000531041259           
       3.312359             0.00549798399            0.000552336626           
       3.314999             0.00500415119            0.000532475403           
       3.317639             0.00540335193            0.000559264745           
       3.320280             0.00568916314            0.000582245553           
       3.322920             0.00414822179            0.000504617933           
       3.325560             0.00519926295            0.000575849174           
       3.328201             0.00466319944            0.000547661043           
       3.330841             0.00455854796            0.000554650122           
       3.333482              0.0049455616            0.000585050314           
       3.336122             0.00480671122            0.000589315024           
       3.338762             0.00628694642            0.000680138772           
       3.341403             0.00490722997            0.000606465656           
       3.344043             0.00521117545            0.000648818441           
       3.346683             0.00605856969            0.000706680384           
       3.349324              0.0051366535            0.000660768772           
       3.351964             0.00680308236             0.00078488206           
       3.354605             0.00606214944             0.00074929892           
       3.357245             0.00533006587            0.000727296026           
       3.359885              0.0057047094            0.000752692799           
       3.362526             0.00552851924            0.000778865238           
       3.365166             0.00542846452            0.000762256512           
       3.367807             0.00509985566            0.000790886202           
       3.370447             0.00460460891            0.000751795597           
       3.373087             0.00514446611            0.000838667844           
       3.375728             0.00384336161            0.000719415907           
       3.378368             0.00452293257            0.000843314022           
       3.381008             0.00673006205             0.00101973045           
       3.383649             0.00591602964             0.00103468846           
       3.386289             0.00425591704            0.000877950604           
       3.388930             0.00454206104            0.000996093262           
       3.391570             0.00562953866             0.00110940977           
       3.394210              0.0063928733             0.00126673844           
       3.396851             0.00492457268             0.00120433208           
       3.399491             0.00384701172             0.00108376509           
       3.402131             0.00420247248             0.00134082977           
       3.404772             0.00586854725             0.00158515815           
       3.407412             0.00633859248             0.00204423779           
       3.410053             0.00474311645              0.0018413387           
       3.412693              0.0040708935              0.0024134799           
       3.415333             0.00197984141             0.00206222592           
