################################################################################
# EDF_DataBlockID                     0.Image.Psd
# EDF_BinarySize                      2105344
# EDF_HeaderSize                      2560
# ByteOrder                           LowByteFirst
# DataType                            FloatValue
# Dim_1                               512
# Dim_2                               1028
# Image                               0
# HeaderID                            EH:000000:000000:000000
# Size                                2105344
# Center_1                            304.9000
# Center_2                            588.7000
# Comment                             Xenocs_Cell_Window - front_window_open_only
# DDummy                              0.6
# Date                                2025-10-18T17:01:13
# Delta                               21.910000
# Dummy                               -1.5
# ExposureTime                        360
# Gamma                               15.360000
# Intensity1                          9.07544e-10
# PSize_1                             7.5e-05
# PSize_2                             7.5e-05
# Pressure                            0.0334282
# SampleDistance                      0.115750
# SampleEnvKind                       large
# SampleEnvPN                         ElectroChemical cell
# SampleEnvSN                         1141
# Thickness                           0
# Wavelength                          1.541891e-10
# Wavelength                          1.54189e-10
# aux                                 0
# aux_dial                            0.002375
# beamx                               588.429
# beamx_dial                          588.429
# beamz                               657.855
# beamz_dial                          657.855
# det0x                               -0.000396875
# det0x_dial                          6.36905
# det0xvd                             -0.0005
# det0xvd_dial                        -0.0005
# det0y                               450.002
# det0y_dial                          481.635
# det0z                               0
# det0z_dial                          1.2295
# det0zvd                             0
# det0zvd_dial                        0
# mag                                 1.818
# mag_dial                            1.818
# om                                  0.2499
# om_dial                             -0.610199
# phi                                 -0.0120535
# phi_dial                            0
# ry                                  0.599993
# ry_dial                             0.599993
# s1bot                               0.8
# s1bot_dial                          -1.66094
# s1hl                                0.8
# s1hl_dial                           -0.608437
# s1hr                                0.8
# s1hr_dial                           0.970938
# s1top                               0.8
# s1top_dial                          -0.461562
# s2bot                               0.45
# s2bot_dial                          1.36109
# s2hl                                0.45
# s2hl_dial                           -0.83375
# s2hr                                0.45
# s2hr_dial                           -0.118594
# s2top                               0.45
# s2top_dial                          1.44734
# w2theta                             32
# w2theta_dial                        32
# waxsch                              19.2605
# waxsch_dial                         -32.7238
# waxsh                               137.085
# waxsh_dial                          -43.5335
# waxsth                              26.0607
# waxsth_dial                         -19.4068
# waxsz                               67.0407
# waxsz_dial                          -23.7962
# wind                                65.9854
# wind_dial                           66.0041
# wpsi                                124
# wpsi_dial                           124
# wstod                               115
# wstod_dial                          115
# x                                   0
# x_dial                              1.00969
# z                                   0
# z_dial                              13.3172
# CountCutoff                         6807993
# DetectorModel                       Dectris EIGER2 Si 500K, S/N E-01-0554
# ThresholdSetting                    4023.88989258
# Saturation                          0
# FlatField                           Corrected
# BackgroundReductionExtra            0.02
# BackgroundCorrectionConstant        0.0026712
# Detector                            0
# Monitor                             0
# Pil_Roi0                            0
# SumForIntensity1                    3.26716e+08
# TransmittedFlux                     907544
# det                                 0
# mon                                 0
# pilai0                              3.26716e+08
# pilai1                              706729
# pilct0                              5.65338e+08
# pilct1                              706729
# pilroi0                             0
# pilroi1                             0
# sec                                 1
# title                               20251017__1_00208.edf
# usaxs0                              0
# Operation                           Azimuthal average I(q)
# Error_model                         ErrorModel.poisson
# Geometrical_correction              True
# Transmission_correction             True
# Thickness_correction                False
# Binning mode                        Uniform
# Binning factor                      1.0
# Psi                                 0.0
# Omega                               0.2499
# MaskInvalidPixels                   True
# DetectorEdge                        3
# MaskFiles                           ['20251017__1_00233_mask.edf']
################################################################################
    q(A⁻¹)                Intensity(a.u.)            Sigma_I(a.u.)            
       0.690460             0.00759918874             0.00797911396           
       0.693100             0.00774406136             0.00360116641           
       0.695741              0.0125162081             0.00386777593           
       0.698381             0.00898653282             0.00306525894           
       0.701021             0.00743547757             0.00227557098           
       0.703662             0.00343630261             0.00143193726           
       0.706302             0.00600951368             0.00182883198           
       0.708942             0.00557585626             0.00156478204           
       0.711583             0.00646606143             0.00168476152           
       0.714223             0.00718937919             0.00154806233           
       0.716864             0.00643887429             0.00149499392           
       0.719504             0.00523531972             0.00124762171           
       0.722144             0.00682325991             0.00137560255           
       0.724785              0.0060907859             0.00127837004           
       0.727425             0.00642068088             0.00121744213           
       0.730065              0.0069858902             0.00130665286           
       0.732706             0.00585556382             0.00107575048           
       0.735346             0.00705528175             0.00127548898           
       0.737987              0.0053036311            0.000957181131           
       0.740627             0.00739843782             0.00123846942           
       0.743267              0.0104942506             0.00126875134           
       0.745908             0.00542949737            0.000978056099           
       0.748548             0.00761873632             0.00108057678           
       0.751189             0.00581700968            0.000935304611           
       0.753829             0.00668373429             0.00101160944           
       0.756469             0.00631046117            0.000924514798           
       0.759110             0.00762856267             0.00105140072           
       0.761750             0.00579454093            0.000838638136           
       0.764390             0.00523166104            0.000855390961           
       0.767031             0.00621427745            0.000843593123           
       0.769671             0.00625482795             0.00089757253           
       0.772312             0.00797181961             0.00092339352           
       0.774952             0.00691936643            0.000922268912           
       0.777592             0.00633870486            0.000807383276           
       0.780233             0.00602860474             0.00083007004           
       0.782873             0.00609880196            0.000763461909           
       0.785513             0.00740255184            0.000894746968           
       0.788154             0.00680837712            0.000788163536           
       0.790794               0.007838088            0.000875241498           
       0.793435             0.00715847277            0.000803389136           
       0.796075             0.00587817248            0.000731855627           
       0.798715             0.00712988812            0.000801418207           
       0.801356             0.00719032021            0.000783269347           
       0.803996             0.00717206401             0.00079477551           
       0.806637              0.0060154983            0.000688036251           
       0.809277             0.00660709931            0.000754362904           
       0.811917              0.0055916371            0.000656702901           
       0.814558             0.00665377572            0.000733868553           
       0.817198             0.00643672548            0.000688236611           
       0.819838             0.00666879698            0.000730731635           
       0.822479             0.00602764827            0.000640219512           
       0.825119             0.00756243564            0.000770360378           
       0.827760             0.00672401073            0.000673086438           
       0.830400             0.00647579713            0.000695969164           
       0.833040             0.00614687163            0.000632826552           
       0.835681             0.00717817119            0.000716142814           
       0.838321             0.00655582781            0.000640580525           
       0.840961             0.00788806644            0.000734450895           
       0.843602             0.00579510857            0.000592981149           
       0.846242             0.00549352093            0.000597729136           
       0.848883             0.00727438275            0.000669097926           
       0.851523             0.00527521376            0.000574055965           
       0.854163             0.00673459545            0.000641083997           
       0.856804              0.0062295746            0.000600802074           
       0.859444             0.00712690217             0.00064723793           
       0.862085             0.00744227903            0.000651782539           
       0.864725              0.0057273167            0.000569676055           
       0.867365             0.00576846028             0.00056762425           
       0.870006             0.00708597368            0.000637893556           
       0.872646              0.0069933528            0.000606131292           
       0.875286             0.00696770179            0.000625633555           
       0.877927             0.00645132496            0.000576394503           
       0.880567             0.00628460991            0.000580012014           
       0.883208             0.00667580869            0.000580527291           
       0.885848             0.00650303996            0.000587824954           
       0.888488             0.00673773861            0.000568912371           
       0.891129             0.00774979275            0.000641371903           
       0.893769             0.00603901558            0.000535172694           
       0.896410             0.00652564627            0.000573453851           
       0.899050             0.00798545807            0.000611648475           
       0.901690              0.0066563004            0.000570086083           
       0.904331             0.00655956271            0.000546170131           
       0.906971             0.00680683404            0.000574504445           
       0.909611             0.00692723839            0.000556283338           
       0.912252             0.00740368571             0.00058506082           
       0.914892             0.00717207635            0.000561251627           
       0.917533             0.00739562163            0.000582791237           
       0.920173             0.00613623254             0.00050922273           
       0.922813             0.00752181874            0.000589171889           
       0.925454             0.00703005988            0.000540572001           
       0.928094             0.00624276254            0.000520338341           
       0.930734             0.00693745434            0.000535435384           
       0.933375             0.00668335666            0.000536741322           
       0.936015             0.00759941384            0.000547629081           
       0.938656             0.00652605198            0.000528769944           
       0.941296             0.00602055761              0.0004895934           
       0.943936             0.00615662259            0.000504011446           
       0.946577              0.0067798555            0.000509370179           
       0.949217             0.00665219262            0.000522370594           
       0.951858              0.0064962841            0.000488018596           
       0.954498             0.00796372523            0.000568454458           
       0.957138             0.00775842833            0.000539280663           
       0.959779             0.00736468351            0.000536910473           
       0.962419             0.00659490764            0.000489123118           
       0.965059             0.00577078087            0.000470538391           
       0.967700             0.00671721836            0.000491242848           
       0.970340             0.00737718339            0.000529275781           
       0.972981             0.00736970657            0.000510771951           
       0.975621             0.00757140699            0.000528554413           
       0.978261             0.00766789758            0.000507510477           
       0.980902             0.00733320476            0.000519942768           
       0.983542             0.00820626006            0.000534008402           
       0.986182             0.00796131913            0.000532905218           
       0.988823             0.00698073216              0.0004829077           
       0.991463             0.00655561108            0.000479149904           
       0.994104             0.00692190059            0.000475758073           
       0.996744             0.00638289948            0.000471674721           
       0.999384             0.00772267424            0.000501211918           
       1.002025             0.00704781724            0.000492143309           
       1.004665             0.00679943721            0.000463592665           
       1.007306             0.00759161414            0.000506268607           
       1.009946             0.00699214268            0.000467178235           
       1.012586              0.0070029457            0.000480987983           
       1.015227             0.00724275156            0.000474347609           
       1.017867             0.00694227466            0.000477712123           
       1.020507             0.00681814016            0.000455599626           
       1.023148             0.00661162182            0.000454065582           
       1.025788             0.00818605327            0.000500071235           
       1.028429             0.00740836246            0.000486124402           
       1.031069              0.0073757938            0.000467326156           
       1.033709             0.00770818708            0.000486914252           
       1.036350             0.00698182837            0.000451253853           
       1.038990             0.00777856122            0.000488064865           
       1.041630             0.00921980065            0.000521137196           
       1.044271              0.0079306702            0.000483387053           
       1.046911             0.00753064084            0.000462286298           
       1.049552             0.00808834905            0.000496364287           
       1.052192             0.00803386292            0.000472444142           
       1.054832             0.00754634433            0.000466789685           
       1.057473             0.00740608118            0.000456577022           
       1.060113              0.0076000804            0.000467526759           
       1.062754             0.00758210249            0.000461808704           
       1.065394             0.00716131048            0.000444088963           
       1.068034             0.00716500682            0.000442483818           
       1.070675              0.0080622874            0.000477628856           
       1.073315             0.00745030814            0.000445109086           
       1.075955             0.00767376866            0.000459311168           
       1.078596             0.00815663802            0.000472605712           
       1.081236             0.00802315216            0.000461770453           
       1.083877             0.00678976292            0.000438066628           
       1.086517             0.00839909286            0.000476202754           
       1.089157             0.00748327388            0.000452787098           
       1.091798             0.00821652986            0.000464399823           
       1.094438             0.00780705923            0.000459874739           
       1.097078             0.00769121442            0.000444720437           
       1.099719             0.00772982995            0.000457261756           
       1.102359             0.00852954016            0.000455029047           
       1.105000             0.00794411856            0.000456430924           
       1.107640             0.00846205506            0.000455719177           
       1.110280              0.0085571301            0.000467448347           
       1.112921             0.00862129267             0.00046070776           
       1.115561             0.00831301095             0.00045813694           
       1.118202             0.00744210537            0.000420823243           
       1.120842             0.00772328896            0.000442206812           
       1.123482             0.00763174699            0.000427247412           
       1.126123             0.00851676777            0.000454157832           
       1.128763             0.00821712788            0.000443884512           
       1.131403             0.00888020311            0.000460729232           
       1.134044             0.00842875157            0.000448086123           
       1.136684             0.00958924774             0.00048153042           
       1.139325             0.00810250408            0.000430158933           
       1.141965              0.0083638459            0.000442756965           
       1.144605             0.00881897081            0.000457314386           
       1.147246             0.00856023971            0.000442023097           
       1.149886             0.00881187517            0.000451662348           
       1.152527             0.00860161274            0.000446688342           
       1.155167             0.00845608357            0.000436666412           
       1.157807             0.00803720433            0.000426007014           
       1.160448             0.00846427735            0.000443160511           
       1.163088             0.00788584303            0.000411880756           
       1.165728             0.00884515972            0.000454194624           
       1.168369             0.00859822513            0.000431823186           
       1.171009             0.00848072503            0.000432418109           
       1.173650             0.00857223158            0.000431609734           
       1.176290             0.00796336634            0.000420880538           
       1.178930             0.00855664006             0.00042401257           
       1.181571             0.00942531785             0.00045955036           
       1.184211             0.00814756082            0.000414362445           
       1.186851             0.00914136304            0.000442953506           
       1.189492              0.0100276852              0.0004665068           
       1.192132             0.00910977004            0.000438057613           
       1.194773             0.00932105193            0.000440435105           
       1.197413             0.00922660674            0.000441772634           
       1.200053             0.00881462806            0.000429080422           
       1.202694             0.00905619214            0.000431642702           
       1.205334             0.00909449899            0.000437283125           
       1.207975             0.00810703605            0.000404772032           
       1.210615             0.00913483115            0.000438750489           
       1.213255             0.00845909026            0.000411040946           
       1.215896             0.00900614578            0.000432163198           
       1.218536             0.00932596647            0.000427103196           
       1.221176             0.00952519611            0.000441943925           
       1.223817             0.00857563178            0.000410599112           
       1.226457             0.00923645438            0.000431538064           
       1.229098              0.0087647511            0.000413996963           
       1.231738             0.00870997905            0.000418512849           
       1.234378              0.0096810973            0.000432654255           
       1.237019             0.00897092031            0.000419842227           
       1.239659             0.00860270002            0.000410913081           
       1.242299             0.00899437495            0.000418015244           
       1.244940             0.00980099313             0.00043164656           
       1.247580              0.0091693297            0.000419348815           
       1.250221             0.00957082269            0.000435424828           
       1.252861             0.00957012394             0.00041918713           
       1.255501             0.00992976558            0.000439046659           
       1.258142              0.0088273259            0.000405773593           
       1.260782             0.00994400329            0.000435539932           
       1.263423             0.00984533625            0.000424787861           
       1.266063             0.00981942121             0.00043213547           
       1.268703             0.00959788593            0.000416468832           
       1.271344                 0.0101819            0.000438295014           
       1.273984              0.0101416422            0.000430599101           
       1.276624              0.0106624565            0.000438823291           
       1.279265             0.00916175231            0.000407659416           
       1.281905             0.00927044613             0.00041259809           
       1.284546             0.00995764087            0.000422945691           
       1.287186             0.00929389698            0.000408999074           
       1.289826             0.00971098752            0.000420243872           
       1.292467             0.00967284609            0.000411931964           
       1.295107             0.00987121552            0.000423469414           
       1.297747             0.00988143118            0.000412575334           
       1.300388              0.0101308892            0.000428478148           
       1.303028               0.009986207            0.000414589764           
       1.305669              0.0100825947            0.000421968067           
       1.308309              0.0104750364            0.000423634717           
       1.310949             0.00992180057            0.000417434744           
       1.313590             0.00991615982            0.000410857768           
       1.316230             0.00988663877             0.00041763018           
       1.318871              0.0102594747            0.000416253873           
       1.321511              0.0110682952            0.000434517271           
       1.324151              0.0104061511            0.000422984497           
       1.326792              0.0105993835             0.00042343557           
       1.329432              0.0105953273            0.000425562883           
       1.332072              0.0101324154            0.000409026423           
       1.334713              0.0103284123            0.000418085012           
       1.337353             0.00982822909            0.000401562429           
       1.339994             0.00982417184            0.000407198032           
       1.342634             0.00977381591            0.000397009604           
       1.345274              0.0113379528            0.000433188699           
       1.347915              0.0112651463            0.000432943557           
       1.350555              0.0101428607            0.000409207019           
       1.353195              0.0109219447            0.000416508725           
       1.355836              0.0112282577            0.000430277045           
       1.358476              0.0103951707            0.000412842729           
       1.361117              0.0101511911            0.000397734871           
       1.363757              0.0103126802              0.0004141717           
       1.366397              0.0101891104            0.000398862705           
       1.369038              0.0101579017            0.000406645403           
       1.371678              0.0107335526             0.00040956848           
       1.374319              0.0108728478            0.000415486853           
       1.376959              0.0106346473            0.000405253468           
       1.379599              0.0113033688            0.000425944441           
       1.382240              0.0113871956            0.000419400792           
       1.384880              0.0106213808            0.000410025745           
       1.387520              0.0105995133            0.000404814431           
       1.390161              0.0105175096            0.000402149453           
       1.392801              0.0106546599            0.000407175476           
       1.395442              0.0108937839            0.000407453285           
       1.398082             0.00985502045            0.000388866806           
       1.400722              0.0104502427            0.000398628997           
       1.403363              0.0108277474            0.000409530578           
       1.406003              0.0110843552            0.000404180364           
       1.408644              0.0106795615            0.000405060389           
       1.411284              0.0100188962            0.000390179727           
       1.413924             0.00999644213            0.000384935302           
       1.416565              0.0106691689            0.000397209363           
       1.419205              0.0101058156             0.00039038844           
       1.421845              0.0108637998            0.000399675651           
       1.424486              0.0112483276            0.000408482888           
       1.427126              0.0102570854            0.000389823283           
       1.429767              0.0112855066            0.000402598176           
       1.432407              0.0100790884            0.000390055909           
       1.435047              0.0106853921            0.000389547608           
       1.437688              0.0100237079            0.000385648787           
       1.440328              0.0103261335            0.000383837977           
       1.442968              0.0104822894            0.000392082839           
       1.445609              0.0100938579            0.000378421364           
       1.448249             0.00983210908            0.000375897509           
       1.450890              0.0108324393             0.00039174195           
       1.453530             0.00980247024            0.000375413368           
       1.456170             0.00993212677            0.000377037232           
       1.458811              0.0100491069            0.000376233853           
       1.461451              0.0102432803            0.000382643588           
       1.464092              0.0101361538            0.000377319556           
       1.466732             0.00985048218            0.000369683011           
       1.469372              0.0103759398            0.000378248694           
       1.472013              0.0104715643            0.000386785987           
       1.474653              0.0101544937            0.000371480468           
       1.477293               0.010108417             0.00037687537           
       1.479934              0.0103293366            0.000376983999           
       1.482574              0.0109129917            0.000386532011           
       1.485215              0.0102408269            0.000375403167           
       1.487855               0.010970195            0.000388461397           
       1.490495             0.00965687714            0.000363683239           
       1.493136              0.0110359405            0.000383686517           
       1.495776              0.0103443964            0.000377947044           
       1.498416             0.00970675208            0.000359000624           
       1.501057              0.0102398587            0.000371898773           
       1.503697              0.0107234115            0.000376919349           
       1.506338             0.00962067993            0.000359639167           
       1.508978             0.00957979081            0.000356755182           
       1.511618             0.00983939433            0.000361374017           
       1.514259             0.00991129779            0.000363347063           
       1.516899             0.00989180839            0.000363158686           
       1.519540               0.010546662            0.000372905954           
       1.522180             0.00978894193            0.000354774111           
       1.524820               0.010090593             0.00036747404           
       1.527461             0.00974735877            0.000353180341           
       1.530101             0.00982489267            0.000358248353           
       1.532741             0.00972217631            0.000354682308           
       1.535382             0.00976110318            0.000356174313           
       1.538022              0.0105116758            0.000366344418           
       1.540663             0.00987958832            0.000358515772           
       1.543303             0.00983475641            0.000353250065           
       1.545943             0.00985853188            0.000355658923           
       1.548584             0.00982523811            0.000356948556           
       1.551224              0.0098437062            0.000348124145           
       1.553864             0.00965157996            0.000353715119           
       1.556505             0.00972908848            0.000349669557           
       1.559145             0.00996866178            0.000354766841           
       1.561786             0.00971180551            0.000348580141           
       1.564426             0.00978649608            0.000349601924           
       1.567066             0.00927799485            0.000337741357           
       1.569707             0.00909414285            0.000339219234           
       1.572347             0.00929622488            0.000338517709           
       1.574988             0.00944905723            0.000339938873           
       1.577628             0.00902260745            0.000339658292           
       1.580268             0.00946050681            0.000335800441           
       1.582909             0.00882669332            0.000330423647           
       1.585549             0.00863114613            0.000323689516           
       1.588189             0.00902630391            0.000334713418           
       1.590830             0.00869153765            0.000322809863           
       1.593470             0.00889511797            0.000329235392           
       1.596111             0.00914790427            0.000330995835           
       1.598751              0.0082195723            0.000316959285           
       1.601391             0.00833430602            0.000317123182           
       1.604032             0.00914452709            0.000329406329           
       1.606672             0.00916573004            0.000336425564           
       1.609312             0.00897668527            0.000323031439           
       1.611953             0.00901150669            0.000328347927           
       1.614593             0.00831304321            0.000312967934           
       1.617234             0.00860383724            0.000320199548           
       1.619874             0.00835807499            0.000311880571           
       1.622514             0.00879779714             0.00032280945           
       1.625155             0.00868428012            0.000319926947           
       1.627795             0.00826996952            0.000309047282           
       1.630436             0.00874196864            0.000320937954           
       1.633076             0.00861256696            0.000316935319           
       1.635716             0.00872974145            0.000318527555           
       1.638357             0.00798111313            0.000303269638           
       1.640997             0.00869567024            0.000319030249           
       1.643637             0.00887879551            0.000316385897           
       1.646278             0.00848355226            0.000313892883           
       1.648918             0.00801560642            0.000301179522           
       1.651559             0.00845155143            0.000313149628           
       1.654199             0.00807810841             0.00030195647           
       1.656839             0.00828959024            0.000305801129           
       1.659480             0.00867642104            0.000315610215           
       1.662120             0.00859186475            0.000309859924           
       1.664761              0.0086005581            0.000313373245           
       1.667401              0.0089703172            0.000317057259           
       1.670041             0.00856636935            0.000310190798           
       1.672682             0.00815549626            0.000299812487           
       1.675322             0.00796866716            0.000301598381           
       1.677962             0.00846220967            0.000304625433           
       1.680603             0.00886211421            0.000314506974           
       1.683243             0.00855591953            0.000306739866           
       1.685884             0.00834874368            0.000304156393           
       1.688524             0.00878237199            0.000311077567           
       1.691164             0.00836266811            0.000302773256           
       1.693805             0.00841024222            0.000306088623           
       1.696445             0.00828973484            0.000299670025           
       1.699085             0.00787765685             0.00029329316           
       1.701726             0.00873525426            0.000304828114           
       1.704366             0.00779998604            0.000295056375           
       1.707007             0.00859402532            0.000303101802           
       1.709647             0.00815635745            0.000298951828           
       1.712287             0.00848468979            0.000299813951           
       1.714928             0.00859220861            0.000304741375           
       1.717568             0.00795816598            0.000290585161           
       1.720209             0.00817645794            0.000296362406           
       1.722849             0.00822611958            0.000297737681           
       1.725489             0.00794509869            0.000287943996           
       1.728130              0.0083785006            0.000301712727           
       1.730770             0.00887237336            0.000303914942           
       1.733410             0.00816885756             0.00029544523           
       1.736051             0.00838310393            0.000294648883           
       1.738691             0.00794643093            0.000289800325           
       1.741332             0.00842997542            0.000296649942           
       1.743972             0.00857324158            0.000299271044           
       1.746612             0.00832133609            0.000294909389           
       1.749253             0.00752730999            0.000281698656           
       1.751893             0.00826052327            0.000293329175           
       1.754533             0.00809529535            0.000286395334           
       1.757174             0.00801234641              0.0002902514           
       1.759814             0.00837329393            0.000292193524           
       1.762455             0.00817416731            0.000291156085           
       1.765095             0.00810146486             0.00028578784           
       1.767735             0.00792439485            0.000287450261           
       1.770376             0.00820093177            0.000287988155           
       1.773016             0.00845336133            0.000292848236           
       1.775657             0.00860386578             0.00029604898           
       1.778297             0.00842967592            0.000294470363           
       1.780937             0.00887121536            0.000300674334           
       1.783578              0.0081629911            0.000287068364           
       1.786218             0.00824101512            0.000293039777           
       1.788858             0.00857885235            0.000291557593           
       1.791499             0.00867503894            0.000298591009           
       1.794139             0.00862132582            0.000292168509           
       1.796780             0.00850316225            0.000291883459           
       1.799420             0.00921131833            0.000303407889           
       1.802060             0.00908806517            0.000297664479           
       1.804701             0.00911469498            0.000302099531           
       1.807341             0.00923324644            0.000301119837           
       1.809981             0.00865206878            0.000293424829           
       1.812622             0.00879111287             0.00029416174           
       1.815262             0.00912036579             0.00030068803           
       1.817903             0.00862074379            0.000288724381           
       1.820543             0.00888087688            0.000296670264           
       1.823183             0.00825807684            0.000281670805           
       1.825824             0.00873266151            0.000294007308           
       1.828464             0.00794830126            0.000279632362           
       1.831105             0.00855201674            0.000291180744           
       1.833745              0.0083952011            0.000288318674           
       1.836385             0.00889166819            0.000295567336           
       1.839026              0.0086850147            0.000296503614           
       1.841666             0.00846959239            0.000289001335           
       1.844306             0.00851489643            0.000293431529           
       1.846947             0.00801135454             0.00028096542           
       1.849587             0.00823794221            0.000288775239           
       1.852228             0.00865532434             0.00029285216           
       1.854868             0.00930229618            0.000309168289           
       1.857508              0.0083740383            0.000287920903           
       1.860149             0.00859634043            0.000294055783           
       1.862789             0.00830304607            0.000290274662           
       1.865429             0.00859438285             0.00029621369           
       1.868070             0.00857046114            0.000294779038           
       1.870710             0.00857577553            0.000295673447           
       1.873351             0.00924046879             0.00030887758           
       1.875991             0.00843901618            0.000296775606           
       1.878631             0.00950305808             0.00031200282           
       1.881272             0.00888869586            0.000301042172           
       1.883912             0.00883724069            0.000303689897           
       1.886553             0.00864849182            0.000296825441           
       1.889193             0.00841212912            0.000296122871           
       1.891833             0.00819213613            0.000288899646           
       1.894474             0.00848755402            0.000296389894           
       1.897114             0.00854255993            0.000295042317           
       1.899754             0.00853690232             0.00029825236           
       1.902395             0.00832953543            0.000294670526           
       1.905035             0.00809389309            0.000289334174           
       1.907676             0.00908037421            0.000306815625           
       1.910316             0.00811482613            0.000291894256           
       1.912956             0.00776781984            0.000285573728           
       1.915597             0.00861764424            0.000297653849           
       1.918237             0.00883750547            0.000306002543           
       1.920878             0.00886147188            0.000300994344           
       1.923518             0.00883072904             0.00030845489           
       1.926158             0.00912404298             0.00030633099           
       1.928799             0.00869064816            0.000302939886           
       1.931439             0.00890197997            0.000304143998           
       1.934079             0.00858768111            0.000301751767           
       1.936720             0.00833591736            0.000295545853           
       1.939360             0.00883982198             0.00030728088           
       1.942001             0.00799406402            0.000291087558           
       1.944641             0.00867154497            0.000301864889           
       1.947281             0.00881331327            0.000305792717           
       1.949922             0.00841614245            0.000299197048           
       1.952562             0.00867210957            0.000306326301           
       1.955202             0.00853722738            0.000296298449           
       1.957843             0.00760975868            0.000288627634           
       1.960483             0.00813299837            0.000293626091           
       1.963124             0.00803689045             0.00029166959           
       1.965764             0.00830930252             0.00029667753           
       1.968404             0.00826007599             0.00030108692           
       1.971045             0.00827830274            0.000293863206           
       1.973685             0.00795947281            0.000293525958           
       1.976326              0.0084966939            0.000301947712           
       1.978966              0.0081596312             0.00029729818           
       1.981606             0.00818762735            0.000294658283           
       1.984247             0.00827537815            0.000298816132           
       1.986887             0.00832862947            0.000302579636           
       1.989527             0.00802674475            0.000290856812           
       1.992168             0.00840535093            0.000304818456           
       1.994808             0.00819381159            0.000297457692           
       1.997449             0.00834747428            0.000299793637           
       2.000089             0.00800410851            0.000291834421           
       2.002729             0.00796586138            0.000297807552           
       2.005370             0.00723808377            0.000278481249           
       2.008010             0.00721375398            0.000281703902           
       2.010650             0.00786571254            0.000293316887           
       2.013291             0.00834411009            0.000303824648           
       2.015931             0.00827343201             0.00030036987           
       2.018572             0.00706500382             0.00028125462           
       2.021212             0.00825191219            0.000301235049           
       2.023852             0.00763412574            0.000291261664           
       2.026493             0.00781829773            0.000293462334           
       2.029133             0.00785815563             0.00029196506           
       2.031774              0.0079501782            0.000296517516           
       2.034414             0.00757679364            0.000287743217           
       2.037054             0.00789504145            0.000297427729           
       2.039695             0.00760156486            0.000286098715           
       2.042335             0.00780528906            0.000294841758           
       2.044975              0.0078853327            0.000293981244           
       2.047616             0.00754783218            0.000288853565           
       2.050256             0.00734922226            0.000281675086           
       2.052897             0.00735155866             0.00029006357           
       2.055537             0.00799058714            0.000294162874           
       2.058177              0.0079287767             0.00029561128           
       2.060818             0.00761238495            0.000290522747           
       2.063458              0.0079326574            0.000296979777           
       2.066098              0.0081805873            0.000300246658           
       2.068739             0.00764649509            0.000293306677           
       2.071379             0.00780278643             0.00029191355           
       2.074020             0.00809104673            0.000301327356           
       2.076660              0.0079280192            0.000296254308           
       2.079300              0.0070736421            0.000279795642           
       2.081941             0.00745835039            0.000289050072           
       2.084581               0.007297535            0.000286128662           
       2.087222             0.00753426469            0.000290930641           
       2.089862             0.00694990679             0.00027593796           
       2.092502             0.00788254525            0.000299209564           
       2.095143             0.00715323844            0.000280958339           
       2.097783             0.00705956565            0.000283359883           
       2.100423             0.00790600462            0.000294116649           
       2.103064             0.00748227099            0.000291066495           
       2.105704             0.00746910121            0.000289697694           
       2.108345             0.00760726297            0.000293707041           
       2.110985             0.00767612926            0.000290889448           
       2.113625             0.00775231149            0.000296935217           
       2.116266             0.00737388461            0.000287453693           
       2.118906             0.00743976383            0.000288524973           
       2.121546               0.007770356            0.000294631601           
       2.124187             0.00718384685            0.000287212439           
       2.126827             0.00747588176            0.000288397163           
       2.129468             0.00730747424            0.000288105857           
       2.132108             0.00721827432            0.000285749538           
       2.134748             0.00688028676            0.000277928006           
       2.137389             0.00756518414            0.000293873982           
       2.140029             0.00702647934            0.000282529843           
       2.142670             0.00710066162            0.000284481414           
       2.145310             0.00721587554            0.000287875736           
       2.147950             0.00703567425            0.000285357361           
       2.150591               0.007276909            0.000287546737           
       2.153231             0.00722028356            0.000290660375           
       2.155871             0.00792075947            0.000300036579           
       2.158512             0.00761842461            0.000299556929           
       2.161152             0.00703099854            0.000280587868           
       2.163793             0.00810144589            0.000306091556           
       2.166433             0.00738085903            0.000287095505           
       2.169073             0.00718321628            0.000289838195           
       2.171714             0.00700633602            0.000280419854           
       2.174354             0.00721887309            0.000288990947           
       2.176995             0.00751116012            0.000292338139           
       2.179635             0.00734676993             0.00029459304           
       2.182275             0.00698116803            0.000281468943           
       2.184916             0.00734997876            0.000294912094           
       2.187556             0.00676688171            0.000278416641           
       2.190196             0.00721212527            0.000291948086           
       2.192837             0.00750762434             0.00029460714           
       2.195477             0.00730830497            0.000293473939           
       2.198118               0.007260331            0.000287108888           
       2.200758             0.00742080718            0.000294772153           
       2.203398             0.00740782891            0.000289630211           
       2.206039              0.0068677426            0.000283134834           
       2.208679             0.00752117336            0.000293397809           
       2.211319             0.00712749165            0.000286960315           
       2.213960             0.00704392567            0.000282239984           
       2.216600             0.00725733628            0.000293233614           
       2.219241             0.00696070781            0.000283003334           
       2.221881             0.00731377472            0.000291604026           
       2.224521             0.00684038301            0.000281030835           
       2.227162             0.00725048727            0.000293877109           
       2.229802             0.00792673099            0.000302288581           
       2.232443             0.00677212847            0.000280505451           
       2.235083             0.00707906882            0.000285072139           
       2.237723             0.00693281595            0.000284273945           
       2.240364             0.00710907415            0.000286400722           
       2.243004             0.00743954426            0.000293866999           
       2.245644             0.00713113727            0.000287046992           
       2.248285             0.00720453293            0.000290393347           
       2.250925             0.00675077806            0.000279785405           
       2.253566              0.0072108411            0.000289868982           
       2.256206             0.00648583654            0.000274087303           
       2.258846              0.0074498077            0.000293753008           
       2.261487             0.00728924424            0.000291072827           
       2.264127             0.00732651366            0.000294577087           
       2.266767             0.00720241831            0.000287350938           
       2.269408             0.00748901138            0.000296492244           
       2.272048             0.00705934785            0.000286090628           
       2.274689              0.0071891955            0.000289845061           
       2.277329             0.00696835418            0.000284979351           
       2.279969             0.00733849718            0.000293336553           
       2.282610             0.00712452079            0.000286209736           
       2.285250             0.00743817745             0.00029704146           
       2.287891              0.0068808191            0.000282812828           
       2.290531             0.00755933065            0.000297890798           
       2.293171             0.00668402395            0.000280099933           
       2.295812             0.00681289121            0.000281286277           
       2.298452             0.00743597386            0.000295749767           
       2.301092             0.00739035963             0.00029671416           
       2.303733             0.00694429093             0.00028193126           
       2.306373             0.00733939287            0.000296929936           
       2.309014             0.00745444479            0.000293481651           
       2.311654             0.00723906277            0.000291955524           
       2.314294             0.00738794154            0.000294298529           
       2.316935             0.00676313647            0.000282691998           
       2.319575             0.00725658362             0.00029172673           
       2.322215             0.00673137357            0.000284975085           
       2.324856             0.00700638796            0.000283437099           
       2.327496              0.0071439856             0.00029322106           
       2.330137             0.00705947825            0.000286105973           
       2.332777             0.00701328958            0.000288287412           
       2.335417             0.00680715044            0.000283166407           
       2.338058             0.00679230536            0.000283989556           
       2.340698             0.00741253113            0.000293751334           
       2.343339             0.00714133245            0.000293829677           
       2.345979             0.00727919696             0.00029073272           
       2.348619             0.00738211244            0.000298309826           
       2.351260             0.00722677814            0.000288880462           
       2.353900              0.0070061931             0.00029046261           
       2.356540             0.00723702333            0.000291148635           
       2.359181             0.00721428419            0.000294578033           
       2.361821              0.0071623952            0.000289940445           
       2.364462              0.0065203336            0.000281263177           
       2.367102             0.00676734698            0.000278255179           
       2.369742             0.00733015787            0.000299972924           
       2.372383             0.00726777352            0.000289986523           
       2.375023             0.00664112059            0.000284425218           
       2.377663             0.00717247739            0.000289303396           
       2.380304             0.00730746544            0.000296063817           
       2.382944             0.00763922011            0.000299748974           
       2.385585             0.00685670617            0.000286666771           
       2.388225             0.00679461238            0.000284076454           
       2.390865             0.00669131033             0.00028263059           
       2.393506             0.00722469331            0.000292325857           
       2.396146             0.00668892171            0.000282210176           
       2.398787             0.00706231182            0.000290233653           
       2.401427             0.00690370988            0.000285213795           
       2.404067             0.00697598309            0.000291078778           
       2.406708             0.00715845045            0.000291154894           
       2.409348             0.00691771006            0.000288370354           
       2.411988             0.00700038828            0.000289162018           
       2.414629             0.00678413546            0.000285592043           
       2.417269             0.00710549715            0.000289623669           
       2.419910             0.00721562017            0.000295539949           
       2.422550             0.00758723283            0.000298454423           
       2.425190             0.00737965048             0.00030361071           
       2.427831             0.00685731209            0.000281661719           
       2.430471             0.00701116393             0.00029312912           
       2.433112             0.00731122044            0.000292272737           
       2.435752             0.00750421002             0.00030360132           
       2.438392              0.0069013512            0.000286257261           
       2.441033             0.00746185332            0.000299018706           
       2.443673             0.00715443246            0.000293576157           
       2.446313             0.00683104067             0.00028533598           
       2.448954             0.00678640645            0.000286897791           
       2.451594              0.0070235763            0.000290116703           
       2.454235             0.00667952632             0.00028204147           
       2.456875             0.00678787721            0.000285759988           
       2.459515             0.00737821576            0.000298386537           
       2.462156             0.00761608912             0.00030159562           
       2.464796             0.00803886207            0.000315319031           
       2.467436              0.0072828955            0.000293833728           
       2.470077             0.00748646652            0.000302020116           
       2.472717             0.00732565562            0.000295020536           
       2.475358             0.00722227841            0.000296250293           
       2.477998             0.00754726115            0.000301226482           
       2.480638             0.00716728071            0.000294258911           
       2.483279             0.00757293081            0.000303770878           
       2.485919             0.00704877797            0.000291017734           
       2.488560             0.00744891874            0.000300404791           
       2.491200             0.00743986053            0.000299810468           
       2.493840             0.00754701709            0.000300317787           
       2.496481             0.00749831365            0.000303261708           
       2.499121             0.00674423762            0.000283779446           
       2.501761              0.0068869699            0.000291636076           
       2.504402              0.0069690626            0.000287746937           
       2.507042             0.00694649847            0.000292056282           
       2.509683             0.00697591812            0.000290008737           
       2.512323             0.00676711935             0.00028675402           
       2.514963              0.0130907463            0.000399625014           
       2.517604              0.0309957099            0.000612516357           
       2.520244              0.0310893468            0.000613574979           
       2.522884             0.00792561784            0.000309120177           
       2.525525             0.00896364921              0.0003314408           
       2.528165              0.0152847483            0.000430828759           
       2.530806              0.0204586191            0.000496569915           
       2.533446              0.0185125222            0.000476559861           
       2.536086              0.0138269303            0.000408401427           
       2.538727               0.011315388            0.000371821423           
       2.541367             0.00915573414            0.000333505228           
       2.544008              0.0099061047            0.000347196439           
       2.546648             0.00743844673            0.000301201969           
       2.549288             0.00671451811            0.000286211194           
       2.551929             0.00683168304             0.00028965113           
       2.554569              0.0068110433            0.000286570358           
       2.557209             0.00703743926            0.000294585424           
       2.559850             0.00713279114            0.000293164059           
       2.562490             0.00731889251            0.000299126149           
       2.565131             0.00684946855            0.000289877894           
       2.567771              0.0069342212            0.000290119962           
       2.570411             0.00670053441            0.000288659922           
       2.573052             0.00702179778             0.00029204961           
       2.575692             0.00746611135             0.00030194667           
       2.578332             0.00675163125            0.000286287603           
       2.580973             0.00763916591            0.000306992827           
       2.583613             0.00681712878            0.000287362576           
       2.586254             0.00722902809            0.000298534609           
       2.588894             0.00714983578            0.000295311183           
       2.591534             0.00658775141            0.000283987066           
       2.594175             0.00726826709            0.000300026134           
       2.596815             0.00699554022            0.000291606716           
       2.599456             0.00750191774            0.000304447118           
       2.602096             0.00722072993            0.000297569203           
       2.604736             0.00680717224             0.00028967987           
       2.607377             0.00698623924            0.000292342997           
       2.610017             0.00634358558            0.000278475254           
       2.612657             0.00679333113            0.000290213523           
       2.615298              0.0073158593            0.000298222125           
       2.617938             0.00657678628            0.000285231044           
       2.620579             0.00705161519            0.000292935541           
       2.623219             0.00697372614            0.000295973033           
       2.625859              0.0067611197             0.00028651484           
       2.628500             0.00758137486            0.000308246281           
       2.631140             0.00712243263            0.000293502038           
       2.633780             0.00693794657            0.000293396555           
       2.636421             0.00674686236            0.000286695204           
       2.639061             0.00693818993            0.000294207945           
       2.641702             0.00738261377            0.000300240155           
       2.644342             0.00751242851            0.000305352797           
       2.646982             0.00699038384             0.00029430211           
       2.649623             0.00716447363            0.000299730384           
       2.652263              0.0069911107            0.000293725795           
       2.654904             0.00699917555            0.000295490943           
       2.657544             0.00700802725            0.000293597458           
       2.660184             0.00747999714            0.000303710827           
       2.662825             0.00749309515            0.000304705228           
       2.665465             0.00708988057            0.000296941725           
       2.668105             0.00696266611            0.000294382153           
       2.670746             0.00695108971            0.000291648518           
       2.673386             0.00701043188            0.000296440496           
       2.676027             0.00688160832            0.000291207386           
       2.678667               0.007753126            0.000310704649           
       2.681307             0.00722855616            0.000297650453           
       2.683948             0.00751612917            0.000306527687           
       2.686588              0.0073849377            0.000301052516           
       2.689229             0.00718043831            0.000299519192           
       2.691869             0.00734132247            0.000299833134           
       2.694509             0.00683246802            0.000293222068           
       2.697150             0.00706868549            0.000293487605           
       2.699790             0.00759868011              0.0003106121           
       2.702430             0.00734398369            0.000299507424           
       2.705071             0.00644795352            0.000284482862           
       2.707711             0.00697914987            0.000293034222           
       2.710352             0.00669853738            0.000288716763           
       2.712992             0.00634114076            0.000281822347           
       2.715632             0.00706765117            0.000295836558           
       2.718273             0.00765276464            0.000308860841           
       2.720913             0.00719735493            0.000300029949           
       2.723553             0.00669034377             0.00028826414           
       2.726194             0.00735780699            0.000303759655           
       2.728834             0.00641916304             0.00028120126           
       2.731475             0.00667042504             0.00028915715           
       2.734115             0.00682942777            0.000290839742           
       2.736755             0.00691619219            0.000294616154           
       2.739396             0.00719597539            0.000298927058           
       2.742036             0.00674679083            0.000291422609           
       2.744677             0.00701462534            0.000297585219           
       2.747317             0.00757884195            0.000307819061           
       2.749957             0.00717515154            0.000301681626           
       2.752598             0.00691294918             0.00029700986           
       2.755238             0.00694159698            0.000297490503           
       2.757878             0.00728550097            0.000303902887           
       2.760519             0.00674432854            0.000289310754           
       2.763159             0.00666710503            0.000292326797           
       2.765800             0.00667900017            0.000287631097           
       2.768440             0.00631281021            0.000283318727           
       2.771080             0.00692942896            0.000294331889           
       2.773721             0.00657757282            0.000290279852           
       2.776361             0.00665560098            0.000288860395           
       2.779001             0.00705908163             0.00030061439           
       2.781642             0.00663526953            0.000289461889           
       2.784282             0.00735872816            0.000304940402           
       2.786923              0.0063119496            0.000280272035           
       2.789563             0.00725504174            0.000301085269           
       2.792203             0.00693545577            0.000296253015           
       2.794844             0.00676232523            0.000291200874           
       2.797484             0.00675674338            0.000291490799           
       2.800125             0.00643804331            0.000284165595           
       2.802765             0.00622398429            0.000284581104           
       2.805405             0.00722021007            0.000302086975           
       2.808046             0.00688173092            0.000299443337           
       2.810686             0.00633768581            0.000284301212           
       2.813326             0.00658619369             0.00029340723           
       2.815967             0.00688501615             0.00029809895           
       2.818607              0.0072911092            0.000309830787           
       2.821248             0.00680801956            0.000295657527           
       2.823888             0.00655076202            0.000294688917           
       2.826528             0.00639779888             0.00028949051           
       2.829169             0.00627708588            0.000285480516           
       2.831809             0.00625262109            0.000285173283           
       2.834449             0.00639792724            0.000283432696           
       2.837090             0.00714984689            0.000301428571           
       2.839730             0.00627738271            0.000280433705           
       2.842371             0.00690916205            0.000296257276           
       2.845011             0.00691016047            0.000295617895           
       2.847651             0.00656044063            0.000288569214           
       2.850292             0.00643683112            0.000284213636           
       2.852932             0.00625898165            0.000280762296           
       2.855573             0.00730162795            0.000305910491           
       2.858213             0.00733630337            0.000303195476           
       2.860853             0.00690559207            0.000296362388           
       2.863494             0.00621511276            0.000281832843           
       2.866134             0.00738172947            0.000311455162           
       2.868774              0.0073734759            0.000306516039           
       2.871415             0.00729402202             0.00030787745           
       2.874055             0.00702658112            0.000303677296           
       2.876696             0.00675358988            0.000295038892           
       2.879336             0.00681085592            0.000298253887           
       2.881976             0.00653975903            0.000292017281           
       2.884617             0.00665638087            0.000292972908           
       2.887257             0.00616387235            0.000279960311           
       2.889897             0.00714320538            0.000304835699           
       2.892538              0.0069924869            0.000299511451           
       2.895178             0.00690637346            0.000294626005           
       2.897819             0.00697465473            0.000299124014           
       2.900459             0.00654393966            0.000287341817           
       2.903099             0.00685842048            0.000295701119           
       2.905740             0.00714542614            0.000298455751           
       2.908380             0.00653424975            0.000289211124           
       2.911021             0.00651388675            0.000289309064           
       2.913661              0.0068175785            0.000292719189           
       2.916301             0.00651356015            0.000290188394           
       2.918942             0.00716740156             0.00029981259           
       2.921582             0.00682270704            0.000295583449           
       2.924222             0.00674508055            0.000292192461           
       2.926863              0.0071254155             0.00030111513           
       2.929503              0.0068037172            0.000297505584           
       2.932144             0.00708933625            0.000298705258           
       2.934784             0.00758038497            0.000310189758           
       2.937424             0.00706984882            0.000300116185           
       2.940065             0.00686683158            0.000296016467           
       2.942705             0.00655235012            0.000290037294           
       2.945346              0.0064203397            0.000285404984           
       2.947986             0.00778866006            0.000315449617           
       2.950626             0.00799433013            0.000320570062           
       2.953267             0.00996444261             0.00035409522           
       2.955907              0.0095963187            0.000352087039           
       2.958547             0.00801275669             0.00031842894           
       2.961188             0.00719941663            0.000304470388           
       2.963828             0.00698863275            0.000298280145           
       2.966469             0.00659068852            0.000289735548           
       2.969109              0.0069316372            0.000298654977           
       2.971749             0.00812253391            0.000322343065           
       2.974390             0.00875808967            0.000335635072           
       2.977030             0.00966644923            0.000351940151           
       2.979670             0.00837360293            0.000325448655           
       2.982311               0.007837606            0.000317132692           
       2.984951             0.00744724301            0.000309933513           
       2.987592             0.00697610872            0.000298957236           
       2.990232             0.00734319208            0.000307505197           
       2.992872             0.00745771033            0.000307469196           
       2.995513              0.0090631155            0.000341614038           
       2.998153              0.0093451523            0.000349126672           
       3.000794              0.0160562417            0.000450967986           
       3.003434              0.0389116634            0.000709487053           
       3.006074              0.0366075823            0.000690378889           
       3.008715              0.0217051918            0.000535646521           
       3.011355              0.0203179193            0.000523635744           
       3.013995              0.0183513553            0.000495216079           
       3.016636              0.0298102463            0.000632349202           
       3.019276               0.133384185             0.00136956553           
       3.021917               0.396531802             0.00232135132           
       3.024557               0.140042092             0.00139054345           
       3.027197              0.0905535171             0.00113693745           
       3.029838              0.0899282097             0.00112758722           
       3.032478              0.0792255832              0.0010646878           
       3.035118              0.0496431867            0.000847128186           
       3.037759              0.0963511103             0.00118225698           
       3.040399              0.0916299961             0.00116612104           
       3.043040              0.0499780545              0.0008695854           
       3.045680              0.0576655695            0.000919687382           
       3.048320              0.0897833341             0.00116598643           
       3.050961               0.249591988             0.00196355975           
       3.053601              0.0994027188             0.00123368156           
       3.056242               0.047442646            0.000857766592           
       3.058882               0.208360881             0.00182433949           
       3.061522               0.224461293             0.00188039391           
       3.064163              0.0294496326            0.000682350602           
       3.066803               0.019218976            0.000561889063           
       3.069443              0.0355544768            0.000759154984           
       3.072084              0.0995789669             0.00128178737           
       3.074724              0.0348368781             0.00076262096           
       3.077365              0.0106067063            0.000420502274           
       3.080005             0.00931220587            0.000398376642           
       3.082645             0.00914998964            0.000396902244           
       3.085286             0.00840035269            0.000380365585           
       3.087926             0.00806746678            0.000375124555           
       3.090566             0.00710236915             0.00035559787           
       3.093207              0.0082769574            0.000379730234           
       3.095847             0.00733388378            0.000364935444           
       3.098488             0.00720894348            0.000361157516           
       3.101128             0.00799491481            0.000382408128           
       3.103768             0.00929732755            0.000414704843           
       3.106409             0.00911299606            0.000413323231           
       3.109049               0.010288022            0.000442576411           
       3.111690                0.01211133            0.000478304945           
       3.114330              0.0147808149            0.000533095833           
       3.116970              0.0156279195            0.000555784848           
       3.119611              0.0148940082            0.000539047203           
       3.122251              0.0114572365            0.000476653914           
       3.124891              0.0093611593            0.000432943626           
       3.127532             0.00721504169            0.000386936433           
       3.130172             0.00893657144            0.000421772588           
       3.132813             0.00819376625            0.000412083159           
       3.135453             0.00796509242            0.000414862663           
       3.138093             0.00735093602            0.000389091222           
       3.140734             0.00682167331            0.000381798255           
       3.143374             0.00641782805            0.000375985605           
       3.146014             0.00603874007            0.000362064799           
       3.148655             0.00587558143             0.00035995188           
       3.151295             0.00627854839            0.000375035737           
       3.153936             0.00743572366              0.0004141609           
       3.156576             0.00734008006            0.000406765001           
       3.159216             0.00652064419            0.000386523578           
       3.161857             0.00641558295            0.000388100325           
       3.164497             0.00694748351            0.000412383935           
       3.167138             0.00605380309            0.000375712525           
       3.169778             0.00660740967            0.000399603416           
       3.172418             0.00594415683            0.000381231752           
       3.175059             0.00617293963            0.000393583262           
       3.177699             0.00660722716            0.000405584597           
       3.180339             0.00546652022            0.000372213406           
       3.182980             0.00620491038            0.000401909218           
       3.185620             0.00557400623            0.000385091581           
       3.188261             0.00571622539            0.000384864201           
       3.190901             0.00687796686            0.000428670774           
       3.193541             0.00606944228            0.000404014508           
       3.196182             0.00607773604            0.000412702318           
       3.198822             0.00578313396            0.000397695542           
       3.201463             0.00568827833             0.00039952106           
       3.204103             0.00640043798            0.000429436641           
       3.206743             0.00616860532            0.000425151895           
       3.209384             0.00606073198            0.000419539492           
       3.212024               0.006495325            0.000435863821           
       3.214664             0.00597732906            0.000426092468           
       3.217305             0.00536266347            0.000413006074           
       3.219945             0.00519318213            0.000403028806           
       3.222586             0.00553158181            0.000418306723           
       3.225226             0.00581626893            0.000438599138           
       3.227866             0.00522588702            0.000418959853           
       3.230507             0.00509170143            0.000418480802           
       3.233147              0.0052509007            0.000418686831           
       3.235787             0.00581024337             0.00044054228           
       3.238428             0.00608785721            0.000458908255           
       3.241068             0.00544993106            0.000443003876           
       3.243709             0.00562140669            0.000447421953           
       3.246349             0.00575066635            0.000450004805           
       3.248989             0.00549558071            0.000449966078           
       3.251630             0.00609091843            0.000475807767           
       3.254270             0.00707997309            0.000528755047           
       3.256911              0.0061491863            0.000480426839           
       3.259551             0.00534016789            0.000457602226           
       3.262191             0.00511972996            0.000452180028           
       3.264832             0.00508025522            0.000454659867           
       3.267472             0.00594465194            0.000498795752           
       3.270112             0.00484730534            0.000451693967           
       3.272753             0.00548677225            0.000486471209           
       3.275393             0.00545041342            0.000487352386           
       3.278034             0.00572404817            0.000509610227           
       3.280674             0.00648187953            0.000543870602           
       3.283314             0.00578394525            0.000516595097           
       3.285955             0.00557539692            0.000516723025           
       3.288595             0.00626382164            0.000553806189           
       3.291235             0.00624744859            0.000556330884           
       3.293876             0.00610840274            0.000553362327           
       3.296516             0.00735110563            0.000619428252           
       3.299157             0.00555051603            0.000546381966           
       3.301797             0.00566621454            0.000552281762           
       3.304437             0.00598612159            0.000578298782           
       3.307078             0.00547812358            0.000558591145           
       3.309718              0.0054216144            0.000561249761           
       3.312359             0.00612981842            0.000608840294           
       3.314999             0.00630521096            0.000623967004           
       3.317639             0.00518957628            0.000572175476           
       3.320280             0.00600439892            0.000624445054           
       3.322920             0.00457700006            0.000553349637           
       3.325560              0.0046881058            0.000570839521           
       3.328201             0.00618439858            0.000658409462           
       3.330841             0.00518417262             0.00061748022           
       3.333482             0.00515996444            0.000623858702           
       3.336122             0.00568242239             0.00066891006           
       3.338762             0.00389060735             0.00055855228           
       3.341403             0.00437357969            0.000597701027           
       3.344043             0.00514613931            0.000673090686           
       3.346683             0.00560835613            0.000709795511           
       3.349324             0.00586728299            0.000737234018           
       3.351964             0.00547227624            0.000734874231           
       3.354605             0.00481408435            0.000697069546           
       3.357245             0.00587592088            0.000797187299           
       3.359885             0.00451974869            0.000699416085           
       3.362526             0.00543347058            0.000806072384           
       3.365166             0.00438585469            0.000715265429           
       3.367807             0.00554084429            0.000860598339           
       3.370447             0.00544537464            0.000853482772           
       3.373087             0.00529670501            0.000888382928           
       3.375728              0.0040392627            0.000769933004           
       3.378368             0.00407210275            0.000835345435           
       3.381008              0.0048405939            0.000902823075           
       3.383649             0.00390342707            0.000877394571           
       3.386289             0.00623871469               0.001109682           
       3.388930             0.00444585676             0.00102879472           
       3.391570             0.00468046009             0.00105603262           
       3.394210              0.0064258949             0.00132581578           
       3.396851              0.0031249151             0.00100151755           
       3.399491             0.00550396368              0.0013532831           
       3.402131             0.00731324601             0.00184651896           
       3.404772             0.00631941644              0.0017172094           
       3.407412             0.00488573883             0.00187360309           
       3.410053             0.00594632704             0.00215230422           
       3.412693             0.00442639758              0.0026272506           
       3.415333             0.00215767163             0.00224745595           
