################################################################################
# EDF_DataBlockID                     0.Image.Psd
# EDF_BinarySize                      2105344
# EDF_HeaderSize                      2560
# ByteOrder                           LowByteFirst
# DataType                            FloatValue
# Dim_1                               512
# Dim_2                               1028
# Image                               0
# HeaderID                            EH:000000:000000:000000
# Size                                2105344
# Center_1                            304.9000
# Center_2                            588.7000
# Comment                             Xenocs_Cell_Window - front_window_open_only
# DDummy                              0.6
# Date                                2025-10-20T06:13:09
# Delta                               21.910000
# Dummy                               -1.5
# ExposureTime                        360
# Gamma                               15.360000
# Intensity1                          8.82035e-10
# PSize_1                             7.5e-05
# PSize_2                             7.5e-05
# Pressure                            0.0326519
# SampleDistance                      0.115750
# SampleEnvKind                       large
# SampleEnvPN                         ElectroChemical cell
# SampleEnvSN                         1141
# Thickness                           0
# Wavelength                          1.541891e-10
# Wavelength                          1.54189e-10
# aux                                 0
# aux_dial                            0.002375
# beamx                               588.429
# beamx_dial                          588.429
# beamz                               657.855
# beamz_dial                          657.855
# det0x                               -0.000396875
# det0x_dial                          6.36905
# det0xvd                             -0.0005
# det0xvd_dial                        -0.0005
# det0y                               450.002
# det0y_dial                          481.635
# det0z                               0
# det0z_dial                          1.2295
# det0zvd                             0
# det0zvd_dial                        0
# mag                                 1.818
# mag_dial                            1.818
# om                                  0.2499
# om_dial                             -0.610199
# phi                                 -0.0120535
# phi_dial                            0
# ry                                  0.599993
# ry_dial                             0.599993
# s1bot                               0.8
# s1bot_dial                          -1.66094
# s1hl                                0.8
# s1hl_dial                           -0.608437
# s1hr                                0.8
# s1hr_dial                           0.970938
# s1top                               0.8
# s1top_dial                          -0.461562
# s2bot                               0.45
# s2bot_dial                          1.36109
# s2hl                                0.45
# s2hl_dial                           -0.83375
# s2hr                                0.45
# s2hr_dial                           -0.118594
# s2top                               0.45
# s2top_dial                          1.44734
# w2theta                             32
# w2theta_dial                        32
# waxsch                              19.2605
# waxsch_dial                         -32.7238
# waxsh                               137.085
# waxsh_dial                          -43.5335
# waxsth                              26.0607
# waxsth_dial                         -19.4068
# waxsz                               67.0407
# waxsz_dial                          -23.7962
# wind                                65.9854
# wind_dial                           66.0041
# wpsi                                124
# wpsi_dial                           124
# wstod                               115
# wstod_dial                          115
# x                                   0
# x_dial                              1.00969
# z                                   0
# z_dial                              13.3172
# CountCutoff                         6807993
# DetectorModel                       Dectris EIGER2 Si 500K, S/N E-01-0554
# ThresholdSetting                    4023.88989258
# Saturation                          0
# FlatField                           Corrected
# BackgroundReductionExtra            0.02
# BackgroundCorrectionConstant        0.0026712
# Detector                            0
# Monitor                             0
# Pil_Roi0                            0
# SumForIntensity1                    3.17532e+08
# TransmittedFlux                     882035
# det                                 0
# mon                                 0
# pilai0                              3.17532e+08
# pilai1                              684460
# pilct0                              5.49288e+08
# pilct1                              684460
# pilroi0                             0
# pilroi1                             0
# sec                                 1
# title                               20251017__1_00546.edf
# usaxs0                              0
# Operation                           Azimuthal average I(q)
# Error_model                         ErrorModel.poisson
# Geometrical_correction              True
# Transmission_correction             True
# Thickness_correction                False
# Binning mode                        Uniform
# Binning factor                      1.0
# Psi                                 0.0
# Omega                               0.2499
# MaskInvalidPixels                   True
# DetectorEdge                        3
# MaskFiles                           ['20251017__1_00233_mask.edf']
################################################################################
    q(A⁻¹)                Intensity(a.u.)            Sigma_I(a.u.)            
       0.690460           -2.30266307e-05                         0           
       0.693100             0.00954365924             0.00405515255           
       0.695741              0.0047006868             0.00240434349           
       0.698381             0.00407081755             0.00209268008           
       0.701021             0.00483426203             0.00186119544           
       0.703662             0.00891657049             0.00233974296           
       0.706302             0.00893187976             0.00226160373           
       0.708942             0.00746199027             0.00183618461           
       0.711583             0.00707920796             0.00178814113           
       0.714223             0.00601970075              0.0014368821           
       0.716864             0.00844137626               0.001736329           
       0.719504             0.00574863033             0.00132612495           
       0.722144             0.00730053029             0.00144332838           
       0.724785             0.00627962412             0.00131667224           
       0.727425             0.00679915389             0.00127079692           
       0.730065             0.00692719825             0.00131983332           
       0.732706             0.00724972745             0.00121416851           
       0.735346             0.00631649539             0.00122418923           
       0.737987             0.00738547948             0.00114574444           
       0.740627             0.00635479463             0.00116427874           
       0.743267             0.00813130876             0.00113284883           
       0.745908             0.00594653739             0.00103826201           
       0.748548              0.0079815657             0.00112188706           
       0.751189             0.00718067255             0.00105408754           
       0.753829             0.00640080085             0.00100417957           
       0.756469             0.00759303967             0.00102868424           
       0.759110             0.00696200917             0.00101883802           
       0.761750             0.00817898961             0.00101066181           
       0.764390             0.00724590284             0.00102113238           
       0.767031             0.00770812932            0.000953022475           
       0.769671             0.00657682879            0.000933600493           
       0.772312             0.00709825769            0.000883842554           
       0.774952             0.00639748729            0.000899539121           
       0.777592             0.00643272973             0.00082502683           
       0.780233             0.00562515212            0.000813325531           
       0.782873             0.00792296196            0.000882672974           
       0.785513             0.00620392964            0.000830871523           
       0.788154             0.00653189204            0.000783077908           
       0.790794             0.00645522271            0.000805692618           
       0.793435             0.00683017874            0.000796017721           
       0.796075             0.00914079437            0.000925736013           
       0.798715             0.00624866213            0.000761030923           
       0.801356             0.00608269238            0.000730761868           
       0.803996              0.0067683579            0.000783168104           
       0.806637             0.00692579437            0.000748861061           
       0.809277             0.00581934342            0.000718129612           
       0.811917             0.00719958143            0.000755864599           
       0.814558             0.00737608891            0.000783769224           
       0.817198             0.00744313776            0.000750713528           
       0.819838             0.00647333461            0.000730279526           
       0.822479             0.00570925251            0.000632026833           
       0.825119             0.00577138029            0.000682643365           
       0.827760             0.00754156922            0.000723066827           
       0.830400             0.00665966293            0.000715913316           
       0.833040             0.00638649928            0.000654304625           
       0.835681             0.00656282101            0.000694590675           
       0.838321             0.00672766109               0.000658238           
       0.840961             0.00727828295            0.000715620689           
       0.843602              0.0072121619            0.000671017378           
       0.846242             0.00631475739            0.000650052308           
       0.848883             0.00699161216            0.000665382248           
       0.851523             0.00760186701             0.00069901303           
       0.854163             0.00711288182            0.000668302232           
       0.856804             0.00575550596            0.000585780509           
       0.859444             0.00698762132            0.000650083552           
       0.862085             0.00713974146             0.00064756285           
       0.864725             0.00741932816            0.000657696592           
       0.867365             0.00778524622            0.000668895232           
       0.870006             0.00810128486            0.000691856993           
       0.872646             0.00666158928            0.000600072672           
       0.875286             0.00757291369            0.000661603349           
       0.877927             0.00668481148              0.0005951561           
       0.880567             0.00696122891            0.000619201101           
       0.883208             0.00759864004            0.000628245767           
       0.885848             0.00776733271            0.000651653447           
       0.888488             0.00732627133            0.000601756421           
       0.891129             0.00744126185            0.000637498424           
       0.893769             0.00728911709            0.000596402246           
       0.896410             0.00701546842            0.000603123126           
       0.899050              0.0070998157            0.000585014262           
       0.901690             0.00684786123            0.000586532921           
       0.904331             0.00689551961            0.000568021711           
       0.906971             0.00754656036            0.000613601302           
       0.909611             0.00690641387            0.000563421247           
       0.912252             0.00775399014            0.000607338184           
       0.914892             0.00692550104            0.000559437656           
       0.917533             0.00750977705            0.000595703468           
       0.920173             0.00740414194            0.000567394576           
       0.922813             0.00712376287            0.000581602479           
       0.925454             0.00805106516            0.000586802076           
       0.928094             0.00768407425            0.000585577164           
       0.930734             0.00752158505            0.000565526056           
       0.933375              0.0066914721            0.000544777903           
       0.936015             0.00722621061            0.000541679872           
       0.938656             0.00639962028            0.000531140644           
       0.941296             0.00706083348            0.000537818971           
       0.943936             0.00713432913            0.000550347046           
       0.946577             0.00811042432            0.000565113939           
       0.949217             0.00685657361            0.000537948648           
       0.951858              0.0071023832             0.00051760308           
       0.954498             0.00685786042            0.000535085028           
       0.957138             0.00766215798            0.000543618788           
       0.959779             0.00753740258            0.000550968313           
       0.962419             0.00820930698            0.000553551478           
       0.965059             0.00727349136             0.00053584622           
       0.967700             0.00719900974              0.0005158564           
       0.970340             0.00707905683            0.000525914769           
       0.972981             0.00710568021             0.00050873979           
       0.975621             0.00805689009            0.000553064856           
       0.978261             0.00684665843             0.00048644879           
       0.980902             0.00742133193            0.000530567325           
       0.983542             0.00766634042            0.000523552741           
       0.986182             0.00771642741            0.000532177525           
       0.988823             0.00732556313            0.000501793563           
       0.991463             0.00739287498            0.000516133955           
       0.994104             0.00770793419            0.000509252796           
       0.996744             0.00774142492            0.000526908236           
       0.999384              0.0077155918            0.000508174758           
       1.002025               0.007641833            0.000519821186           
       1.004665             0.00797012649            0.000509124052           
       1.007306             0.00865019446            0.000548173209           
       1.009946             0.00752514692            0.000491615863           
       1.012586             0.00779246163            0.000514662018           
       1.015227             0.00710659721            0.000476613904           
       1.017867             0.00737198248            0.000499342406           
       1.020507             0.00856305333            0.000517911621           
       1.023148             0.00793064886            0.000504440419           
       1.025788             0.00732766197            0.000479919327           
       1.028429             0.00712077545            0.000483438119           
       1.031069             0.00729635602            0.000471476064           
       1.033709              0.0071596554            0.000476007021           
       1.036350             0.00781407899            0.000484246146           
       1.038990             0.00851751667            0.000518054367           
       1.041630             0.00839353621            0.000504376364           
       1.044271             0.00706766405            0.000462880573           
       1.046911             0.00815296442            0.000487914543           
       1.049552             0.00791398651            0.000498034207           
       1.052192             0.00731599681             0.00045731553           
       1.054832             0.00796630349            0.000486488189           
       1.057473              0.0075592339            0.000467896336           
       1.060113             0.00781833152             0.00048100031           
       1.062754             0.00747806409            0.000465214043           
       1.065394             0.00786925597            0.000472205998           
       1.068034             0.00818605364            0.000479752578           
       1.070675              0.0082298628            0.000489495442           
       1.073315             0.00878815516            0.000490364628           
       1.075955              0.0080899947            0.000478374155           
       1.078596             0.00843231397            0.000487424878           
       1.081236             0.00859131682            0.000484701573           
       1.083877             0.00757169927            0.000469245892           
       1.086517             0.00717254356            0.000446378474           
       1.089157             0.00861908089            0.000492912279           
       1.091798             0.00842841337            0.000477102482           
       1.094438             0.00814057314             0.00047633692           
       1.097078             0.00791803585            0.000457708835           
       1.099719             0.00879360094            0.000494714024           
       1.102359             0.00907113877            0.000475990355           
       1.105000             0.00836802534            0.000475176147           
       1.107640             0.00857880991            0.000465440144           
       1.110280             0.00837164382            0.000468992467           
       1.112921             0.00820369515            0.000455863715           
       1.115561             0.00809232437            0.000458504615           
       1.118202             0.00869828249            0.000461487031           
       1.120842              0.0084406683            0.000468925272           
       1.123482             0.00831375831            0.000452331769           
       1.126123             0.00911994722             0.00047671246           
       1.128763             0.00787070982            0.000440664287           
       1.131403             0.00830083674            0.000451841576           
       1.134044             0.00827836471            0.000450446359           
       1.136684             0.00817654081            0.000451031838           
       1.139325             0.00889814254            0.000457256546           
       1.141965              0.0085697309            0.000454607838           
       1.144605             0.00826616746            0.000449106091           
       1.147246              0.0091422626            0.000463361324           
       1.149886             0.00853409995             0.00045086811           
       1.152527             0.00937642997            0.000473068867           
       1.155167             0.00880805938            0.000452060131           
       1.157807             0.00954864416            0.000471005561           
       1.160448             0.00851833832            0.000450956333           
       1.163088             0.00862472812             0.00043692921           
       1.165728             0.00873244673             0.00045777077           
       1.168369             0.00922456756            0.000453696569           
       1.171009             0.00867542955            0.000443632967           
       1.173650             0.00856121815            0.000437525128           
       1.176290             0.00876654997            0.000447935815           
       1.178930             0.00852954659            0.000429418755           
       1.181571             0.00819929549            0.000434774749           
       1.184211             0.00944594458            0.000452564218           
       1.186851             0.00915244334            0.000449585323           
       1.189492             0.00934600659            0.000456837356           
       1.192132             0.00882042412            0.000437233264           
       1.194773             0.00849223766            0.000426433651           
       1.197413             0.00898491134            0.000442207025           
       1.200053             0.00935549894            0.000448395366           
       1.202694             0.00969211323            0.000452951564           
       1.205334             0.00950352753            0.000453426275           
       1.207975              0.0095644368            0.000445964287           
       1.210615             0.00974294123            0.000459624667           
       1.213255             0.00898917386            0.000429807592           
       1.215896             0.00924959987            0.000444253341           
       1.218536             0.00939694996            0.000434880855           
       1.221176              0.0100147378            0.000459664467           
       1.223817             0.00969527724            0.000442849333           
       1.226457             0.00926125032            0.000438320932           
       1.229098             0.00903950246            0.000426472038           
       1.231738               0.009319557            0.000439125655           
       1.234378             0.00924638202            0.000428899498           
       1.237019             0.00944336298            0.000436940091           
       1.239659             0.00971185652            0.000442868348           
       1.242299              0.0100206966            0.000447555108           
       1.244940              0.0100069339             0.00044241994           
       1.247580             0.00924073067            0.000427022459           
       1.250221              0.0107704725            0.000468540209           
       1.252861              0.0105311607            0.000446044527           
       1.255501             0.00992026507            0.000445137059           
       1.258142              0.0111967633            0.000463560458           
       1.260782             0.00976743382            0.000437853195           
       1.263423              0.0106929703            0.000449052312           
       1.266063              0.0104745052            0.000452725195           
       1.268703             0.00960744909            0.000422658585           
       1.271344             0.00974698003            0.000434988816           
       1.273984             0.00953908407             0.00042360712           
       1.276624             0.00994249391            0.000429832882           
       1.279265              0.0106698745            0.000446250582           
       1.281905             0.00970986516            0.000428325994           
       1.284546             0.00966846757            0.000422742716           
       1.287186             0.00928659278            0.000414708116           
       1.289826               0.010393457             0.00044100208           
       1.292467             0.00919677032            0.000407433711           
       1.295107              0.0105809662            0.000444723758           
       1.297747              0.0097553594             0.00041582051           
       1.300388              0.0106851069            0.000446359996           
       1.303028             0.00946389584            0.000409396575           
       1.305669              0.0100100314            0.000426483355           
       1.308309              0.0100859032            0.000421659712           
       1.310949              0.0102604745            0.000430594031           
       1.313590              0.0109205183            0.000437353195           
       1.316230               0.010904604            0.000444901045           
       1.318871              0.0107243284            0.000431689727           
       1.321511              0.0100568052            0.000420133809           
       1.324151               0.009972808            0.000420028782           
       1.326792              0.0104629328            0.000426741312           
       1.329432              0.0109732635            0.000439304238           
       1.332072              0.0106533222            0.000425430221           
       1.334713               0.010596605            0.000429558308           
       1.337353              0.0102993342            0.000416975894           
       1.339994              0.0107825065            0.000432721521           
       1.342634             0.00978820787            0.000403005954           
       1.345274              0.0106247605            0.000425363585           
       1.347915              0.0113016369            0.000439870134           
       1.350555              0.0105942606            0.000424218013           
       1.353195              0.0106104082            0.000416419539           
       1.355836              0.0106370588            0.000424808997           
       1.358476              0.0117927103            0.000446032575           
       1.361117              0.0101729046            0.000403876505           
       1.363757              0.0106997634            0.000427929936           
       1.366397              0.0109327817            0.000419094123           
       1.369038              0.0106901285            0.000423151869           
       1.371678               0.010976972            0.000420133193           
       1.374319              0.0110307805            0.000424501947           
       1.376959              0.0111674388            0.000421243217           
       1.379599              0.0107873312            0.000422082113           
       1.382240              0.0105731892            0.000409934806           
       1.384880              0.0100450868            0.000404471961           
       1.387520              0.0104185133            0.000407105374           
       1.390161              0.0106327365            0.000410151671           
       1.392801              0.0111566905            0.000422639851           
       1.395442               0.011111661            0.000417415788           
       1.398082              0.0116538476            0.000428941149           
       1.400722             0.00997677206            0.000395086017           
       1.403363              0.0107451081             0.00041382203           
       1.406003              0.0103093719            0.000395391231           
       1.408644               0.011220769            0.000421158251           
       1.411284              0.0107262477            0.000409514806           
       1.413924               0.010474857            0.000399696182           
       1.416565              0.0108148016            0.000405652722           
       1.419205              0.0105486977            0.000404577405           
       1.421845              0.0110437663            0.000408758083           
       1.424486              0.0105407143            0.000401102942           
       1.427126              0.0101140668            0.000392653645           
       1.429767              0.0101992206             0.00038822697           
       1.432407              0.0106588588            0.000406876422           
       1.435047              0.0109797559            0.000400546173           
       1.437688              0.0103328193             0.00039717154           
       1.440328              0.0107385004            0.000397046918           
       1.442968               0.010663834            0.000401141306           
       1.445609               0.010407234            0.000389767524           
       1.448249             0.00989356696             0.00038248419           
       1.450890              0.0108652061            0.000397966824           
       1.453530             0.00991189061            0.000382922735           
       1.456170              0.0104124808            0.000391589604           
       1.458811              0.0107494093            0.000394709313           
       1.461451             0.00991727648            0.000381910904           
       1.464092              0.0103357255            0.000386486331           
       1.466732              0.0100621872            0.000378998839           
       1.469372              0.0106638891            0.000388966733           
       1.472013              0.0104245556            0.000391457539           
       1.474653              0.0104028488            0.000381394061           
       1.477293             0.00952304532            0.000371052227           
       1.479934              0.0106580942            0.000388434159           
       1.482574              0.0106988045            0.000388214823           
       1.485215              0.0102545945            0.000381048803           
       1.487855              0.0107551185            0.000390156845           
       1.490495              0.0110408454            0.000394454607           
       1.493136              0.0103850292            0.000377543206           
       1.495776               0.011081543            0.000396797959           
       1.498416              0.0101374484            0.000372146122           
       1.501057              0.0100968097            0.000374593973           
       1.503697              0.0104315453            0.000377091902           
       1.506338             0.00955842209            0.000363620314           
       1.508978             0.00989493401            0.000367781317           
       1.511618             0.00999730274             0.00036949205           
       1.514259              0.0105026302            0.000379399159           
       1.516899             0.00995927516            0.000369626747           
       1.519540             0.00998558617            0.000368060762           
       1.522180               0.009494618            0.000354416333           
       1.524820             0.00981319296            0.000367590623           
       1.527461             0.00972703794             0.00035787741           
       1.530101              0.0104794279            0.000375301256           
       1.532741             0.00951426418            0.000355906826           
       1.535382              0.0101959708            0.000369248187           
       1.538022             0.00987440644            0.000360163778           
       1.540663              0.0104930512            0.000374783683           
       1.543303              0.0100630614             0.00036245696           
       1.545943              0.0103279657            0.000369254601           
       1.548584              0.0100042298            0.000365356513           
       1.551224             0.00996417898            0.000355276531           
       1.553864              0.0105822844              0.0003756947           
       1.556505              0.0103132358            0.000365182668           
       1.559145             0.00989083858            0.000358452887           
       1.561786             0.00932841107            0.000346535257           
       1.564426             0.00963020254            0.000351778139           
       1.567066             0.00992231509            0.000354286515           
       1.569707              0.0103131998            0.000366426804           
       1.572347             0.00988293778            0.000354047921           
       1.574988             0.00985600315            0.000352166421           
       1.577628              0.0095096255            0.000353711217           
       1.580268             0.00928970203            0.000337532727           
       1.582909             0.00914103711            0.000341083549           
       1.585549             0.00898378051            0.000334976932           
       1.588189             0.00891121137            0.000337347468           
       1.590830             0.00950536643            0.000342431616           
       1.593470              0.0089593223            0.000335165396           
       1.596111             0.00905977116            0.000334126771           
       1.598751             0.00948504269            0.000345373848           
       1.601391             0.00887879915            0.000332017764           
       1.604032             0.00887601219            0.000329193457           
       1.606672              0.0086259159            0.000331054125           
       1.609312             0.00876109715            0.000323710642           
       1.611953             0.00875313207            0.000328252657           
       1.614593             0.00889563302            0.000328397006           
       1.617234             0.00901491615             0.00033246536           
       1.619874             0.00884452266              0.0003254343           
       1.622514             0.00834211378            0.000318851349           
       1.625155             0.00885384029            0.000327673022           
       1.627795             0.00867650879            0.000321097124           
       1.630436              0.0091846068            0.000333685763           
       1.633076             0.00891479286            0.000327077672           
       1.635716             0.00899999698            0.000328063894           
       1.638357             0.00910856145            0.000328634407           
       1.640997             0.00901207539            0.000329445573           
       1.643637              0.0087607568            0.000318787906           
       1.646278             0.00865721477            0.000321641909           
       1.648918             0.00893559706              0.0003225596           
       1.651559              0.0088608874            0.000325246945           
       1.654199             0.00849362288             0.00031407034           
       1.656839             0.00860083459            0.000315961223           
       1.659480              0.0084571885            0.000316071024           
       1.662120              0.0085734398            0.000313971466           
       1.664761             0.00830576024            0.000312377128           
       1.667401             0.00867601504             0.00031628958           
       1.670041             0.00915702216            0.000325310874           
       1.672682              0.0086153277            0.000312572925           
       1.675322             0.00905679476             0.00032614773           
       1.677962              0.0086367889            0.000312170139           
       1.680603             0.00819326847            0.000306747574           
       1.683243             0.00872275814            0.000314162778           
       1.685884             0.00813249962            0.000304501437           
       1.688524             0.00866234468            0.000313380122           
       1.691164             0.00846938373            0.000309073608           
       1.693805             0.00841713169            0.000310610356           
       1.696445             0.00840986231            0.000306166988           
       1.699085             0.00807153451            0.000301142738           
       1.701726             0.00821652332            0.000299883261           
       1.704366             0.00820337643            0.000306934245           
       1.707007             0.00807421302            0.000298010277           
       1.709647             0.00802575868              0.0003008064           
       1.712287              0.0083645709            0.000301958057           
       1.714928             0.00934953065            0.000322451838           
       1.717568             0.00772987704            0.000290498682           
       1.720209             0.00832074143            0.000303258133           
       1.722849             0.00895901455            0.000315179054           
       1.725489             0.00851533503            0.000302377996           
       1.728130              0.0080740724            0.000300433068           
       1.730770             0.00833164775            0.000298736668           
       1.733410             0.00864634467              0.0003083213           
       1.736051             0.00795019104            0.000291059709           
       1.738691             0.00829789088            0.000300391478           
       1.741332             0.00839952954            0.000300365142           
       1.743972             0.00805527482            0.000294254616           
       1.746612             0.00797556073              0.0002928624           
       1.749253             0.00828739269            0.000299822878           
       1.751893             0.00840342023            0.000300103084           
       1.754533             0.00845653092            0.000296918081           
       1.757174             0.00799311213             0.00029406501           
       1.759814             0.00838210214            0.000296544469           
       1.762455             0.00835980546            0.000298671051           
       1.765095             0.00810807113            0.000290009137           
       1.767735             0.00804067449            0.000293708712           
       1.770376             0.00827667547            0.000293468792           
       1.773016             0.00864882552            0.000300467428           
       1.775657             0.00875639352             0.00030294956           
       1.778297             0.00868307956            0.000303154471           
       1.780937             0.00870589505            0.000302135979           
       1.783578             0.00849736787            0.000297093957           
       1.786218             0.00863093073            0.000304197732           
       1.788858             0.00861870249             0.00029642965           
       1.791499             0.00824850216            0.000295338111           
       1.794139             0.00869443825            0.000297617233           
       1.796780             0.00848243335            0.000295712999           
       1.799420             0.00946827095            0.000312027052           
       1.802060             0.00909792359            0.000302101843           
       1.804701              0.0092091094             0.00030801987           
       1.807341             0.00960265314              0.0003114933           
       1.809981             0.00891800306            0.000302177151           
       1.812622             0.00865698384            0.000296100061           
       1.815262             0.00950576604             0.00031138272           
       1.817903             0.00890673842            0.000297688032           
       1.820543             0.00863935024            0.000296809344           
       1.823183             0.00889362574            0.000296505487           
       1.825824             0.00811248938            0.000287443716           
       1.828464             0.00841415093            0.000291841034           
       1.831105             0.00819459552             0.00028912329           
       1.833745             0.00853395219            0.000294865022           
       1.836385             0.00857402457            0.000294406985           
       1.839026             0.00866855863            0.000300475519           
       1.841666             0.00872178764             0.00029748309           
       1.844306             0.00870062405            0.000300873009           
       1.846947             0.00871401348            0.000297234999           
       1.849587             0.00919051209            0.000309393633           
       1.852228             0.00890278729            0.000301273333           
       1.854868             0.00815397611            0.000293613158           
       1.857508             0.00907400689             0.00030401584           
       1.860149             0.00836835224            0.000294295644           
       1.862789             0.00912093845            0.000308603681           
       1.865429             0.00867766651            0.000301918824           
       1.868070             0.00906205492            0.000307467193           
       1.870710             0.00935930101            0.000313320106           
       1.873351             0.00905603621            0.000310169718           
       1.875991             0.00900692947            0.000311000872           
       1.878631             0.00857741598            0.000300674086           
       1.881272             0.00906381432            0.000308357667           
       1.883912              0.0086114898            0.000304089962           
       1.886553             0.00856252608            0.000299586902           
       1.889193             0.00892720385            0.000309433727           
       1.891833             0.00863679234            0.000300895438           
       1.894474             0.00831942498            0.000297652618           
       1.897114              0.0085746357            0.000299839653           
       1.899754             0.00857717813            0.000303247259           
       1.902395              0.0091944326            0.000314036198           
       1.905035             0.00862045978            0.000302884571           
       1.907676             0.00887947946            0.000307758665           
       1.910316             0.00868799009            0.000306363155           
       1.912956             0.00953927732            0.000321009106           
       1.915597             0.00830731695             0.00029644119           
       1.918237             0.00861506272            0.000306464621           
       1.920878             0.00869566089            0.000302445855           
       1.923518             0.00934622733            0.000321886295           
       1.926158             0.00883957511            0.000305846774           
       1.928799             0.00828387845            0.000300011684           
       1.931439             0.00862099068            0.000303602587           
       1.934079             0.00887535964            0.000311168613           
       1.936720             0.00886257156            0.000309114219           
       1.939360             0.00813080888            0.000298931437           
       1.942001             0.00869440374            0.000307929056           
       1.944641              0.0085645904            0.000304304655           
       1.947281              0.0091851188            0.000316658288           
       1.949922             0.00847113375            0.000304482594           
       1.952562             0.00808510009            0.000300023687           
       1.955202             0.00845098828            0.000299030605           
       1.957843             0.00906089249            0.000319469125           
       1.960483              0.0087731041            0.000309340567           
       1.963124              0.0087914398            0.000309434024           
       1.965764             0.00806146834             0.00029641514           
       1.968404              0.0082503544            0.000305229922           
       1.971045             0.00807745862            0.000294444107           
       1.973685             0.00833951865            0.000304765492           
       1.976326             0.00891288656            0.000313694484           
       1.978966             0.00861113177            0.000309797593           
       1.981606             0.00852486709            0.000304982109           
       1.984247             0.00842632145            0.000305858154           
       1.986887             0.00811830099            0.000303023588           
       1.989527             0.00876605417            0.000308320587           
       1.992168              0.0079220656            0.000300174286           
       1.994808              0.0080266925            0.000298635522           
       1.997449             0.00808062564             0.00029919773           
       2.000089             0.00777468946            0.000291751093           
       2.002729             0.00790086325            0.000300848287           
       2.005370             0.00755173576            0.000288534988           
       2.008010             0.00790764888            0.000299176049           
       2.010650             0.00806962558            0.000301360037           
       2.013291             0.00825541627             0.00030654442           
       2.015931             0.00832104994              0.0003055579           
       2.018572             0.00799232959            0.000303438787           
       2.021212             0.00756144287             0.00029249704           
       2.023852             0.00822607873            0.000306683943           
       2.026493             0.00783965417            0.000298081932           
       2.029133             0.00772663976            0.000293668143           
       2.031774             0.00807471534            0.000303121309           
       2.034414             0.00737693083            0.000287999117           
       2.037054             0.00750484658            0.000294148131           
       2.039695             0.00793386344            0.000296481569           
       2.042335             0.00761546999            0.000295415846           
       2.044975             0.00766450258            0.000293996754           
       2.047616             0.00754055607            0.000292859446           
       2.050256             0.00781163651              0.0002945708           
       2.052897             0.00818745134            0.000310505127           
       2.055537              0.0077884494            0.000294587931           
       2.058177             0.00775098976            0.000296474555           
       2.060818             0.00762001937             0.00029484159           
       2.063458             0.00725974292            0.000288183482           
       2.066098             0.00775090192            0.000296451052           
       2.068739             0.00788041668            0.000302034303           
       2.071379             0.00769076133            0.000293971344           
       2.074020              0.0081009827            0.000305841204           
       2.076660             0.00803928339            0.000302609064           
       2.079300             0.00704312036            0.000283199769           
       2.081941             0.00769268082            0.000297770372           
       2.084581             0.00739793574            0.000292226424           
       2.087222             0.00794420874            0.000303029763           
       2.089862             0.00742665193            0.000289340634           
       2.092502             0.00726844893            0.000291443278           
       2.095143             0.00784592845             0.00029847206           
       2.097783             0.00738769529            0.000294032134           
       2.100423             0.00770059381            0.000294438177           
       2.103064             0.00743009293            0.000294214151           
       2.105704             0.00744446544            0.000293371932           
       2.108345             0.00736068461            0.000293055707           
       2.110985             0.00768660774            0.000295267144           
       2.113625             0.00766229139             0.00029944452           
       2.116266             0.00805882729            0.000304822194           
       2.118906             0.00726478248            0.000289205187           
       2.121546             0.00729486047            0.000289573155           
       2.124187             0.00753255639            0.000298323073           
       2.126827             0.00778088382            0.000298445595           
       2.129468             0.00735150764            0.000293121439           
       2.132108             0.00741787795             0.00029383236           
       2.134748             0.00725430997            0.000289479645           
       2.137389             0.00768267727            0.000300399092           
       2.140029             0.00773354668            0.000300660055           
       2.142670             0.00747330828            0.000296041007           
       2.145310              0.0073103866            0.000293914933           
       2.147950             0.00696995464            0.000288099252           
       2.150591             0.00745320068            0.000295187059           
       2.153231             0.00730205856            0.000296498359           
       2.155871             0.00726251497            0.000291423955           
       2.158512             0.00682871523            0.000287678377           
       2.161152             0.00729414817            0.000289893589           
       2.163793              0.0074390348            0.000297522156           
       2.166433             0.00727697516            0.000289160735           
       2.169073             0.00708766094             0.00029203745           
       2.171714             0.00704553444            0.000285240498           
       2.174354              0.0078960516            0.000306581157           
       2.176995             0.00697772178            0.000285811519           
       2.179635              0.0072963009            0.000297794427           
       2.182275             0.00746696133            0.000295276798           
       2.184916             0.00735282115            0.000299204057           
       2.187556             0.00696657693            0.000286550751           
       2.190196             0.00726707285            0.000297265627           
       2.192837             0.00775909873            0.000303800564           
       2.195477             0.00772264262            0.000306009645           
       2.198118             0.00732216044            0.000292468423           
       2.200758              0.0070872664             0.00029220739           
       2.203398             0.00732512759            0.000292143967           
       2.206039             0.00748599703            0.000299848624           
       2.208679             0.00766339856            0.000300410915           
       2.211319             0.00768211764            0.000302193344           
       2.213960             0.00715849632            0.000288611077           
       2.216600             0.00744581217            0.000301281249           
       2.219241             0.00763274477             0.00030060497           
       2.221881             0.00737340611            0.000296994043           
       2.224521             0.00715251331            0.000291496965           
       2.227162             0.00716739179            0.000296383259           
       2.229802              0.0072255842            0.000292753504           
       2.232443             0.00747159409            0.000298865842           
       2.235083             0.00697093244             0.00028694792           
       2.237723             0.00740592692             0.00029803198           
       2.240364             0.00740587047            0.000296514939           
       2.243004             0.00682672025            0.000285545053           
       2.245644             0.00708774956            0.000290281073           
       2.248285             0.00741559591            0.000298846182           
       2.250925             0.00657071435            0.000279991838           
       2.253566             0.00738274437            0.000297514841           
       2.256206              0.0069393341            0.000287578062           
       2.258846             0.00740196067             0.00029701208           
       2.261487             0.00685575612            0.000286338027           
       2.264127             0.00762149916            0.000304762425           
       2.266767              0.0071084878            0.000289569619           
       2.269408             0.00712740924             0.00029339849           
       2.272048             0.00725367201            0.000294165159           
       2.274689             0.00669309952            0.000283681056           
       2.277329             0.00742704012            0.000298433179           
       2.279969             0.00702573556            0.000291138375           
       2.282610             0.00687458005            0.000285181005           
       2.285250             0.00744878551            0.000301520936           
       2.287891             0.00780477498            0.000305527399           
       2.290531             0.00732030736              0.0002973521           
       2.293171             0.00726673983            0.000296247536           
       2.295812             0.00674158975            0.000283827789           
       2.298452             0.00706200724            0.000292354982           
       2.301092             0.00698064272            0.000292512296           
       2.303733             0.00696278632              0.0002863596           
       2.306373             0.00749253575            0.000304319137           
       2.309014             0.00759014314            0.000300392593           
       2.311654             0.00719980402             0.00029534308           
       2.314294             0.00718567608            0.000294409025           
       2.316935             0.00721482321            0.000296171472           
       2.319575             0.00727048612            0.000296198451           
       2.322215             0.00702751862            0.000295356806           
       2.324856             0.00713495898            0.000290132432           
       2.327496              0.0066731776            0.000287463131           
       2.330137             0.00707559283            0.000290544712           
       2.332777             0.00724985512            0.000297317446           
       2.335417             0.00727891348            0.000297018342           
       2.338058             0.00645477725            0.000280818252           
       2.340698              0.0076093029            0.000301897804           
       2.343339             0.00752458987            0.000305941495           
       2.345979              0.0074274095            0.000297894027           
       2.348619             0.00709012206            0.000296548015           
       2.351260             0.00684688143            0.000285222084           
       2.353900             0.00765218699            0.000307916461           
       2.356540             0.00681887504            0.000286669886           
       2.359181             0.00682449169            0.000290622896           
       2.361821             0.00731047627            0.000297127899           
       2.364462             0.00688435859            0.000293157256           
       2.367102             0.00677743769            0.000282460508           
       2.369742             0.00680664775            0.000293212828           
       2.372383             0.00676970919            0.000283891941           
       2.375023             0.00724326676            0.000301304481           
       2.377663             0.00772289366            0.000304508837           
       2.380304             0.00670094383            0.000287581453           
       2.382944             0.00675523954            0.000285919981           
       2.385585             0.00716335948            0.000297213748           
       2.388225             0.00728465685            0.000298365346           
       2.390865             0.00703139353            0.000293883509           
       2.393506             0.00657779752            0.000282936326           
       2.396146             0.00704547129            0.000293792412           
       2.398787             0.00708314074            0.000294834428           
       2.401427             0.00671509976             0.00028532934           
       2.404067              0.0071537984            0.000298997197           
       2.406708             0.00700836885             0.00029222273           
       2.409348              0.0078585389             0.00031176781           
       2.411988             0.00739634085            0.000301494627           
       2.414629             0.00729440773            0.000300389536           
       2.417269             0.00718981733            0.000295519865           
       2.419910             0.00718248094            0.000299093888           
       2.422550             0.00750508592            0.000301096068           
       2.425190             0.00687533008            0.000297260294           
       2.427831             0.00718852869            0.000292524205           
       2.430471             0.00679478568            0.000292713478           
       2.433112             0.00696509378             0.00028936619           
       2.435752             0.00701097629            0.000297667453           
       2.438392             0.00699293769            0.000292287479           
       2.441033             0.00740969689            0.000302249896           
       2.443673             0.00742069333            0.000303281811           
       2.446313             0.00740851397            0.000301418282           
       2.448954             0.00724355647            0.000300658947           
       2.451594             0.00742802996            0.000302636524           
       2.454235             0.00711903167            0.000295353101           
       2.456875             0.00824780976            0.000319517525           
       2.459515             0.00766154703            0.000308427235           
       2.462156             0.00742827809            0.000302130127           
       2.464796             0.00762296059             0.00031146243           
       2.467436             0.00780682612             0.00030858712           
       2.470077             0.00754105429            0.000307471167           
       2.472717             0.00716297746            0.000295914827           
       2.475358             0.00762288705            0.000308725394           
       2.477998             0.00754752918             0.00030555669           
       2.480638               0.008286213             0.00032093819           
       2.483279             0.00695474659            0.000295287955           
       2.485919             0.00752309109            0.000304966149           
       2.488560             0.00691734418             0.00029364382           
       2.491200             0.00748549138            0.000305046108           
       2.493840             0.00673267605            0.000287725387           
       2.496481             0.00750945182            0.000307844095           
       2.499121             0.00707669705            0.000294863314           
       2.501761             0.00675080967            0.000292884252           
       2.504402             0.00705137204            0.000293596772           
       2.507042             0.00685339826            0.000294257472           
       2.509683             0.00730360918            0.000301002493           
       2.512323             0.00724791453            0.000301026732           
       2.514963              0.0147217863            0.000429874468           
       2.517604              0.0191462919            0.000488315119           
       2.520244             0.00951037158            0.000344232222           
       2.522884             0.00784902103            0.000312039427           
       2.525525             0.00783965741            0.000314414829           
       2.528165              0.0177895525            0.000471464489           
       2.530806              0.0337914793            0.000647346469           
       2.533446              0.0152212221            0.000438329157           
       2.536086             0.00881000726            0.000330676576           
       2.538727             0.00867140724            0.000330168328           
       2.541367             0.00947913446            0.000344216225           
       2.544008             0.00736805383             0.00030373241           
       2.546648             0.00742938392             0.00030534022           
       2.549288              0.0072131024            0.000300906227           
       2.551929              0.0070506833            0.000298481839           
       2.554569             0.00744115639            0.000303833459           
       2.557209             0.00742176785            0.000306865838           
       2.559850             0.00752002048            0.000305338396           
       2.562490             0.00754168961            0.000308004426           
       2.565131             0.00722080126             0.00030190499           
       2.567771             0.00701701942            0.000296037032           
       2.570411             0.00710028358            0.000301412009           
       2.573052              0.0066911106            0.000289182835           
       2.575692             0.00709584027            0.000298590416           
       2.578332             0.00674486851             0.00029025243           
       2.580973              0.0072012702            0.000302343576           
       2.583613             0.00737725009            0.000303226846           
       2.586254             0.00678769192            0.000293431496           
       2.588894             0.00696331686               0.000295618           
       2.591534             0.00742834193            0.000305891097           
       2.594175             0.00712691124            0.000301359757           
       2.596815             0.00672727917            0.000290066486           
       2.599456              0.0066127432            0.000289939564           
       2.602096             0.00758720244            0.000309406335           
       2.604736             0.00751198141            0.000308676193           
       2.607377             0.00699928367            0.000296816952           
       2.610017             0.00725671176             0.00030212042           
       2.612657             0.00735972768            0.000306406562           
       2.615298             0.00713262344            0.000298691437           
       2.617938             0.00688453762             0.00029601809           
       2.620579             0.00714566595            0.000299116283           
       2.623219              0.0072368735            0.000305834254           
       2.625859             0.00678156216            0.000291067434           
       2.628500             0.00705692031            0.000301663248           
       2.631140             0.00683786079            0.000291707778           
       2.633780             0.00694705418            0.000297804196           
       2.636421             0.00747491773            0.000306100224           
       2.639061             0.00746929749            0.000309643607           
       2.641702             0.00657849052            0.000287486704           
       2.644342              0.0073175278            0.000305692548           
       2.646982             0.00741198622            0.000307398045           
       2.649623             0.00630423997            0.000285197642           
       2.652263             0.00674419642            0.000292634172           
       2.654904             0.00710957398            0.000302087987           
       2.657544             0.00680568384            0.000293481832           
       2.660184             0.00746979368            0.000307861086           
       2.662825             0.00680421427            0.000294529776           
       2.665465             0.00690648001            0.000297283689           
       2.668105              0.0076169519            0.000312323911           
       2.670746             0.00670238217             0.00029049513           
       2.673386             0.00733172255            0.000307509893           
       2.676027             0.00722552863            0.000302679606           
       2.678667             0.00711693084            0.000301958069           
       2.681307             0.00742323415            0.000305962559           
       2.683948              0.0073675346            0.000307839694           
       2.686588             0.00721481376            0.000301836907           
       2.689229             0.00776160647            0.000315875486           
       2.691869             0.00754438364            0.000308315452           
       2.694509               0.007888186            0.000319585712           
       2.697150             0.00757110763            0.000308099562           
       2.699790              0.0069520414            0.000301367489           
       2.702430             0.00713521029              0.0002994581           
       2.705071             0.00619188698            0.000282779294           
       2.707711             0.00698856767             0.00029744187           
       2.710352             0.00705449672            0.000300542546           
       2.712992             0.00715498362            0.000303659581           
       2.715632             0.00683925239            0.000295195368           
       2.718273             0.00660343816            0.000291024575           
       2.720913             0.00717375952            0.000303838282           
       2.723553             0.00637582394            0.000285447009           
       2.726194             0.00726444369            0.000306159692           
       2.728834             0.00666764871            0.000290706907           
       2.731475             0.00654804725            0.000290605627           
       2.734115             0.00687710524            0.000296043386           
       2.736755             0.00697795605             0.00030017746           
       2.739396              0.0069696751            0.000298412902           
       2.742036             0.00707182684            0.000302643509           
       2.744677             0.00751833317            0.000312507781           
       2.747317             0.00774456517            0.000315633826           
       2.749957             0.00760215544               0.000314987           
       2.752598             0.00706102841            0.000304483737           
       2.755238             0.00691811369            0.000301250788           
       2.757878             0.00717390761              0.0003058961           
       2.760519             0.00729698488            0.000305251549           
       2.763159             0.00772061598            0.000319092717           
       2.765800             0.00728774929            0.000304766872           
       2.768440             0.00689183519            0.000300277155           
       2.771080             0.00704242416            0.000300982067           
       2.773721              0.0065334381            0.000293457955           
       2.776361             0.00666374473            0.000293186841           
       2.779001             0.00631749869             0.00028846902           
       2.781642             0.00673806123            0.000295883345           
       2.784282             0.00653044099            0.000291390762           
       2.786923             0.00717677571            0.000303147247           
       2.789563             0.00676732463            0.000294963984           
       2.792203             0.00691839051            0.000300136454           
       2.794844             0.00682511897            0.000296749979           
       2.797484             0.00654720996            0.000291055096           
       2.800125             0.00690764329            0.000298572933           
       2.802765              0.0071988844            0.000310452636           
       2.805405             0.00653811909            0.000291591213           
       2.808046             0.00706045478             0.00030766145           
       2.810686             0.00662150324            0.000294769532           
       2.813326             0.00690945709            0.000304836144           
       2.815967             0.00672816031            0.000298914558           
       2.818607             0.00682408747            0.000304047192           
       2.821248             0.00674980733            0.000298617439           
       2.823888             0.00661762158             0.00030044141           
       2.826528             0.00702648938            0.000307736615           
       2.829169             0.00655193474            0.000295851077           
       2.831809             0.00668630653            0.000299131299           
       2.834449             0.00696480128            0.000299968464           
       2.837090             0.00684958267            0.000299267142           
       2.839730             0.00675828433             0.00029515495           
       2.842371             0.00687283112            0.000299719575           
       2.845011             0.00673503109            0.000296037952           
       2.847651             0.00653029143            0.000292038903           
       2.850292             0.00655664923            0.000290965009           
       2.852932              0.0070053095            0.000301294737           
       2.855573             0.00665995252            0.000296354156           
       2.858213             0.00673879697            0.000294758405           
       2.860853             0.00719369627              0.0003068242           
       2.863494             0.00698522121            0.000303073604           
       2.866134             0.00682405138            0.000303758578           
       2.868774             0.00708763872            0.000304830763           
       2.871415             0.00679688011            0.000301467213           
       2.874055             0.00672098603            0.000301264337           
       2.876696             0.00725759972            0.000310241126           
       2.879336             0.00676678453            0.000301555584           
       2.881976             0.00702572593            0.000307018268           
       2.884617             0.00659299041            0.000295760749           
       2.887257             0.00618074736            0.000284368234           
       2.889897             0.00636897617            0.000291974555           
       2.892538             0.00652003818            0.000293368585           
       2.895178             0.00662463088              0.0002926967           
       2.897819             0.00649062813            0.000292701011           
       2.900459             0.00660459671            0.000292814971           
       2.903099             0.00681014241             0.00029888901           
       2.905740             0.00692586609            0.000298053253           
       2.908380             0.00657114751            0.000294190519           
       2.911021             0.00574877119            0.000275689602           
       2.913661             0.00667791198            0.000293864686           
       2.916301             0.00694805958            0.000304013961           
       2.918942             0.00665003056             0.00029293533           
       2.921582             0.00714149621            0.000306751921           
       2.924222              0.0067353186            0.000296172986           
       2.926863             0.00697953037            0.000302295385           
       2.929503             0.00779402684            0.000322993572           
       2.932144             0.00700726631            0.000301234928           
       2.934784             0.00721007645            0.000306861705           
       2.937424             0.00752255741            0.000314020532           
       2.940065             0.00793604608            0.000322797899           
       2.942705             0.00719343716            0.000308258073           
       2.945346             0.00790181004            0.000321171335           
       2.947986              0.0081307051            0.000326929168           
       2.950626             0.00872409052            0.000339690139           
       2.953267             0.00944137621            0.000349624732           
       2.955907             0.00856972903            0.000337498764           
       2.958547             0.00731020158            0.000308515626           
       2.961188             0.00686360013            0.000301552775           
       2.963828             0.00720214566            0.000307149719           
       2.966469             0.00684455275            0.000299502093           
       2.969109             0.00770077767              0.0003193082           
       2.971749             0.00831467635            0.000330815747           
       2.974390             0.00897233599            0.000344592913           
       2.977030             0.00893636778            0.000343247024           
       2.979670             0.00734160012            0.000309109674           
       2.982311             0.00700026852            0.000304016801           
       2.984951             0.00683378991            0.000301156696           
       2.987592             0.00738414954            0.000311992121           
       2.990232             0.00826090038            0.000330837434           
       2.992872             0.00878598592            0.000338520555           
       2.995513              0.0110160702            0.000382033312           
       2.998153              0.0179463519            0.000490759666           
       3.000794              0.0259762194            0.000581838789           
       3.003434              0.0229247408            0.000552392443           
       3.006074              0.0171532413            0.000479364659           
       3.008715              0.0144963338            0.000444034281           
       3.011355               0.016843512            0.000483611845           
       3.013995              0.0148572149            0.000451981131           
       3.016636              0.0277618775            0.000618998426           
       3.019276               0.202891375             0.00171337875           
       3.021917               0.373718784             0.00228594228           
       3.024557               0.137389419             0.00139708506           
       3.027197              0.0766050307             0.00106072668           
       3.029838               0.174543086             0.00159347198           
       3.032478               0.104432064             0.00123993072           
       3.035118              0.0844022917             0.00112043679           
       3.037759              0.0743940969             0.00105376482           
       3.040399              0.0673655745             0.00101422601           
       3.043040              0.0674064221             0.00102438719           
       3.045680               0.055091962            0.000911836538           
       3.048320              0.0716692695             0.00105670328           
       3.050961              0.0541664754            0.000927865498           
       3.053601              0.0841317173             0.00115126355           
       3.056242              0.0784386608              0.0011187697           
       3.058882              0.0973922773             0.00126517547           
       3.061522               0.257646314             0.00204352995           
       3.064163              0.0680461693             0.00105210822           
       3.066803              0.0229764132            0.000623185743           
       3.069443               0.024410362            0.000638059746           
       3.072084              0.0641009134             0.00104317032           
       3.074724              0.0667954542             0.00107115794           
       3.077365              0.0135958131            0.000482916011           
       3.080005             0.00914472146            0.000400445815           
       3.082645             0.00844084627            0.000386684874           
       3.085286             0.00764589265            0.000368092941           
       3.087926             0.00727360679             0.00036130398           
       3.090566             0.00759716491            0.000373056184           
       3.093207             0.00810217671            0.000381093558           
       3.095847             0.00815995511            0.000390466568           
       3.098488             0.00857007675             0.00039943318           
       3.101128             0.00825476397            0.000394151751           
       3.103768             0.00848590772            0.000401883457           
       3.106409             0.00860452354            0.000407393011           
       3.109049               0.010188183            0.000446746978           
       3.111690               0.014026467            0.000522124454           
       3.114330              0.0197198171            0.000624594959           
       3.116970              0.0190596554            0.000622593494           
       3.119611               0.012153952            0.000493936019           
       3.122251              0.0104953766            0.000462757189           
       3.124891             0.00782803739            0.000401590947           
       3.127532             0.00813660827            0.000416804924           
       3.130172             0.00977081577            0.000447351845           
       3.132813             0.00712204081            0.000389705241           
       3.135453             0.00679737638            0.000388750119           
       3.138093              0.0061267787            0.000360318984           
       3.140734             0.00649491957            0.000377890788           
       3.143374             0.00694875592            0.000396845668           
       3.146014              0.0064638464            0.000379970241           
       3.148655             0.00635742958            0.000379796306           
       3.151295             0.00759761289            0.000418477919           
       3.153936             0.00672843518            0.000399627575           
       3.156576             0.00620744591            0.000379437794           
       3.159216             0.00669474143             0.00039727257           
       3.161857             0.00621053925            0.000387330356           
       3.164497             0.00628383006            0.000397824136           
       3.167138             0.00596082806            0.000378168857           
       3.169778             0.00600325488             0.00038636511           
       3.172418             0.00596729106            0.000387456974           
       3.175059             0.00603891412            0.000394876209           
       3.177699             0.00599028637            0.000391729756           
       3.180339              0.0057020301            0.000385604613           
       3.182980             0.00678740021            0.000426385939           
       3.185620             0.00541383161            0.000384967092           
       3.188261              0.0064890394            0.000415943159           
       3.190901             0.00594011287            0.000404093738           
       3.193541             0.00583221147             0.00040172618           
       3.196182             0.00598451388            0.000415404662           
       3.198822             0.00587282299             0.00040652147           
       3.201463             0.00609323417            0.000419434479           
       3.204103             0.00507576689            0.000387914505           
       3.206743             0.00602571118            0.000426231672           
       3.209384             0.00558223227            0.000408418303           
       3.212024             0.00580136989            0.000417836709           
       3.214664             0.00689166457            0.000464091138           
       3.217305              0.0051707995            0.000411373159           
       3.219945             0.00579209727            0.000431745849           
       3.222586             0.00614267467            0.000447136237           
       3.225226             0.00669727429            0.000477403406           
       3.227866             0.00614158166            0.000460705558           
       3.230507             0.00656912077            0.000482157174           
       3.233147             0.00604880924            0.000455825144           
       3.235787              0.0054291474            0.000431963633           
       3.238428             0.00607802234            0.000465120759           
       3.241068             0.00560418887            0.000455679341           
       3.243709             0.00614214202            0.000474401057           
       3.246349             0.00577635254            0.000457483933           
       3.248989             0.00587950122             0.00047210017           
       3.251630             0.00519583617            0.000445767904           
       3.254270              0.0056257879            0.000478102853           
       3.256911             0.00525042268            0.000450304726           
       3.259551             0.00601184442            0.000492499139           
       3.262191             0.00574244247            0.000485765997           
       3.264832             0.00574425347            0.000490401273           
       3.267472             0.00495891342            0.000462108257           
       3.270112             0.00641315566            0.000527012514           
       3.272753             0.00652125965            0.000537966655           
       3.275393             0.00521197943            0.000483415595           
       3.278034             0.00603157393            0.000530631171           
       3.280674             0.00583082545            0.000523240152           
       3.283314              0.0056615239            0.000518436777           
       3.285955             0.00631773749            0.000557945324           
       3.288595              0.0060959361            0.000554177963           
       3.291235             0.00583108461            0.000545189435           
       3.293876             0.00567609414            0.000541080008           
       3.296516             0.00521968571             0.00052945346           
       3.299157             0.00560454556            0.000556917434           
       3.301797             0.00644064213            0.000597268643           
       3.304437             0.00594591935             0.00058462846           
       3.307078             0.00655298788            0.000619710354           
       3.309718             0.00557493478            0.000577301502           
       3.312359             0.00629326497            0.000625761048           
       3.314999             0.00533772669            0.000582345757           
       3.317639             0.00541123653            0.000592655725           
       3.320280             0.00510438612            0.000584012518           
       3.322920             0.00601577934            0.000643496301           
       3.325560             0.00532265597            0.000616979117           
       3.328201             0.00571717046            0.000642138684           
       3.330841             0.00534448324            0.000635956072           
       3.333482             0.00568734829            0.000664368039           
       3.336122             0.00554401726            0.000670199646           
       3.338762             0.00473233971            0.000624861864           
       3.341403             0.00425870137            0.000598266947           
       3.344043             0.00556585165            0.000710051028           
       3.346683             0.00485489885            0.000669879188           
       3.349324             0.00520862763             0.00070459481           
       3.351964             0.00472656412            0.000692775827           
       3.354605              0.0057527275            0.000772942342           
       3.357245             0.00426805316            0.000689172987           
       3.359885             0.00486577966            0.000736114932           
       3.362526             0.00484795156            0.000772334534           
       3.365166             0.00618355186            0.000861489632           
       3.367807             0.00475338437            0.000808546373           
       3.370447             0.00435089927             0.00077385809           
       3.373087             0.00579549682            0.000942613341           
       3.375728             0.00585336263            0.000940146509           
       3.378368             0.00490522242             0.00092998732           
       3.381008             0.00548167201            0.000974542502           
       3.383649             0.00598737813             0.00110225274           
       3.386289             0.00499548422             0.00100723477           
       3.388930             0.00387859975            0.000974718955           
       3.391570             0.00602391495             0.00121524379           
       3.394210             0.00385949972             0.00104225219           
       3.396851             0.00385541653              0.0011284077           
       3.399491             0.00433285431             0.00121794831           
       3.402131             0.00470632784             0.00150255613           
       3.404772             0.00935591382              0.0021194287           
       3.407412              0.0043412581             0.00179147689           
       3.410053             0.00376819156             0.00173794762           
       3.412693             0.00147403962             0.00153787772           
       3.415333             0.00222007284             0.00231245377           
