################################################################################
# EDF_DataBlockID                     0.Image.Psd
# EDF_BinarySize                      4366944
# EDF_HeaderSize                      2560
# ByteOrder                           LowByteFirst
# DataType                            FloatValue
# Dim_1                               1028
# Dim_2                               1062
# Image                               0
# HeaderID                            EH:000000:000000:000000
# Size                                4366944
# Center_1                            607.5320
# Center_2                            651.4720
# Comment                             Xenocs_Cell_Window - front_window_open_only
# DDummy                              0.6
# Date                                2025-10-20T00:36:10
# Delta                               0
# Dummy                               -1.5
# ExposureTime                        360
# Gamma                               0
# Intensity1                          8.91349e-10
# PSize_1                             7.5e-05
# PSize_2                             7.5e-05
# Pressure                            0.0326958
# SampleDistance                      0.450002
# SampleEnvKind                       large
# SampleEnvPN                         ElectroChemical cell
# SampleEnvSN                         1141
# Thickness                           0
# Wavelength                          1.541891e-10
# Wavelength                          1.54189e-10
# aux                                 0
# aux_dial                            0.002375
# beamx                               588.429
# beamx_dial                          588.429
# beamz                               657.855
# beamz_dial                          657.855
# det0x                               -0.000396875
# det0x_dial                          6.36905
# det0xvd                             -0.0005
# det0xvd_dial                        -0.0005
# det0y                               450.002
# det0y_dial                          481.635
# det0z                               0
# det0z_dial                          1.2295
# det0zvd                             0
# det0zvd_dial                        0
# mag                                 1.818
# mag_dial                            1.818
# om                                  0.2499
# om_dial                             -0.610199
# phi                                 -0.0120535
# phi_dial                            0
# ry                                  0.599993
# ry_dial                             0.599993
# s1bot                               0.8
# s1bot_dial                          -1.66094
# s1hl                                0.8
# s1hl_dial                           -0.608437
# s1hr                                0.8
# s1hr_dial                           0.970938
# s1top                               0.8
# s1top_dial                          -0.461562
# s2bot                               0.45
# s2bot_dial                          1.36109
# s2hl                                0.45
# s2hl_dial                           -0.83375
# s2hr                                0.45
# s2hr_dial                           -0.118594
# s2top                               0.45
# s2top_dial                          1.44734
# w2theta                             32
# w2theta_dial                        32
# waxsch                              19.2605
# waxsch_dial                         -32.7238
# waxsh                               137.085
# waxsh_dial                          -43.5335
# waxsth                              26.0607
# waxsth_dial                         -19.4068
# waxsz                               67.0407
# waxsz_dial                          -23.7962
# wind                                65.9854
# wind_dial                           66.0041
# wpsi                                124
# wpsi_dial                           124
# wstod                               115
# wstod_dial                          115
# x                                   0
# x_dial                              1.00969
# z                                   0
# z_dial                              13.3172
# CountCutoff                         15302352
# DetectorModel                       Dectris EIGER2 Si 1M, S/N E-02-0362
# ThresholdSetting                    4023.88989258
# Saturation                          0
# FlatField                           Corrected
# BackgroundReductionExtra            0.02
# BackgroundCorrectionConstant        0.0026712
# Detector                            0
# Monitor                             0
# Pil_Roi0                            0
# SumForIntensity1                    3.20886e+08
# TransmittedFlux                     891349
# det                                 0
# mon                                 0
# pilai0                              3.20886e+08
# pilai1                              692135
# pilct0                              5.54936e+08
# pilct1                              692135
# pilroi0                             0
# pilroi1                             0
# sec                                 1
# title                               20251017__0_00495.edf
# usaxs0                              0
# Operation                           Azimuthal average I(q)
# Error_model                         ErrorModel.poisson
# Geometrical_correction              True
# Transmission_correction             True
# Thickness_correction                False
# Binning mode                        Uniform
# Binning factor                      1.0
# Psi                                 0.0
# Omega                               0.2499
# MaskInvalidPixels                   True
# DetectorEdge                        3
# MaskFiles                           ['SAXS_correted.edf']
################################################################################
    q(A⁻¹)                Intensity(a.u.)            Sigma_I(a.u.)            
       0.000340                352582.464                114.827992           
       0.001019                351953.744                70.2547772           
       0.001698                348608.344                49.4409711           
       0.002377                331609.938                43.1297475           
       0.003056                299495.403                34.6413079           
       0.003735                 260478.12                28.4913272           
       0.004415                204560.882                25.2486669           
       0.005094                152737.351                18.8942885           
       0.005773                101435.714                14.2554231           
       0.006452                61000.6524                10.6799806           
       0.007131                33002.9013                7.60615372           
       0.007810                16261.0432                5.25752623           
       0.008490                8432.12499                3.35589456           
       0.009169                3261.09786                2.06258742           
       0.009848                 1286.4799                1.24577601           
       0.010527                363.893795               0.666152417           
       0.011206                 125.15936               0.369227074           
       0.011885                50.8123105               0.222646742           
       0.012564                25.4552518                0.15827685           
       0.013244                17.0452533               0.123196375           
       0.013923                12.3441075               0.106544678           
       0.014602                9.48251041              0.0859533155           
       0.015281                7.68388801              0.0796166082           
       0.015960                6.15742408              0.0704977318           
       0.016639                 5.0638288              0.0597756611           
       0.017319                4.24417583              0.0538838559           
       0.017998                3.58238971              0.0480613742           
       0.018677                2.92304533              0.0447178307           
       0.019356                2.50133777              0.0406300233           
       0.020035                2.12750719              0.0352590646           
       0.020714                 1.8641949               0.033443466           
       0.021394                1.61534495              0.0293074757           
       0.022073                1.45778921              0.0291866553           
       0.022752                 1.2675994               0.025719348           
       0.023431                1.09529406              0.0233702257           
       0.024110                1.00741925              0.0234239931           
       0.024789               0.911408011              0.0207717128           
       0.025469               0.833871271              0.0203463267           
       0.026148               0.728823651              0.0180136776           
       0.026827                0.66288881              0.0173175579           
       0.027506               0.600138046              0.0170362671           
       0.028185               0.556552774              0.0157103727           
       0.028864               0.530321775              0.0151278566           
       0.029544               0.481974872              0.0141261137           
       0.030223                0.44425454               0.014008609           
       0.030902               0.395639842              0.0136570931           
       0.031581               0.366995676              0.0123266025           
       0.032260               0.329395405              0.0121830917           
       0.032939               0.325274196              0.0121310457           
       0.033619               0.297318096               0.012017244           
       0.034298               0.277994606              0.0112603456           
       0.034977                0.25122915              0.0106185945           
       0.035656               0.232064447              0.0107101198           
       0.036335               0.205646835             0.00982575573           
       0.037014               0.212110631              0.0105212387           
       0.037693               0.184985461             0.00956228651           
       0.038373                0.17552536             0.00973072429           
       0.039052               0.159655234             0.00912809785           
       0.039731               0.169810344              0.0097362785           
       0.040410               0.159869467             0.00944701824           
       0.041089               0.145132774             0.00940773258           
       0.041768               0.152059114              0.0101382835           
       0.042448               0.145006087             0.00920567973           
       0.043127               0.136028931             0.00931266168           
       0.043806               0.119197311             0.00908639033           
       0.044485               0.116682999             0.00862510277           
       0.045164               0.112801404              0.0089789472           
       0.045843               0.115280961             0.00838473117           
       0.046523                0.11091109             0.00845733108           
       0.047202               0.104427752             0.00861194382           
       0.047881              0.0983154424             0.00827791335           
       0.048560               0.124532742             0.00946463116           
       0.049239              0.0870197079             0.00751296464           
       0.049918              0.0850335026             0.00834567878           
       0.050598              0.0918778308             0.00815582171           
       0.051277              0.0863671869             0.00768744532           
       0.051956              0.0734856357             0.00787419867           
       0.052635               0.078685401             0.00833830139           
       0.053314              0.0789917166             0.00790096859           
       0.053993              0.0828036667             0.00845450664           
       0.054673              0.0744681663             0.00772605797           
       0.055352              0.0717949663             0.00802842134           
       0.056031               0.074672565             0.00815520442           
       0.056710              0.0925101357             0.00907716905           
       0.057389              0.0747571875             0.00815988048           
       0.058068              0.0808701791             0.00826061827           
       0.058748              0.0620129647             0.00726105976           
       0.059427              0.0762396598             0.00733566045           
       0.060106              0.0689535659             0.00842585423           
       0.060785              0.0776477008              0.0080944806           
       0.061464              0.0733395679             0.00824761819           
       0.062143              0.0528300207             0.00660274768           
       0.062822              0.0508881109             0.00692771591           
       0.063502               0.052445575             0.00734849307           
       0.064181              0.0444345701             0.00664324348           
       0.064860              0.0468121222             0.00732194891           
       0.065539              0.0628393173             0.00831530034           
       0.066218              0.0519022317             0.00791435536           
       0.066897              0.0414501609             0.00692537097           
       0.067577              0.0424124448             0.00727265457           
       0.068256              0.0515822476             0.00768610706           
       0.068935              0.0627680944              0.0087036049           
       0.069614              0.0499914112             0.00745349768           
       0.070293              0.0389524031             0.00700885416           
       0.070972              0.0400262334             0.00677074072           
       0.071652              0.0377004978             0.00678200821           
       0.072331              0.0456553083             0.00795396857           
       0.073010              0.0438667618             0.00815707675           
       0.073689              0.0301926488             0.00631430601           
       0.074368              0.0310526682             0.00622321287           
       0.075047              0.0479981685             0.00800868373           
       0.075727               0.053672172             0.00934416516           
       0.076406              0.0365792319             0.00800976794           
       0.077085              0.0553947515             0.00898635206           
       0.077764              0.0416873402             0.00817616599           
       0.078443              0.0463446841             0.00806406024           
       0.079122               0.022878915             0.00593139885           
       0.079802              0.0444214117             0.00889669475           
       0.080481              0.0378202848             0.00742543956           
       0.081160              0.0330053066             0.00828327941           
       0.081839              0.0318661302             0.00753535542           
       0.082518              0.0472701951             0.00864522089           
       0.083197              0.0378231785             0.00848333804           
       0.083876              0.0626284725              0.0091487617           
       0.084556              0.0649597949              0.0113110579           
       0.085235              0.0373309744             0.00796862364           
       0.085914              0.0197626786             0.00551295237           
       0.086593              0.0379500979              0.0080960809           
       0.087272              0.0267932834              0.0063330019           
       0.087951              0.0336037718             0.00792954442           
       0.088631              0.0202778965             0.00587315667           
       0.089310              0.0382295924             0.00783042534           
       0.089989              0.0197560639              0.0052987507           
       0.090668              0.0343365605             0.00770124647           
       0.091347              0.0232161551              0.0064839703           
       0.092026              0.0297985011             0.00623723309           
       0.092706               0.028408758             0.00761537478           
       0.093385              0.0296435403             0.00721147428           
       0.094064              0.0266421017             0.00689073413           
       0.094743              0.0347504678             0.00741318967           
       0.095422              0.0222880344             0.00645828113           
       0.096101              0.0228533134             0.00763673088           
       0.096781              0.0329793506             0.00779144353           
       0.097460              0.0308681691             0.00773046749           
       0.098139              0.0257914882             0.00746282993           
       0.098818              0.0327643439             0.00752339245           
       0.099497              0.0304384961             0.00788319644           
       0.100176              0.0223568978             0.00621475192           
       0.100856              0.0181414403             0.00608600127           
       0.101535               0.014143376             0.00581310178           
       0.102214              0.0155605901             0.00496097274           
       0.102893               0.018270683             0.00553382781           
       0.103572              0.0187717422             0.00544893538           
       0.104251              0.0218893525             0.00634808451           
       0.104931              0.0235519874             0.00713191569           
       0.105610              0.0355183653             0.00836538285           
       0.106289              0.0244334895             0.00706335764           
       0.106968              0.0211323022             0.00548103175           
       0.107647              0.0166917406             0.00558959845           
       0.108326              0.0243700177             0.00705431458           
       0.109005              0.0340809185             0.00696070692           
       0.109685              0.0215342007             0.00651390077           
       0.110364              0.0169615023             0.00514378433           
       0.111043              0.0182026454             0.00609685579           
       0.111722              0.0244609365             0.00613476554           
       0.112401              0.0176421835             0.00560830339           
       0.113080              0.0230053743             0.00667467032           
       0.113760              0.0250414875             0.00696382534           
       0.114439               0.023402831             0.00569674184           
       0.115118              0.0312840855             0.00684493508           
       0.115797              0.0235782603             0.00610756061           
       0.116476              0.0122572705             0.00467488548           
       0.117155              0.0155568507             0.00522538199           
       0.117835              0.0254606639             0.00658284123           
       0.118514              0.0190618642             0.00578424132           
       0.119193              0.0192713163             0.00560128823           
       0.119872                0.01846094             0.00587910215           
       0.120551              0.0280112251             0.00701195741           
       0.121230              0.0248350462             0.00665470354           
       0.121910              0.0305167548             0.00720720337           
       0.122589              0.0126338498             0.00450289295           
       0.123268              0.0241815027             0.00627470518           
       0.123947              0.0194789505             0.00523018706           
       0.124626              0.0223711474              0.0056050814           
       0.125305              0.0195927682             0.00545403781           
       0.125985              0.0242604914             0.00628513439           
       0.126664              0.0270465287              0.0067854184           
       0.127343              0.0141094211             0.00536870344           
       0.128022              0.0193872989              0.0056186714           
       0.128701              0.0189721569             0.00509864198           
       0.129380              0.0191277936             0.00579494029           
       0.130059              0.0274672402             0.00711299386           
       0.130739              0.0142988631             0.00509059386           
       0.131418              0.0121672804             0.00435760047           
       0.132097              0.0179346312             0.00544392579           
       0.132776              0.0142682999              0.0050852731           
       0.133455              0.0124760073              0.0047552064           
       0.134134              0.0199103166             0.00553616021           
       0.134814              0.0331039164             0.00690600582           
       0.135493              0.0237670965             0.00661700252           
       0.136172              0.0202908961             0.00544185739           
       0.136851              0.0183279164             0.00510608824           
       0.137530              0.0318142699             0.00695094806           
       0.138209              0.0241076114             0.00605082145           
       0.138889              0.0150091293             0.00477439683           
       0.139568              0.0165444883             0.00501269433           
       0.140247             0.00924700265             0.00382591362           
       0.140926              0.0204045133             0.00528839749           
       0.141605               0.015093044             0.00457633247           
       0.142284              0.0140347325             0.00471354941           
       0.142964              0.0149588607             0.00476664238           
       0.143643              0.0193655099             0.00561658981           
       0.144322              0.0193556228             0.00561520672           
       0.145001              0.0274954826             0.00669262601           
       0.145680              0.0103474268             0.00369914316           
       0.146359               0.026531404             0.00626428778           
       0.147039              0.0134653054             0.00452266573           
       0.147718              0.0176488975             0.00561169993           
       0.148397              0.0242547613             0.00628613998           
       0.149076              0.0184666922             0.00536960947           
       0.149755              0.0181597123             0.00487217814           
       0.150434              0.0126497163             0.00450726876           
       0.151114              0.0222905785             0.00559682754           
       0.151793              0.0283557662              0.0067007255           
       0.152472              0.0168859781             0.00490211678           
       0.153151              0.0122510594             0.00437380188           
       0.153830              0.0148702772              0.0045153888           
       0.154509              0.0152573287             0.00463063532           
       0.155188              0.0223357086             0.00560280497           
       0.155868              0.0191882509             0.00481649437           
       0.156547              0.0171549742             0.00544749808           
       0.157226              0.0184124183             0.00493524579           
       0.157905              0.0161032783             0.00512271319           
       0.158584              0.0264043587             0.00591016715           
       0.159263              0.0160661177             0.00539803066           
       0.159943              0.0174266133             0.00485900583           
       0.160622              0.0169038371             0.00490527492           
       0.161301              0.0196111106              0.0056948895           
       0.161980              0.0226220705             0.00534643332           
       0.162659              0.0140494393             0.00471734119           
       0.163338               0.015870787             0.00460957798           
       0.164018              0.0149875786             0.00477260663           
       0.164697              0.0170146916             0.00474474331           
       0.165376              0.0286976586             0.00643265857           
       0.166055              0.0147148337             0.00446537169           
       0.166734              0.0153520215             0.00445499194           
       0.167413              0.0153166209             0.00444989846           
       0.168093              0.0202934164             0.00544458749           
       0.168772              0.0116853398             0.00393231431           
       0.169451              0.0204393226             0.00569043855           
       0.170130              0.0182990159               0.005104418           
       0.170809              0.0237081288             0.00612872196           
       0.171488               0.012145369              0.0040818209           
       0.172168             0.00900502604              0.0037251251           
       0.172847             0.00816154878             0.00370180238           
       0.173526              0.0246975291              0.0060069029           
       0.174205             0.00779450367             0.00323093359           
       0.174884              0.0183005433             0.00531066097           
       0.175563              0.0167251539              0.0046505956           
       0.176243              0.0213687876             0.00519735703           
       0.176922              0.0183092441             0.00510638797           
       0.177601             0.00956528178              0.0034202068           
       0.178280              0.0168716665             0.00490193343           
       0.178959             0.00355545216             0.00213212527           
       0.179638              0.0185998707             0.00499144587           
       0.180317             0.00943801373             0.00337920929           
       0.180997              0.0157730488             0.00439223035           
       0.181676              0.0200204432             0.00537422088           
       0.182355              0.0262033624             0.00560073399           
       0.183034               0.012126888             0.00387248352           
       0.183713              0.0174727512             0.00486723365           
       0.184392              0.0181365436             0.00487161968           
       0.185072               0.015881141             0.00461266014           
       0.185751              0.0153601408             0.00428833755           
       0.186430               0.021308818             0.00534318682           
       0.187109              0.0155213481             0.00433399739           
       0.187788              0.0177139113             0.00475977068           
       0.188467              0.0108967537             0.00367115781           
       0.189147              0.0231129232             0.00642594998           
       0.189826              0.0133087128             0.00424829367           
       0.190505              0.0185974777             0.00466962163           
       0.191184              0.0205384103             0.00485697693           
       0.191863              0.0133535821             0.00425559676           
       0.192542              0.0117183782             0.00374606726           
       0.193222              0.0201847195             0.00452439471           
       0.193901              0.0178229437             0.00517219493           
       0.194580              0.0245215319             0.00550774912           
       0.195259              0.0167760449             0.00508639175           
       0.195938              0.0146087728             0.00442485253           
       0.196617              0.0146382669             0.00425560149           
       0.197297              0.0138700879             0.00441810913           
       0.197976              0.0173949139             0.00451671719           
       0.198655              0.0166017216             0.00445928798           
       0.199334              0.0155523757             0.00418462323           
       0.200013              0.0141338024             0.00411461166           
       0.200692             0.00875846468             0.00362620176           
       0.201371               0.011872988             0.00379151231           
       0.202051              0.0184654322             0.00478011467           
       0.202730              0.0135849657             0.00412280401           
       0.203409                 0.0172492             0.00480878125           
       0.204088              0.0193548492             0.00457797908           
       0.204767               0.014916113              0.0045260771           
       0.205446              0.0135782646             0.00412199176           
       0.206126              0.0105144661             0.00335823529           
       0.206805              0.0113865457             0.00363603225           
       0.207484             0.00989813535             0.00353919611           
       0.208163             0.00851824606             0.00326499267           
       0.208842               0.011465084             0.00349035838           
       0.209521              0.0106751397             0.00341670776           
       0.210201             0.00968892692             0.00327102102           
       0.210880             0.00995216494             0.00381561395           
       0.211559              0.0121960649             0.00370651992           
       0.212238             0.00957405421             0.00323587122           
       0.212917              0.0239426808             0.00511723805           
       0.213596              0.0171238792             0.00430683064           
       0.214276              0.0188637133             0.00506003971           
       0.214955              0.0195843505             0.00492401318           
       0.215634             0.00968819384             0.00346330936           
       0.216313              0.0120284276             0.00383801744           
       0.216992             0.00946546418             0.00338635034           
       0.217671              0.0181516585             0.00487660101           
       0.218351              0.0165764985             0.00445755193           
       0.219030               0.010778487             0.00363332982           
       0.219709              0.0183993232             0.00493874912           
       0.220388              0.0171447122             0.00460761343           
       0.221067              0.0170702417             0.00443041393           
       0.221746              0.0233547578             0.00523594539           
       0.222426              0.0116968676             0.00356014107           
       0.223105              0.0159162866             0.00443971848           
       0.223784              0.0135855816             0.00395264012           
       0.224463              0.0110472793             0.00352853745           
       0.225142              0.0175860561             0.00428396182           
       0.225821              0.0172738358             0.00420704542           
       0.226500              0.0200230839             0.00487403859           
       0.227180              0.0126947459             0.00369154772           
       0.227859             0.00968145204             0.00346295503           
       0.228538              0.0160898736             0.00392047634           
       0.229217              0.0141700146             0.00381064465           
       0.229896              0.0128406465             0.00390343651           
       0.230575               0.019694214              0.0046654206           
       0.231255              0.0190597582             0.00478104469           
       0.231934              0.0130231784             0.00395210533           
       0.232613              0.0137287889             0.00399457236           
       0.233292               0.014325788             0.00416739092           
       0.233971              0.0136360526             0.00396081455           
       0.234650              0.0205531653             0.00486278401           
       0.235330             0.00874576749             0.00334751822           
       0.236009             0.00887341837             0.00317906597           
       0.236688              0.0128387107             0.00373097273           
       0.237367              0.0112495094             0.00359781067           
       0.238046              0.0172311452             0.00447570862           
       0.238725              0.0123225686             0.00358703354           
       0.239405              0.0164537916             0.00426516883           
       0.240084              0.0123228706             0.00358718583           
       0.240763             0.00888668198             0.00368018787           
       0.241442              0.0198063636             0.00456912464           
       0.242121              0.0124723421             0.00397564842           
       0.242800              0.0163853352             0.00411765268           
       0.243480              0.0121984182             0.00370931576           
       0.244159              0.0191229958             0.00429371828           
       0.244838              0.0118785344             0.00360676301           
       0.245517              0.0118559989              0.0039901685           
       0.246196             0.00879457553             0.00314974454           
       0.246875              0.0221605202             0.00510303955           
       0.247554              0.0131665903             0.00399647095           
       0.248234              0.0067774813                0.00282219           
       0.248913              0.0190930878             0.00494756541           
       0.249592             0.00953826759             0.00321676455           
       0.250271              0.0194514291             0.00488415925           
       0.250950              0.0195987395             0.00477466371           
       0.251629               0.013722396             0.00417100933           
       0.252309              0.0160887948             0.00432617012           
       0.252988              0.0186398044             0.00468079518           
       0.253667             0.00949491145             0.00341266069           
       0.254346             0.00922967317             0.00311996447           
       0.255025             0.00442686551             0.00228121972           
       0.255704               0.021185322             0.00474926345           
       0.256384             0.00741991897             0.00285134492           
       0.257063              0.0143238397             0.00400078072           
       0.257742              0.0162663249             0.00437311737           
       0.258421              0.0110418721             0.00322270072           
       0.259100               0.017397284             0.00505000334           
       0.259779              0.0118889148             0.00379868041           
       0.260459              0.0109388141             0.00333528912           
       0.261138              0.0104087615             0.00349849243           
       0.261817             0.00745990734             0.00309349666           
       0.262496              0.0159282124              0.0044452254           
       0.263175              0.0130540392             0.00416390718           
       0.263854             0.00680406175              0.0028287438           
       0.264534              0.0119553291             0.00363775136           
       0.265213               0.011944612             0.00363618226           
       0.265892              0.0167033883             0.00465595764           
       0.266571              0.0199143419             0.00499844568           
       0.267250             0.00728185919             0.00302259846           
       0.267929             0.00912553947             0.00327628328           
       0.268609              0.0171220169             0.00460947882           
       0.269288               0.017081736             0.00443664962           
       0.269967             0.00937578932              0.0035934044           
       0.270646              0.0124649459             0.00379008361           
       0.271325             0.00720003845             0.00298930786           
       0.272004              0.0195663178             0.00450268829           
       0.272683             0.00811269559             0.00336339594           
       0.273363             0.00568545996             0.00259995933           
       0.274042              0.0113901979             0.00346758107           
       0.274721             0.00948847599             0.00339482022           
       0.275400              0.0130047729             0.00395325437           
       0.276079              0.0114739475             0.00385986364           
       0.276758               0.015958432             0.00414364328           
       0.277438               0.014593653             0.00443029141           
       0.278117               0.013070008              0.0041679776           
       0.278796              0.0168743157             0.00452768965           
       0.279475               0.008534447             0.00353878369           
       0.280154             0.00781293704             0.00355121847           
       0.280833              0.0114928631             0.00410672716           
       0.281513              0.0104674521             0.00472407517           
       0.282192              0.0175207724             0.00488404222           
       0.282871              0.0214969242             0.00576867188           
       0.283550              0.0230856045             0.00619402754           
       0.284229              0.0105161317             0.00434333092           
       0.284908             0.00881895584             0.00364544083           
       0.285588              0.0130227671             0.00437206037           
       0.286267             0.00805462113             0.00365894606           
       0.286946             0.00767670381             0.00390162149           
       0.287625             0.00961515956             0.00396877534           
       0.288304              0.0100407847             0.00383927038           
       0.288983             0.00990640102             0.00378903903           
       0.289663              0.0155393288             0.00493941979           
       0.290342                0.01935176              0.0064862243           
       0.291021              0.0148900165               0.005296797           
       0.291700             0.00691911579             0.00352374545           
       0.292379             0.00847995598             0.00350595609           
       0.293058              0.0180825485             0.00574246906           
       0.293738              0.0139069917             0.00495677029           
       0.294417              0.0119765406             0.00456446174           
       0.295096              0.0139109336             0.00529995584           
       0.295775              0.0108866748             0.00449240209           
       0.296454              0.0205835983             0.00622857695           
       0.297133              0.0103820729             0.00428316252           
       0.297812              0.0123707616             0.00415600029           
       0.298492             0.00848274427             0.00384183684           
       0.299171               0.009163029             0.00379393062           
       0.299850              0.0171195406              0.0057288005           
       0.300529              0.0142784181             0.00455035099           
       0.301208              0.0166333591             0.00504236087           
       0.301887              0.0184004411             0.00533974383           
       0.302567              0.0209870172             0.00703283795           
       0.303246              0.0102467604             0.00422299602           
       0.303925             0.00922311112             0.00417018841           
       0.304604              0.0102646623             0.00463742027           
       0.305283              0.0159571332             0.00535322859           
       0.305962              0.0115320874             0.00478446403           
       0.306642              0.0125659721             0.00517946721           
       0.307321             0.00578679848             0.00341946191           
       0.308000             0.00641628305             0.00326759761           
       0.308679              0.0141959655             0.00540442914           
       0.309358             0.00678048173             0.00399822391           
       0.310037             0.00953077713             0.00431237842           
       0.310717             0.00921932801              0.0041701223           
       0.311396             0.00383691891              0.0028099097           
       0.312075              0.0184018583             0.00584327941           
       0.312754              0.0111032558              0.0050134812           
       0.313433              0.0120062293             0.00457250421           
       0.314112              0.0141743104             0.00504657579           
       0.314792              0.0142628923              0.0064342308           
       0.315471             0.00466156469             0.00338703831           
       0.316150              0.0512466312              0.0114827921           
       0.316829             0.00823319454             0.00482730166           
       0.317508              0.0156526862             0.00595343623           
       0.318187              0.0214461382             0.00760356159           
       0.318866             0.00894795292             0.00454715212           
       0.319546              0.0029500816             0.00308935344           
       0.320225              0.0225137588             0.00798338745           
       0.320904              0.0118184014             0.00533618983           
       0.321583              0.0147944363             0.00562238911           
       0.322262           -0.000302512069                         0           
       0.322941             0.00770560076             0.00391284951           
       0.323621             0.00941037228             0.00476200642           
       0.324300             0.00733332997             0.00429623103           
       0.324979              0.0153841849             0.00584527307           
       0.325658              0.0133067182             0.00599062447           
       0.326337              0.0302912234              0.0091482295           
       0.327016             0.00882326225             0.00447104207           
       0.327696              0.0153860154             0.00584609013           
       0.328375             0.00307142246             0.00319909336           
       0.329054              0.0147991155             0.00664250547           
       0.329733              0.0170582648             0.00648190187           
       0.330412             0.00654239636             0.00385040812           
       0.331091             0.00703869353              0.0050722181           
       0.331771              0.0105446821              0.0053337506           
       0.332450           -0.000302693823                         0           
       0.333129             0.00824321597             0.00483255305           
       0.333808              0.0107442035             0.00544957136           
       0.334487              0.0155823569             0.00700392116           
       0.335166              0.0113989439             0.00575553018           
       0.335846              0.0146347103              0.0074357704           
       0.336525              0.0225247884             0.00854082317           
       0.337204              0.0113892754             0.00513290008           
       0.337883              0.0100980267             0.00456203917           
       0.338562             0.00787803131             0.00461121629           
       0.339241              0.0100567099             0.00587773835           
       0.339921              0.0253682329              0.0084793618           
       0.340600             0.00642280106             0.00377863385           
       0.341279             0.00558384671             0.00402904015           
       0.341958             0.00639834514              0.0046192425           
       0.342637             0.00893572286             0.00523299117           
       0.343316              0.0120517342             0.00607741307           
       0.343995             0.00710017912              0.0041836872           
       0.344675             0.00827200666             0.00484270721           
       0.345354              0.0107524323             0.00627182131           
       0.346033             0.00826088818             0.00483964896           
       0.346712              0.0108299722             0.00547345454           
       0.347391              0.0070023342               0.004110759           
       0.348070             0.00805470249             0.00472053606           
       0.348750              0.0201520851             0.00765589396           
       0.349429             0.00605933589             0.00436956512           
       0.350108              0.0084890983             0.00608598312           
       0.350787              0.0230065456             0.00917572991           
       0.351466             0.00269811954             0.00283820886           
       0.352145             0.00235832276             0.00249449483           
       0.352825              0.0170393736             0.00765410278           
       0.353504             0.00954223194             0.00556192039           
       0.354183             0.00603384035              0.0043610227           
       0.354862             0.00338093692             0.00351795819           
       0.355541             0.00922267463             0.00539187773           
       0.356220             0.00298855781             0.00311292307           
       0.356900             0.00585474503              0.0042377335           
       0.357579             0.00364426119             0.00377656258           
       0.358258              0.0134056908             0.00679027774           
       0.358937             0.00644720369              0.0046393396           
       0.359616             0.00350912457             0.00364383455           
       0.360295            -0.00030322501                         0           
       0.360975             0.00828463312             0.00601434883           
       0.361654             0.00599024999              0.0043463102           
       0.362333             0.00989001366               0.004995169           
       0.363012             0.00882789064             0.00633179924           
       0.363691              0.0201350811              0.0090359751           
       0.364370              0.0152830031             0.00888138435           
       0.365050              0.0040800284              0.0042212558           
       0.365729           -0.000303333213                         0           
       0.366408             0.00825100298             0.00589098381           
       0.367087              0.0179462694             0.00680593978           
       0.367766              0.0154499361             0.00777860254           
       0.368445              0.0101072139             0.00722355689           
       0.369124           -0.000303401286                         0           
       0.369804             0.00394375141             0.00407323316           
       0.370483             0.00450311495             0.00461664749           
       0.371162              0.0078867662             0.00565660589           
       0.371841              0.0128961556              0.0075065377           
       0.372520             0.00410393098             0.00423467186           
       0.373199              0.0145899825             0.00848943656           
       0.373879              0.0154412643              0.0077779925           
       0.374558              0.0145420754             0.00730075836           
       0.375237             0.00821189748             0.00587875944           
       0.375916             0.00822405616             0.00588324655           
       0.376595             0.00730088205             0.00525886929           
       0.377274              0.0115184752             0.00671852483           
       0.377954             0.00817029038             0.00586438556           
       0.378633              0.0177636319              0.0103082531           
       0.379312              0.0241546592               0.012020676           
       0.379991              0.0096565561             0.00690816876           
       0.380670              0.0111507737             0.00650008669           
       0.381349           -0.000303655384                         0           
       0.382029             0.00540235904              0.0055414387           
       0.382708              0.0160955228             0.00808407825           
       0.383387              0.0135882003             0.00684214145           
       0.384066             0.00488117178             0.00502260758           
       0.384745              0.0235119892              0.0105542594           
       0.385424              0.0217147085             0.00974515423           
       0.386104             0.00817319567             0.00586708241           
       0.386783              0.0225299286              0.0113183768           
       0.387462             0.00818966991             0.00587326421           
       0.388141              0.0201219178              0.0090405481           
       0.388820               0.022503633              0.0113125391           
       0.389499             0.00378058465             0.00391886609           
       0.390178              0.0047496919             0.00484660196           
       0.390858              0.0187570676             0.00843339802           
       0.391537              0.0245434493              0.0110178178           
       0.392216              0.0106614153             0.00759975908           
       0.392895              0.0117278006             0.00837999809           
       0.393574              0.0169475634             0.00981886575           
       0.394253             0.00968911149              0.0069232876           
       0.394933              0.0226104142               0.011341836           
       0.395612             0.00816983227             0.00586785817           
       0.396291             0.00689131311             0.00700095387           
       0.396970             0.00459855971             0.00477005555           
       0.397649             0.00839529868              0.0085730048           
       0.398328              0.0038207349             0.00394086863           
       0.399008             0.00924016726             0.00661976817           
       0.399687             0.00971237407              0.0069329524           
       0.400366              0.0180469847             0.00906487274           
       0.401045           -0.000304079824                         0           
       0.401724              0.0139712708             0.00997030799           
       0.402403              0.0117288411             0.00838325542           
       0.403083           -0.000304123702                         0           
       0.403762           -0.000304141188                         0           
       0.404441             0.00445560707             0.00459772178           
       0.405120              0.0169029522             0.00981003988           
       0.405799           -0.000304183438                         0           
       0.406478              0.0105828908             0.00757564531           
       0.407158              0.0266075178              0.0133510347           
       0.407837              0.0172612962             0.00869556188           
       0.408516             0.00731887572             0.00745480822           
       0.409195           -0.000304261961                         0           
       0.409874           -0.000304278317                         0           
       0.410553           -0.000304293076                         0           
       0.411233           -0.000304307975                         0           
       0.411912              0.0126177392             0.00893653741           
       0.412591              0.0123441333             0.00883934169           
       0.413270           -0.000304354908                         0           
       0.413949             0.00791239221             0.00802485348           
       0.414628              0.0132161705             0.00941213893           
       0.415307           -0.000304401822                         0           
       0.415987            -0.00030441752                         0           
       0.416666             0.00473388738             0.00484328138           
       0.417345              0.0226148081              0.0160545993           
       0.418024           -0.000304465247                         0           
       0.418703              0.0132216429             0.00941554692           
       0.419382           -0.000304493013                         0           
       0.420062           -0.000304510438                         0           
       0.420741           -0.000304528257                         0           
       0.421420           -0.000304543325                         0           
       0.422099              0.0456554353               0.032265907           
       0.422778              0.0106058374              0.0075885016           
       0.423457              0.0160700929              0.0161794986           
       0.424137             -0.0003046067                         0           
       0.424816             0.00691211564              0.0070189706           
       0.425495           -0.000304637939                         0           
       0.426174             0.00906952364             0.00928436477           
       0.426853           -0.000304668621                         0           
       0.427532           -0.000304685956                         0           
       0.428212              0.0111735471              0.0112896603           
       0.428891           -0.000304717069                         0           
       0.429570            -0.00030473393                         0           
       0.430249              0.0101306126              0.0102503691           
       0.430928              0.0139965239               0.014128436           
       0.431607             0.00644947745             0.00657931305           
       0.432287              0.0140331136              0.0141476967           
       0.432966           -0.000304817127                         0           
       0.433645           -0.000304830748                         0           
       0.434324            -0.00030484854                         0           
       0.435003              0.0223063694               0.022564652           
       0.435682             0.00792471261             0.00803785315           
       0.436361              0.0206560973               0.014640357           
       0.437041              0.0380120913              0.0268919096           
       0.437720           -0.000304927392                         0           
       0.438399           -0.000304945589                         0           
       0.439078           -0.000304963824                         0           
       0.439757           -0.000304978671                         0           
       0.440436           -0.000304999682                         0           
       0.441116           -0.000305012558                         0           
       0.441795              0.0382206295              0.0220213756           
       0.442474           -0.000305045638                         0           
       0.443153              0.0251875553              0.0178777254           
       0.443832           -0.000305078775                         0           
       0.444511           -0.000305097481                         0           
       0.445191               0.020341862              0.0145337062           
       0.445870              0.0111654639              0.0112935084           
       0.446549              0.0187922569              0.0133751328           
       0.447228           -0.000305162182                         0           
       0.447907              0.0457725721              0.0323402439           
       0.448586           -0.000305200835                         0           
       0.449266              0.0341648377              0.0197579017           
       0.449945           -0.000305228204                         0           
       0.450624              0.0650204255              0.0259897467           
       0.451303            -0.00030526697                         0           
       0.451982           -0.000305281423                         0           
       0.452661           -0.000305295249                         0           
       0.453341           -0.000305316258                         0           
       0.454020              0.0161930045              0.0162610161           
       0.454699               0.115316326              0.0811844861           
       0.455378           -0.000305367269                         0           
       0.456057              0.0226017668              0.0160746946           
       0.456736              0.0141202938              0.0142056532           
       0.457416           -0.000305418448                         0           
       0.458095           -0.000305435375                         0           
       0.458774           -0.000305454776                         0           
       0.459453           -0.000305471374                         0           
       0.460132            -0.00030548804                         0           
       0.460811               0.038460877               0.038291835           
       0.461490           -0.000305523793                         0           
       0.462170              0.0189778198              0.0190207482           
       0.462849           -0.000305559857                         0           
       0.463528            -0.00030557091                         0           
       0.464207            -0.00030559055                         0           
       0.464886           -0.000305602914                         0           
       0.465565           -0.000305629182                         0           
       0.466245           -0.000305654559                         0           
       0.466924              0.0283986217              0.0285026424           
       0.467603              0.0188396331              0.0189558737           
       0.468282           -0.000305696621                         0           
       0.468961           -0.000305719407                         0           
       0.469640            -0.00030573389                         0           
       0.470320                       nan                       nan           
       0.470999           -0.000305773487                         0           
       0.471678           -0.000305788538                         0           
       0.472357           -0.000305800224                         0           
       0.473036           -0.000305822013                         0           
       0.473715           -0.000305838703                         0           
       0.474395           -0.000305856394                         0           
       0.475074                       nan                       nan           
       0.475753              0.0574951903               0.057376208           
       0.476432           -0.000305914876                         0           
       0.477111           -0.000305933384                         0           
       0.477790                       nan                       nan           
       0.478470           -0.000305971237                         0           
       0.479149           -0.000305985481                         0           
       0.479828           -0.000306005791                         0           
       0.480507           -0.000306020781                         0           
       0.481186           -0.000306041159                         0           
       0.481865           -0.000306056756                         0           
       0.482545           -0.000306075106                         0           
       0.483224            -0.00030609065                         0           
       0.483903                       nan                       nan           
       0.484582                       nan                       nan           
       0.485261               0.115158651               0.114884654           
