################################################################################
# EDF_DataBlockID                     0.Image.Psd
# EDF_BinarySize                      2105344
# EDF_HeaderSize                      2560
# ByteOrder                           LowByteFirst
# DataType                            FloatValue
# Dim_1                               512
# Dim_2                               1028
# Image                               0
# HeaderID                            EH:000000:000000:000000
# Size                                2105344
# Center_1                            304.9000
# Center_2                            588.7000
# Comment                             Xenocs_Cell_Window - front_window_open_only
# DDummy                              0.6
# Date                                2025-10-20T01:02:35
# Delta                               21.910000
# Dummy                               -1.5
# ExposureTime                        360
# Gamma                               15.360000
# Intensity1                          8.87769e-10
# PSize_1                             7.5e-05
# PSize_2                             7.5e-05
# Pressure                            0.0326967
# SampleDistance                      0.115750
# SampleEnvKind                       large
# SampleEnvPN                         ElectroChemical cell
# SampleEnvSN                         1141
# Thickness                           0
# Wavelength                          1.541891e-10
# Wavelength                          1.54189e-10
# aux                                 0
# aux_dial                            0.002375
# beamx                               588.429
# beamx_dial                          588.429
# beamz                               657.855
# beamz_dial                          657.855
# det0x                               -0.000396875
# det0x_dial                          6.36905
# det0xvd                             -0.0005
# det0xvd_dial                        -0.0005
# det0y                               450.002
# det0y_dial                          481.635
# det0z                               0
# det0z_dial                          1.2295
# det0zvd                             0
# det0zvd_dial                        0
# mag                                 1.818
# mag_dial                            1.818
# om                                  0.2499
# om_dial                             -0.610199
# phi                                 -0.0120535
# phi_dial                            0
# ry                                  0.599993
# ry_dial                             0.599993
# s1bot                               0.8
# s1bot_dial                          -1.66094
# s1hl                                0.8
# s1hl_dial                           -0.608437
# s1hr                                0.8
# s1hr_dial                           0.970938
# s1top                               0.8
# s1top_dial                          -0.461562
# s2bot                               0.45
# s2bot_dial                          1.36109
# s2hl                                0.45
# s2hl_dial                           -0.83375
# s2hr                                0.45
# s2hr_dial                           -0.118594
# s2top                               0.45
# s2top_dial                          1.44734
# w2theta                             32
# w2theta_dial                        32
# waxsch                              19.2605
# waxsch_dial                         -32.7238
# waxsh                               137.085
# waxsh_dial                          -43.5335
# waxsth                              26.0607
# waxsth_dial                         -19.4068
# waxsz                               67.0407
# waxsz_dial                          -23.7962
# wind                                65.9854
# wind_dial                           66.0041
# wpsi                                124
# wpsi_dial                           124
# wstod                               115
# wstod_dial                          115
# x                                   0
# x_dial                              1.00969
# z                                   0
# z_dial                              13.3172
# CountCutoff                         6807993
# DetectorModel                       Dectris EIGER2 Si 500K, S/N E-01-0554
# ThresholdSetting                    4023.88989258
# Saturation                          0
# FlatField                           Corrected
# BackgroundReductionExtra            0.02
# BackgroundCorrectionConstant        0.0026712
# Detector                            0
# Monitor                             0
# Pil_Roi0                            0
# SumForIntensity1                    3.19597e+08
# TransmittedFlux                     887769
# det                                 0
# mon                                 0
# pilai0                              3.19597e+08
# pilai1                              687216
# pilct0                              5.5281e+08
# pilct1                              687216
# pilroi0                             0
# pilroi1                             0
# sec                                 1
# title                               20251017__1_00499.edf
# usaxs0                              0
# Operation                           Azimuthal average I(q)
# Error_model                         ErrorModel.poisson
# Geometrical_correction              True
# Transmission_correction             True
# Thickness_correction                False
# Binning mode                        Uniform
# Binning factor                      1.0
# Psi                                 0.0
# Omega                               0.2499
# MaskInvalidPixels                   True
# DetectorEdge                        3
# MaskFiles                           ['20251017__1_00233_mask.edf']
################################################################################
    q(A⁻¹)                Intensity(a.u.)            Sigma_I(a.u.)            
       0.690460              0.0155597976               0.011544015           
       0.693100             0.00957994277             0.00404971176           
       0.695741             0.00463750217             0.00238040492           
       0.698381             0.00924631655             0.00314368716           
       0.701021             0.00901642379             0.00253359368           
       0.703662             0.00643828897             0.00198174321           
       0.706302             0.00891795262             0.00225252998           
       0.708942             0.00615283542             0.00166195621           
       0.711583             0.00706046629             0.00177999619           
       0.714223             0.00765188443             0.00161477049           
       0.716864              0.0031423597             0.00105595706           
       0.719504             0.00871011896             0.00162707368           
       0.722144             0.00584992983             0.00128782306           
       0.724785             0.00407632429             0.00105739716           
       0.727425             0.00721701088             0.00130502948           
       0.730065             0.00662999379             0.00128703324           
       0.732706             0.00639864072             0.00113698546           
       0.735346             0.00791666608             0.00136607502           
       0.737987             0.00541400838            0.000977801712           
       0.740627             0.00821212619             0.00131924949           
       0.743267             0.00683480064             0.00103525559           
       0.745908              0.0085987858             0.00124447557           
       0.748548             0.00793681081             0.00111511852           
       0.751189             0.00714441652             0.00104802206           
       0.753829             0.00668334678             0.00102278451           
       0.756469             0.00671478602            0.000964235826           
       0.759110             0.00656069023            0.000985837954           
       0.761750             0.00640715932            0.000891623915           
       0.764390             0.00723211855             0.00101686075           
       0.767031             0.00718537074            0.000917162224           
       0.769671             0.00720771066            0.000974191639           
       0.772312             0.00704122128            0.000877437001           
       0.774952             0.00747768773            0.000969375242           
       0.777592             0.00824713436             0.00093113977           
       0.780233             0.00615905601            0.000848295704           
       0.782873             0.00631939919             0.00078575447           
       0.785513             0.00683042373            0.000868994819           
       0.788154             0.00688418897            0.000801317792           
       0.790794             0.00703436919            0.000838338227           
       0.793435             0.00605141254            0.000746840745           
       0.796075             0.00712496136             0.00081466558           
       0.798715             0.00755527473            0.000834116735           
       0.801356             0.00708760332             0.00078626795           
       0.803996             0.00743095633             0.00081795349           
       0.806637             0.00759410376            0.000781623551           
       0.809277             0.00805197887            0.000841996094           
       0.811917             0.00729496459            0.000758394015           
       0.814558             0.00591750478             0.00069974107           
       0.817198             0.00658930258            0.000704058685           
       0.819838             0.00651855577            0.000730455411           
       0.822479             0.00609012155             0.00065065653           
       0.825119             0.00761178787            0.000781430372           
       0.827760             0.00670980007            0.000679822114           
       0.830400             0.00691952027             0.00072738649           
       0.833040             0.00621800165             0.00064352718           
       0.835681             0.00718911953            0.000724626883           
       0.838321             0.00637251908             0.00063855659           
       0.840961             0.00548674939            0.000619325417           
       0.843602             0.00588546861            0.000604205229           
       0.846242             0.00613703688            0.000638766686           
       0.848883             0.00687902399            0.000657868177           
       0.851523              0.0073662773            0.000685870448           
       0.854163             0.00637141482            0.000630464993           
       0.856804             0.00696557154            0.000642339254           
       0.859444             0.00746979435            0.000669964424           
       0.862085              0.0077214504            0.000671248066           
       0.864725             0.00638021717            0.000607930529           
       0.867365             0.00750385399            0.000654571411           
       0.870006             0.00740848149            0.000659472825           
       0.872646             0.00688713572             0.00060817304           
       0.875286             0.00793221575            0.000674926331           
       0.877927             0.00728607329            0.000619335531           
       0.880567              0.0077322145            0.000650479524           
       0.883208             0.00728957725             0.00061334627           
       0.885848             0.00703017549            0.000617954853           
       0.888488             0.00689720379            0.000581980836           
       0.891129             0.00666875175            0.000601549013           
       0.893769             0.00675623865            0.000572330934           
       0.896410             0.00712476789            0.000605837186           
       0.899050               0.006672926            0.000565319534           
       0.901690               0.007147121            0.000597273721           
       0.904331             0.00675747724            0.000560488433           
       0.906971             0.00684997953            0.000582705753           
       0.909611             0.00853327583            0.000624248825           
       0.912252              0.0063816484            0.000549195945           
       0.914892              0.0077247814            0.000588927884           
       0.917533             0.00737231587            0.000588317132           
       0.920173             0.00657987719            0.000533150262           
       0.922813             0.00716765391            0.000581504335           
       0.925454             0.00638015103            0.000520682968           
       0.928094             0.00691322756            0.000553632662           
       0.930734             0.00671272757            0.000532525449           
       0.933375             0.00727413325            0.000566163928           
       0.936015             0.00682100052            0.000524571091           
       0.938656             0.00697174663            0.000552581259           
       0.941296             0.00746057687            0.000551045244           
       0.943936              0.0066367192            0.000529090194           
       0.946577             0.00696201618            0.000521884824           
       0.949217             0.00626738508            0.000512652831           
       0.951858              0.0070978746             0.00051576502           
       0.954498             0.00796675531            0.000574860065           
       0.957138             0.00865343737            0.000575845737           
       0.959779             0.00727687967             0.00053961161           
       0.962419             0.00660017957            0.000494738336           
       0.965059             0.00687187026            0.000519157467           
       0.967700             0.00677515529            0.000498821302           
       0.970340             0.00730094077            0.000532365621           
       0.972981             0.00785915366            0.000533302585           
       0.975621             0.00766462892            0.000537688603           
       0.978261             0.00793328804            0.000521936091           
       0.980902             0.00768509703            0.000538167133           
       0.983542             0.00629815644            0.000473005326           
       0.986182             0.00759124659            0.000526135811           
       0.988823             0.00693075017            0.000486505351           
       0.991463             0.00708907454            0.000503782925           
       0.994104              0.0082188893            0.000524160041           
       0.996744             0.00740589353            0.000513696005           
       0.999384              0.0067698565            0.000474472581           
       1.002025             0.00755410239            0.000515156945           
       1.004665             0.00725295087            0.000484106927           
       1.007306             0.00827055342            0.000534275277           
       1.009946             0.00794306256            0.000503448799           
       1.012586             0.00777317915            0.000512362153           
       1.015227             0.00724510113             0.00047967933           
       1.017867             0.00806566594            0.000520618191           
       1.020507             0.00803690047            0.000500124981           
       1.023148             0.00672058091            0.000462862339           
       1.025788              0.0075617326            0.000485947224           
       1.028429             0.00653235234            0.000461535348           
       1.031069             0.00713997721            0.000464887613           
       1.033709             0.00741941287            0.000482997619           
       1.036350             0.00791027734             0.00048564179           
       1.038990             0.00805394259            0.000502129838           
       1.041630             0.00783245753            0.000485650889           
       1.044271             0.00710618902            0.000462639068           
       1.046911             0.00857641647            0.000498806198           
       1.049552             0.00813231277            0.000503224154           
       1.052192             0.00732095176              0.0004559906           
       1.054832             0.00780643922            0.000480024374           
       1.057473              0.0078639902            0.000475691242           
       1.060113             0.00785370919             0.00048052794           
       1.062754             0.00739022214            0.000460977674           
       1.065394             0.00704280113            0.000445277035           
       1.068034              0.0084422484            0.000485626087           
       1.070675             0.00778890924            0.000474661052           
       1.073315             0.00810242339            0.000469321733           
       1.075955             0.00846887832            0.000487864769           
       1.078596             0.00816366909             0.00047804626           
       1.081236             0.00823287357            0.000472947797           
       1.083877             0.00757341248            0.000467780946           
       1.086517             0.00862873528            0.000488014966           
       1.089157             0.00884426906            0.000497694743           
       1.091798             0.00797330408            0.000462541652           
       1.094438              0.0077565226            0.000463461012           
       1.097078             0.00879780148            0.000480906409           
       1.099719             0.00746562877            0.000454356726           
       1.102359             0.00871608443            0.000465072738           
       1.105000              0.0081983065            0.000468811369           
       1.107640             0.00784994774            0.000443789089           
       1.110280             0.00829643754             0.00046537092           
       1.112921             0.00926517456            0.000482891981           
       1.115561             0.00814039241            0.000458376835           
       1.118202             0.00890704858            0.000465481664           
       1.120842             0.00848334516            0.000468588593           
       1.123482             0.00838580489             0.00045281801           
       1.126123             0.00882870003             0.00046752156           
       1.128763             0.00791366009            0.000440435709           
       1.131403             0.00833107247            0.000451199523           
       1.134044             0.00698660689            0.000412474285           
       1.136684             0.00812572814            0.000448173796           
       1.139325             0.00781489087            0.000427134482           
       1.141965             0.00856945391            0.000453130006           
       1.144605             0.00789528125             0.00043749548           
       1.147246             0.00836027996            0.000441668338           
       1.149886             0.00884458438            0.000457511792           
       1.152527             0.00865336956            0.000452992652           
       1.155167             0.00862145918            0.000445799318           
       1.157807             0.00735692197            0.000412093891           
       1.160448             0.00875731904            0.000455759316           
       1.163088             0.00762724897            0.000409557852           
       1.165728             0.00894430251            0.000461791832           
       1.168369             0.00839471044            0.000431408074           
       1.171009             0.00863419712            0.000441145871           
       1.173650             0.00934210954             0.00045556528           
       1.176290             0.00877984929            0.000446825432           
       1.178930             0.00809076398            0.000416874877           
       1.181571             0.00906449308            0.000455659812           
       1.184211             0.00871500822             0.00043329566           
       1.186851             0.00842233047            0.000429885365           
       1.189492             0.00927784404            0.000453696076           
       1.192132             0.00929010719            0.000447272034           
       1.194773             0.00914216083            0.000441019456           
       1.197413             0.00877516043            0.000435601327           
       1.200053              0.0102614886            0.000468086098           
       1.202694             0.00893351131            0.000433457519           
       1.205334             0.00997382206            0.000463007465           
       1.207975             0.00877521295            0.000425786742           
       1.210615             0.00978936166            0.000459228037           
       1.213255             0.00914021742            0.000432001622           
       1.215896             0.00931438366            0.000444364353           
       1.218536             0.00919592737            0.000428812582           
       1.221176             0.00920689388            0.000439309536           
       1.223817             0.00909313069            0.000427489563           
       1.226457             0.00893148904            0.000429054297           
       1.229098             0.00784398797             0.00039598586           
       1.231738             0.00936285475            0.000438720816           
       1.234378             0.00929025939            0.000428525296           
       1.237019             0.00962472269            0.000439688987           
       1.239659             0.00956437992            0.000438071343           
       1.242299              0.0103887103             0.00045422528           
       1.244940             0.00924915515             0.00042396317           
       1.247580              0.0096210358            0.000434311569           
       1.250221             0.00922575386            0.000432238396           
       1.252861             0.00967445825            0.000426134154           
       1.255501             0.00979279585            0.000440837353           
       1.258142              0.0097563159            0.000431316412           
       1.260782              0.0104180662            0.000450738611           
       1.263423              0.0101626093            0.000436358352           
       1.266063              0.0101144098            0.000443436156           
       1.268703             0.00966554797            0.000422563334           
       1.271344             0.00974193022            0.000433469437           
       1.273984              0.0105102048            0.000443208851           
       1.276624             0.00982904272            0.000425991077           
       1.279265              0.0102273934            0.000435486345           
       1.281905              0.0109175831            0.000452714085           
       1.284546              0.0106718952            0.000442701515           
       1.287186             0.00966133055             0.00042162439           
       1.289826             0.00970436449            0.000424753629           
       1.292467              0.0100597063            0.000424741661           
       1.295107             0.00971503899            0.000424759266           
       1.297747              0.0102063391            0.000423947606           
       1.300388               0.010008766            0.000430604952           
       1.303028              0.0101796651            0.000423222645           
       1.305669             0.00970227716            0.000418517985           
       1.308309              0.0103731513            0.000426238806           
       1.310949              0.0101349641            0.000426568038           
       1.313590             0.00951689626            0.000406959572           
       1.316230              0.0100252609             0.00042520586           
       1.318871               0.010393086            0.000423595992           
       1.321511              0.0103868508            0.000425591045           
       1.324151              0.0103572398            0.000426663272           
       1.326792              0.0101213921             0.00041836083           
       1.329432              0.0100016639            0.000418048374           
       1.332072             0.00951277422            0.000400711977           
       1.334713              0.0104273601             0.00042473579           
       1.337353              0.0105081078            0.000419818481           
       1.339994             0.00965533071            0.000408155007           
       1.342634              0.0104443699            0.000414948228           
       1.345274              0.0106624594            0.000424739205           
       1.347915              0.0108971599            0.000430529963           
       1.350555              0.0100832487            0.000412521836           
       1.353195              0.0102679557            0.000408319355           
       1.355836              0.0112292877            0.000435062801           
       1.358476              0.0105798765            0.000421107507           
       1.361117             0.00986433488            0.000396417601           
       1.363757              0.0107361994            0.000427271365           
       1.366397             0.00972652776             0.00039401982           
       1.369038               0.010065422            0.000409273585           
       1.371678              0.0105979512            0.000411480819           
       1.374319              0.0105215667            0.000413246986           
       1.376959              0.0110343412            0.000417370985           
       1.379599              0.0107381952            0.000419757543           
       1.382240              0.0101690282            0.000400723155           
       1.384880              0.0102110627            0.000406480733           
       1.387520              0.0101939006            0.000401390489           
       1.390161              0.0102920346            0.000402221701           
       1.392801              0.0102145916            0.000403093856           
       1.395442              0.0103911493            0.000402350081           
       1.398082              0.0106900185            0.000409491785           
       1.400722              0.0104976809            0.000403958023           
       1.403363              0.0103848374            0.000405509455           
       1.406003              0.0111349219            0.000409588202           
       1.408644              0.0108209263            0.000412248555           
       1.411284              0.0103174921            0.000400336964           
       1.413924               0.010767151             0.00040392364           
       1.416565              0.0111489689            0.000410539917           
       1.419205              0.0101863973            0.000396282987           
       1.421845              0.0109205802            0.000405157168           
       1.424486              0.0105703421            0.000400366996           
       1.427126              0.0107849482            0.000404155671           
       1.429767               0.010301701             0.00038891044           
       1.432407              0.0112865409             0.00041733088           
       1.435047              0.0104985649            0.000390403889           
       1.437688               0.011166563            0.000411548842           
       1.440328              0.0100431955            0.000382735628           
       1.442968              0.0102303242            0.000391632132           
       1.445609              0.0101888811            0.000384409541           
       1.448249              0.0103748526            0.000390409995           
       1.450890              0.0107553668            0.000394669368           
       1.453530              0.0101536658            0.000386311162           
       1.456170              0.0106078858            0.000393968397           
       1.458811              0.0109042216            0.000396255523           
       1.461451              0.0101466515            0.000385052672           
       1.464092              0.0104070609            0.000386563305           
       1.466732              0.0100836977            0.000378176478           
       1.469372              0.0111646785            0.000396707747           
       1.472013             0.00971702878            0.000376717289           
       1.474653             0.00991934559            0.000371220726           
       1.477293              0.0104421348            0.000387288576           
       1.479934              0.0100656896            0.000376263703           
       1.482574              0.0109031381             0.00039063681           
       1.485215             0.00985849016             0.00037240841           
       1.487855              0.0101002674            0.000376869497           
       1.490495              0.0105109217            0.000383627022           
       1.493136              0.0104797546            0.000378034361           
       1.495776              0.0100780132            0.000377180903           
       1.498416              0.0111652921            0.000389293485           
       1.501057              0.0105295818            0.000381300331           
       1.503697              0.0100503628            0.000368940791           
       1.506338              0.0103794556             0.00037768979           
       1.508978              0.0101203455             0.00037074372           
       1.511618              0.0100582854            0.000369418444           
       1.514259              0.0097628711            0.000364610379           
       1.516899             0.00997165058             0.00036865996           
       1.519540              0.0104162074             0.00037469722           
       1.522180              0.0106010388            0.000373286353           
       1.524820             0.00924621284            0.000355659259           
       1.527461             0.00992341575            0.000360302683           
       1.530101              0.0104299833            0.000373203715           
       1.532741              0.0102511154            0.000368236807           
       1.535382              0.0104018039            0.000371750304           
       1.538022              0.0101976337            0.000364827157           
       1.540663              0.0101305786            0.000367062336           
       1.543303               0.010361511            0.000366602861           
       1.545943             0.00974290482             0.00035748323           
       1.548584              0.0103474334            0.000370368689           
       1.551224              0.0106051814            0.000365340427           
       1.553864              0.0101251325            0.000366301445           
       1.556505              0.0103931369            0.000365408737           
       1.559145             0.00966284674             0.00035315145           
       1.561786             0.00933517943            0.000345539615           
       1.564426             0.00935507587            0.000345595211           
       1.567066             0.00989442527            0.000352643858           
       1.569707             0.00920132403            0.000344991665           
       1.572347              0.0091968765            0.000340433364           
       1.574988             0.00951278231            0.000344861114           
       1.577628             0.00997107028            0.000361019729           
       1.580268             0.00995705119             0.00034831589           
       1.582909             0.00970012143            0.000350222903           
       1.585549             0.00969732973             0.00034690003           
       1.588189             0.00934053729            0.000344261085           
       1.590830             0.00848874838            0.000322555295           
       1.593470             0.00968505483            0.000347348603           
       1.596111             0.00915780892            0.000334843112           
       1.598751             0.00948513804            0.000344258407           
       1.601391             0.00953264761            0.000342912957           
       1.604032             0.00885354162            0.000327713013           
       1.606672             0.00909287115            0.000338797217           
       1.609312             0.00836320888            0.000315251472           
       1.611953             0.00891858032            0.000330268607           
       1.614593             0.00951559968            0.000338549177           
       1.617234             0.00839115995             0.00031971976           
       1.619874             0.00886208191            0.000324703467           
       1.622514             0.00847130348            0.000320271465           
       1.625155             0.00904675901            0.000330152262           
       1.627795             0.00833013768            0.000313604959           
       1.630436             0.00826427521            0.000315502424           
       1.633076             0.00891739081            0.000326067183           
       1.635716             0.00863009386            0.000320212244           
       1.638357             0.00902928473            0.000326142751           
       1.640997              0.0086052973             0.00032088331           
       1.643637             0.00878690721            0.000318230621           
       1.646278             0.00821468529            0.000312299955           
       1.648918             0.00888818151            0.000320662048           
       1.651559             0.00916590659            0.000329727562           
       1.654199             0.00900534703            0.000322346965           
       1.656839             0.00917507238            0.000325282845           
       1.659480             0.00845392174            0.000314987784           
       1.662120             0.00813584249            0.000304864473           
       1.664761             0.00823381455            0.000310015205           
       1.667401             0.00881892049            0.000317852309           
       1.670041             0.00884942746            0.000318765973           
       1.672682             0.00823485096            0.000304604454           
       1.675322             0.00856985641            0.000316232711           
       1.677962              0.0083440091            0.000305840863           
       1.680603              0.0083125701            0.000307973342           
       1.683243             0.00844046471            0.000308037729           
       1.685884             0.00871657692            0.000314226802           
       1.688524             0.00848921108            0.000309229062           
       1.691164             0.00848535877            0.000308364264           
       1.693805             0.00836151751            0.000308581115           
       1.696445             0.00868710975            0.000310166219           
       1.699085             0.00829364874            0.000304270663           
       1.701726             0.00850851674            0.000304178161           
       1.704366             0.00829370368            0.000307621159           
       1.707007             0.00860840202            0.000306715222           
       1.709647             0.00853532211            0.000309205281           
       1.712287             0.00920842782            0.000315798784           
       1.714928             0.00840969851            0.000304826758           
       1.717568             0.00821775116             0.00029855702           
       1.720209             0.00847782857            0.000305117193           
       1.722849             0.00875603427            0.000310580278           
       1.725489             0.00853045731            0.000301667409           
       1.728130             0.00757296016            0.000290019481           
       1.730770             0.00872120908            0.000304652225           
       1.733410             0.00853290583            0.000305301301           
       1.736051             0.00828087746            0.000296090456           
       1.738691             0.00847335757            0.000302569004           
       1.741332             0.00805314359            0.000293155261           
       1.743972             0.00781556471            0.000288905764           
       1.746612             0.00827727391            0.000297385363           
       1.749253             0.00858080279            0.000304097389           
       1.751893             0.00794148658            0.000290794536           
       1.754533             0.00845486034            0.000295928413           
       1.757174             0.00818407467            0.000296594513           
       1.759814             0.00870326565            0.000301194748           
       1.762455             0.00824151349            0.000295591168           
       1.765095             0.00810196126            0.000288962115           
       1.767735             0.00768105903            0.000286137028           
       1.770376             0.00826715361            0.000292351204           
       1.773016             0.00789786135            0.000286197942           
       1.775657             0.00835554751            0.000294976942           
       1.778297             0.00835791308            0.000296461932           
       1.780937             0.00812193863             0.00029088311           
       1.783578             0.00869359596             0.00029953271           
       1.786218             0.00865615793            0.000303656557           
       1.788858             0.00877770277            0.000298183805           
       1.791499              0.0082081195             0.00029366129           
       1.794139             0.00784306537            0.000281755985           
       1.796780             0.00895670206            0.000302884586           
       1.799420             0.00975373813            0.000315671502           
       1.802060             0.00856046574            0.000292094817           
       1.804701             0.00855364808            0.000295895614           
       1.807341             0.00895426551            0.000299820272           
       1.809981              0.0087435258            0.000298238724           
       1.812622             0.00899596437            0.000300865214           
       1.815262             0.00925241956            0.000306211522           
       1.817903             0.00929357469            0.000303100284           
       1.820543             0.00871510573            0.000297143531           
       1.823183             0.00868000955            0.000291975448           
       1.825824             0.00839660964             0.00029148798           
       1.828464              0.0081677698            0.000286606392           
       1.831105             0.00877411479            0.000298204295           
       1.833745              0.0086344522            0.000295636785           
       1.836385             0.00887962002            0.000298638545           
       1.839026              0.0088858916            0.000303234824           
       1.841666             0.00855745305            0.000293714044           
       1.844306             0.00839252134            0.000294541962           
       1.846947             0.00839117919            0.000290733617           
       1.849587             0.00833059656            0.000293611113           
       1.852228             0.00864003846            0.000295834251           
       1.854868             0.00862372254            0.000300975473           
       1.857508             0.00886493171            0.000299521001           
       1.860149               0.008447714            0.000294731382           
       1.862789             0.00831929543            0.000293776826           
       1.865429             0.00797455858            0.000288492788           
       1.868070             0.00877592169            0.000301595411           
       1.870710             0.00823242977            0.000292902782           
       1.873351             0.00903911088            0.000308877375           
       1.875991             0.00863801655            0.000303580005           
       1.878631              0.0085265201             0.00029881101           
       1.881272             0.00848736821            0.000297425838           
       1.883912             0.00838238165            0.000299047086           
       1.886553             0.00836565159            0.000295164876           
       1.889193             0.00850904659             0.00030112256           
       1.891833             0.00863718252            0.000299928914           
       1.894474             0.00867197446            0.000302910947           
       1.897114             0.00833616369            0.000294684482           
       1.899754             0.00906001903            0.000310657716           
       1.902395             0.00878804215            0.000306024524           
       1.905035             0.00821154202            0.000294657308           
       1.907676             0.00882957258            0.000305899874           
       1.910316             0.00853274383            0.000302631514           
       1.912956             0.00817989391            0.000296296398           
       1.915597             0.00883392068            0.000304703769           
       1.918237             0.00795837124            0.000293600062           
       1.920878             0.00865975293            0.000300844455           
       1.923518             0.00881750894            0.000311637844           
       1.926158             0.00857603801            0.000300278666           
       1.928799             0.00842622858            0.000301599661           
       1.931439             0.00875195747            0.000304910515           
       1.934079               0.008574521             0.00030486015           
       1.936720             0.00777333633            0.000288559752           
       1.939360             0.00806097152            0.000296682089           
       1.942001             0.00826822239            0.000299315884           
       1.944641             0.00829838499            0.000298569202           
       1.947281             0.00873486104             0.00030780055           
       1.949922             0.00799352273            0.000294817819           
       1.952562             0.00792295482            0.000296039291           
       1.955202             0.00842405238            0.000297587949           
       1.957843             0.00824630663            0.000303784817           
       1.960483             0.00820739087            0.000298233013           
       1.963124             0.00869969556            0.000306819538           
       1.965764             0.00804067035            0.000295074959           
       1.968404             0.00822718628            0.000303815124           
       1.971045             0.00772580825            0.000287032041           
       1.973685             0.00806269717            0.000298695304           
       1.976326             0.00847630754            0.000304925656           
       1.978966             0.00840076922            0.000305000373           
       1.981606              0.0082848854             0.00029968619           
       1.984247             0.00832974165            0.000303116613           
       1.986887             0.00815417898            0.000302710094           
       1.989527             0.00780714379            0.000290027687           
       1.992168             0.00763396327            0.000293712361           
       1.994808             0.00740162547            0.000285844359           
       1.997449               0.007870452            0.000294325954           
       2.000089             0.00773017939            0.000289973743           
       2.002729             0.00774765789            0.000296953473           
       2.005370             0.00747651697            0.000286165764           
       2.008010             0.00760613691            0.000292467845           
       2.010650              0.0074576129            0.000288769824           
       2.013291              0.0080432902            0.000301601653           
       2.015931             0.00802066476            0.000299021596           
       2.018572             0.00779413052             0.00029868345           
       2.021212             0.00798752785            0.000299652739           
       2.023852             0.00766425621            0.000295068287           
       2.026493             0.00798283497            0.000299818687           
       2.029133             0.00803985655             0.00029859228           
       2.031774             0.00768566699            0.000294772225           
       2.034414             0.00763046201            0.000291958847           
       2.037054             0.00746608562            0.000292438527           
       2.039695              0.0075212926              0.0002877362           
       2.042335             0.00782030725             0.00029839412           
       2.044975             0.00727065512            0.000285417266           
       2.047616             0.00786700636            0.000298164011           
       2.050256             0.00756532736             0.00028895184           
       2.052897             0.00789942641            0.000304008068           
       2.055537             0.00762631524            0.000290562623           
       2.058177             0.00739627343            0.000288674382           
       2.060818             0.00787493818             0.00029876327           
       2.063458             0.00827012047            0.000306589518           
       2.066098             0.00750465463            0.000290760329           
       2.068739             0.00774285457            0.000298418093           
       2.071379             0.00746430162            0.000288674115           
       2.074020             0.00797846541            0.000302537871           
       2.076660             0.00816416137            0.000303963877           
       2.079300             0.00762978949            0.000293805241           
       2.081941             0.00755009295            0.000294043577           
       2.084581             0.00742900753            0.000291892225           
       2.087222             0.00802452095             0.00030357251           
       2.089862             0.00757509282            0.000291272709           
       2.092502             0.00756033723            0.000296276139           
       2.095143             0.00746649392            0.000290223644           
       2.097783             0.00709371037            0.000287190425           
       2.100423             0.00764672153            0.000292457371           
       2.103064             0.00752269704            0.000295084327           
       2.105704             0.00749013521            0.000293318565           
       2.108345             0.00736276298            0.000292149004           
       2.110985             0.00711585638            0.000283174585           
       2.113625             0.00764873409            0.000298211742           
       2.116266             0.00776000944            0.000298149926           
       2.118906             0.00753891521            0.000293658192           
       2.121546             0.00769753286            0.000296495769           
       2.124187             0.00737239727            0.000294179858           
       2.126827             0.00754708224            0.000292976759           
       2.129468             0.00754166173            0.000295927839           
       2.132108             0.00782880056            0.000300884847           
       2.134748             0.00774152659            0.000298075447           
       2.137389               0.007864937            0.000302958308           
       2.140029             0.00752553528            0.000295629655           
       2.142670             0.00727381971            0.000291118371           
       2.145310             0.00780980597            0.000302806032           
       2.147950             0.00684967864            0.000284678831           
       2.150591             0.00747467422            0.000294655779           
       2.153231             0.00739603387            0.000297434955           
       2.155871              0.0072766347            0.000290763532           
       2.158512             0.00757110419             0.00030193277           
       2.161152             0.00747521682            0.000292520387           
       2.163793             0.00723859454            0.000292537176           
       2.166433             0.00701716064             0.00028303328           
       2.169073             0.00769788542            0.000303365174           
       2.171714             0.00768938701            0.000297024994           
       2.174354             0.00731112203             0.00029405286           
       2.176995             0.00741089803             0.00029359675           
       2.179635             0.00766677077             0.00030427366           
       2.182275             0.00713327693            0.000287670174           
       2.184916             0.00780547184            0.000307279069           
       2.187556             0.00742826966            0.000294936542           
       2.190196             0.00694647348            0.000289694366           
       2.192837             0.00769436729            0.000301552071           
       2.195477             0.00773562153            0.000305276008           
       2.198118             0.00779868799            0.000300859034           
       2.200758             0.00676537375            0.000284570996           
       2.203398             0.00723573761            0.000289416743           
       2.206039             0.00755875659            0.000300327663           
       2.208679             0.00749493017            0.000296129531           
       2.211319             0.00779895294            0.000303497759           
       2.213960             0.00722003401            0.000288911371           
       2.216600             0.00758182544            0.000303037153           
       2.219241             0.00746243736            0.000296270941           
       2.221881             0.00707772378            0.000290036989           
       2.224521             0.00739585445             0.00029545531           
       2.227162             0.00740721024            0.000300326292           
       2.229802              0.0070357936            0.000287948675           
       2.232443             0.00755521684            0.000299561526           
       2.235083                0.00737745            0.000294241349           
       2.237723             0.00753757712            0.000299696701           
       2.240364             0.00730603603            0.000293556938           
       2.243004             0.00721168183            0.000292536317           
       2.245644             0.00748100386            0.000297260633           
       2.248285             0.00732820403            0.000296119073           
       2.250925             0.00701282065            0.000288322387           
       2.253566             0.00724871782            0.000293848337           
       2.256206             0.00689656761            0.000285763183           
       2.258846             0.00709524358            0.000289852668           
       2.261487              0.0079388677            0.000307130928           
       2.264127             0.00691777955            0.000289412642           
       2.266767             0.00703355948            0.000287107731           
       2.269408             0.00726584274            0.000295275861           
       2.272048             0.00760757263            0.000300281275           
       2.274689             0.00679897622            0.000284991151           
       2.277329             0.00745938246            0.000298114829           
       2.279969             0.00743577021            0.000298544762           
       2.282610             0.00781957959            0.000303167144           
       2.285250             0.00717069234             0.00029488196           
       2.287891             0.00666683422            0.000281463912           
       2.290531             0.00675322837            0.000284678712           
       2.293171             0.00726953035            0.000295345963           
       2.295812             0.00716338371            0.000291625692           
       2.298452             0.00742686629             0.00029884235           
       2.301092             0.00705538087            0.000293122783           
       2.303733             0.00706584125            0.000287537885           
       2.306373             0.00739286135            0.000301310353           
       2.309014             0.00693359509              0.0002861781           
       2.311654             0.00733999893            0.000297240088           
       2.314294              0.0069422747            0.000288443741           
       2.316935             0.00652498021             0.00028074556           
       2.319575             0.00717188622            0.000293231536           
       2.322215             0.00726249999            0.000299282949           
       2.324856             0.00750106305            0.000296520599           
       2.327496             0.00746403398            0.000303036915           
       2.330137             0.00660200342            0.000279745013           
       2.332777             0.00731532284            0.000297690791           
       2.335417             0.00731126437            0.000296714764           
       2.338058             0.00691470522            0.000289710649           
       2.340698             0.00720878055            0.000292894585           
       2.343339              0.0073388114             0.00030116379           
       2.345979             0.00710222979             0.00029035773           
       2.348619             0.00776388955            0.000309314843           
       2.351260             0.00740850326            0.000295729674           
       2.353900             0.00747130951            0.000303271365           
       2.356540             0.00716936058            0.000292994077           
       2.359181             0.00764685799            0.000306640211           
       2.361821             0.00738450496            0.000297662559           
       2.364462             0.00677650618            0.000289911035           
       2.367102             0.00794555734              0.0003048457           
       2.369742             0.00695660059            0.000295466185           
       2.372383             0.00727705481            0.000293385606           
       2.375023             0.00716281026            0.000298657205           
       2.377663             0.00683064038            0.000285452273           
       2.380304             0.00704050792            0.000293824362           
       2.382944             0.00668795537            0.000283572253           
       2.385585             0.00664103449            0.000285247148           
       2.388225             0.00668110685            0.000284813756           
       2.390865              0.0071655066            0.000295713319           
       2.393506             0.00721014706            0.000295266001           
       2.396146             0.00689808735            0.000289762924           
       2.398787             0.00698626416            0.000291864102           
       2.401427             0.00756523108            0.000301872963           
       2.404067             0.00684231274            0.000291469523           
       2.406708             0.00721848902             0.00029561168           
       2.409348             0.00662947316            0.000285425518           
       2.411988             0.00666632606            0.000285303642           
       2.414629             0.00713851079            0.000296200996           
       2.417269             0.00701621112            0.000290985935           
       2.419910             0.00719673376            0.000298422069           
       2.422550             0.00712407222            0.000292404686           
       2.425190             0.00702582079            0.000299523969           
       2.427831             0.00653571616            0.000278023378           
       2.430471             0.00703395353            0.000296857146           
       2.433112              0.0068521559            0.000286082203           
       2.435752             0.00714381269            0.000299502225           
       2.438392             0.00721601354            0.000295952473           
       2.441033             0.00688130259             0.00029033152           
       2.443673             0.00719055801            0.000297576302           
       2.446313             0.00694279009            0.000290846591           
       2.448954             0.00709624201            0.000296623351           
       2.451594             0.00685232265            0.000289731917           
       2.454235             0.00699396417            0.000291800274           
       2.456875             0.00697094694            0.000292795351           
       2.459515             0.00759375827            0.000306066495           
       2.462156             0.00750201078            0.000302643757           
       2.464796              0.0070979991            0.000299574416           
       2.467436             0.00784619927            0.000308363616           
       2.470077             0.00840433163            0.000323543645           
       2.472717             0.00737291192            0.000299248773           
       2.475358             0.00779927816            0.000311266754           
       2.477998              0.0070699317             0.00029477451           
       2.480638             0.00744887787            0.000303306488           
       2.483279             0.00692910273            0.000293789655           
       2.485919             0.00762861247            0.000306104119           
       2.488560              0.0072147232            0.000298919282           
       2.491200             0.00702741013            0.000294608927           
       2.493840              0.0070090127             0.00029262112           
       2.496481              0.0067736152            0.000291427072           
       2.499121             0.00701561791            0.000292638408           
       2.501761             0.00701274705            0.000297546672           
       2.504402             0.00697197069            0.000290994754           
       2.507042             0.00676135015             0.00029132929           
       2.509683             0.00694600893            0.000292591645           
       2.512323             0.00724683666            0.000300030697           
       2.514963              0.0139299965            0.000416802027           
       2.517604              0.0211460228            0.000511522925           
       2.520244              0.0105253839            0.000360964649           
       2.522884              0.0076268287            0.000306596112           
       2.525525             0.00742602339            0.000305018061           
       2.528165              0.0161370203             0.00044758041           
       2.530806              0.0278031647             0.00058529285           
       2.533446              0.0126593103            0.000398449736           
       2.536086             0.00910571244            0.000335092869           
       2.538727             0.00856735577            0.000327119882           
       2.541367             0.00913857409            0.000336883031           
       2.544008             0.00732394788            0.000301842427           
       2.546648             0.00662021907            0.000287300721           
       2.549288             0.00706861342            0.000296913649           
       2.551929             0.00690263327            0.000294376156           
       2.554569              0.0067270909            0.000287953228           
       2.557209             0.00679432895            0.000292658449           
       2.559850               0.007077154            0.000295252886           
       2.562490              0.0071051954            0.000297991286           
       2.565131             0.00747461179            0.000306171553           
       2.567771             0.00671827738            0.000288729786           
       2.570411             0.00704527499            0.000299270976           
       2.573052             0.00644860986            0.000282975854           
       2.575692             0.00739959877            0.000303928171           
       2.578332             0.00708373242            0.000296492093           
       2.580973             0.00785026129            0.000314652487           
       2.583613             0.00669138891            0.000287853459           
       2.586254             0.00687877539            0.000294438199           
       2.588894             0.00754759463            0.000306775026           
       2.591534             0.00679115265             0.00029153155           
       2.594175             0.00668468832             0.00029091632           
       2.596815             0.00678056528            0.000290271034           
       2.599456             0.00643292532            0.000285045264           
       2.602096             0.00700646172             0.00029636756           
       2.604736             0.00683051408            0.000293390131           
       2.607377             0.00652011489            0.000285550187           
       2.610017             0.00669723435            0.000289301585           
       2.612657             0.00706955483            0.000299334066           
       2.615298              0.0066607118            0.000287707622           
       2.617938             0.00715988798            0.000300903264           
       2.620579             0.00675201734            0.000289820029           
       2.623219             0.00662899041            0.000291761009           
       2.625859             0.00699972747            0.000294755713           
       2.628500             0.00692973991            0.000297965639           
       2.631140             0.00710635977            0.000296417881           
       2.633780             0.00679891533            0.000293658927           
       2.636421             0.00713553727            0.000298103242           
       2.639061             0.00785198241            0.000316449796           
       2.641702             0.00744327839            0.000304810336           
       2.644342             0.00701692079            0.000298379423           
       2.646982             0.00700011966             0.00029776898           
       2.649623             0.00714427339             0.00030262271           
       2.652263             0.00713817222            0.000300086437           
       2.654904             0.00801705323            0.000319751044           
       2.657544             0.00698695975            0.000296402852           
       2.660184             0.00698972723            0.000296840756           
       2.662825             0.00697502759            0.000297239213           
       2.665465             0.00718729128            0.000302286148           
       2.668105             0.00669129195            0.000291784716           
       2.670746             0.00650688568            0.000285301314           
       2.673386             0.00679836474            0.000295155739           
       2.676027             0.00697225347             0.00029636564           
       2.678667             0.00732855229            0.000305423383           
       2.681307             0.00747437482            0.000306021586           
       2.683948             0.00741424606            0.000307815118           
       2.686588               0.007088733            0.000298220167           
       2.689229             0.00773896569            0.000314394178           
       2.691869             0.00796278455            0.000315724885           
       2.694509             0.00798041853            0.000320408877           
       2.697150             0.00712539013            0.000297926144           
       2.699790             0.00731382645            0.000308109771           
       2.702430             0.00687762318            0.000293052065           
       2.705071             0.00692523426            0.000298089207           
       2.707711             0.00739113145            0.000304899281           
       2.710352             0.00679895557            0.000294094543           
       2.712992             0.00654495768            0.000289486962           
       2.715632             0.00667127644            0.000290604686           
       2.718273             0.00704536114            0.000299632666           
       2.720913             0.00694171319            0.000297917036           
       2.723553             0.00677593083            0.000293315317           
       2.726194             0.00708751534            0.000301430198           
       2.728834             0.00679331697              0.0002924845           
       2.731475             0.00708244329             0.00030125384           
       2.734115             0.00643867366            0.000285524682           
       2.736755             0.00639478934            0.000286430992           
       2.739396             0.00652003724            0.000287692996           
       2.742036             0.00693145992            0.000298655718           
       2.744677             0.00709656704            0.000302633589           
       2.747317             0.00728588816            0.000305154088           
       2.749957             0.00743626588            0.000310523615           
       2.752598             0.00740718298            0.000310849075           
       2.755238             0.00630515597            0.000286665337           
       2.757878             0.00741086498            0.000309901318           
       2.760519             0.00739384386            0.000306276878           
       2.763159             0.00741911642            0.000311788383           
       2.765800             0.00785249356            0.000315331794           
       2.768440             0.00709810502            0.000303751886           
       2.771080             0.00669511864            0.000292517323           
       2.773721               0.006990048            0.000302557551           
       2.776361              0.0069443698            0.000298328428           
       2.779001               0.006988426            0.000302419093           
       2.781642             0.00706106119            0.000301912401           
       2.784282             0.00704297391            0.000301630661           
       2.786923              0.0065255712            0.000288131758           
       2.789563             0.00641896076             0.00028634247           
       2.792203             0.00673191088            0.000295106185           
       2.794844             0.00632299966            0.000284701715           
       2.797484             0.00655803087            0.000290353271           
       2.800125             0.00689793065            0.000297397845           
       2.802765             0.00641813362            0.000292186436           
       2.805405             0.00663974591            0.000292898178           
       2.808046             0.00682237376             0.00030145148           
       2.810686             0.00666245534            0.000294723232           
       2.813326             0.00647863619            0.000294224759           
       2.815967              0.0070775445             0.00030558577           
       2.818607             0.00729235559            0.000313289287           
       2.821248             0.00677817445            0.000298276316           
       2.823888             0.00645159405            0.000295689065           
       2.826528             0.00722443498            0.000311031833           
       2.829169             0.00681975898             0.00030086094           
       2.831809             0.00711818931            0.000307642551           
       2.834449             0.00641465502            0.000286946419           
       2.837090             0.00682992495            0.000297870756           
       2.839730             0.00664404936            0.000291703197           
       2.842371             0.00660826168            0.000292943462           
       2.845011             0.00669833798            0.000294275454           
       2.847651             0.00710123673             0.00030355287           
       2.850292             0.00728393789            0.000305686196           
       2.852932             0.00648129248            0.000288869449           
       2.855573             0.00655852076            0.000293137464           
       2.858213             0.00688017749            0.000296870986           
       2.860853             0.00658193257            0.000292538612           
       2.863494             0.00693490306            0.000301003226           
       2.866134             0.00716709315             0.00031029291           
       2.868774             0.00708150362            0.000303713201           
       2.871415             0.00588684549            0.000279653025           
       2.874055             0.00687827469            0.000303783308           
       2.876696             0.00681040015            0.000299558811           
       2.879336             0.00654267035             0.00029556067           
       2.881976             0.00727428735            0.000311391507           
       2.884617             0.00622783458            0.000286523845           
       2.887257             0.00658619374            0.000292597599           
       2.889897             0.00628938449            0.000289205926           
       2.892538             0.00707297969            0.000304566872           
       2.895178             0.00694085878            0.000298632114           
       2.897819             0.00708050537            0.000304723472           
       2.900459             0.00695883718            0.000299592809           
       2.903099             0.00683249788            0.000298410791           
       2.905740             0.00698377209            0.000298328518           
       2.908380             0.00692092643            0.000300942207           
       2.911021             0.00713169966            0.000306071096           
       2.913661             0.00615147712            0.000281131612           
       2.916301             0.00687434266            0.000301418754           
       2.918942             0.00743868584            0.000308816832           
       2.921582             0.00664605791            0.000294963085           
       2.924222             0.00665409731            0.000293429563           
       2.926863             0.00637621238            0.000288000158           
       2.929503             0.00708770838            0.000307014419           
       2.932144             0.00692620001            0.000298518637           
       2.934784             0.00679126129            0.000296852629           
       2.937424             0.00716998208            0.000305581632           
       2.940065               0.007214298            0.000306774014           
       2.942705             0.00676563179            0.000297984265           
       2.945346              0.0071609096            0.000304754763           
       2.947986             0.00816430024            0.000326544197           
       2.950626             0.00896496664            0.000343233855           
       2.953267              0.0102633582            0.000363347485           
       2.955907             0.00787472842            0.000322477454           
       2.958547             0.00810122006            0.000323728269           
       2.961188             0.00701109475            0.000303789796           
       2.963828             0.00686529967            0.000298910962           
       2.966469             0.00698530033            0.000301587119           
       2.969109             0.00720994816            0.000307965291           
       2.971749             0.00883995029            0.000340001891           
       2.974390             0.00898729127            0.000343764407           
       2.977030             0.00841893589            0.000332083874           
       2.979670             0.00746852902            0.000310761846           
       2.982311             0.00663705862            0.000295067233           
       2.984951             0.00720528654            0.000308233801           
       2.987592             0.00802039163            0.000324103779           
       2.990232             0.00746886274             0.00031356033           
       2.992872             0.00820143461            0.000326007527           
       2.995513              0.0100136918            0.000363059595           
       2.998153              0.0150803134            0.000448413705           
       3.000794              0.0266378406            0.000587296116           
       3.003434              0.0252775243            0.000578170198           
       3.006074              0.0175492735            0.000483298455           
       3.008715              0.0148289104            0.000447646252           
       3.011355              0.0174230857            0.000490270839           
       3.013995              0.0156469884            0.000462338334           
       3.016636              0.0274082263            0.000613053696           
       3.019276               0.193022146             0.00166578166           
       3.021917               0.398017556             0.00235145587           
       3.024557               0.149889984             0.00145453921           
       3.027197              0.0752750295             0.00104807711           
       3.029838               0.160812957             0.00152456711           
       3.032478               0.101033205             0.00121564139           
       3.035118              0.0785798489             0.00107760292           
       3.037759               0.078304022             0.00107760455           
       3.040399                0.06920381             0.00102464555           
       3.043040              0.0668382271             0.00101676101           
       3.045680               0.052934541            0.000890913148           
       3.048320              0.0714606265             0.00105175091           
       3.050961               0.066950677              0.0010282297           
       3.053601              0.0966663483             0.00123005762           
       3.056242               0.071618399             0.00106556718           
       3.058882               0.111566838             0.00134973648           
       3.061522               0.271504435             0.00209098263           
       3.064163              0.0624614079             0.00100474853           
       3.066803              0.0207025111            0.000589631704           
       3.069443              0.0267691933            0.000666016212           
       3.072084              0.0733656765             0.00111240389           
       3.074724              0.0658668813             0.00106024573           
       3.077365              0.0133262744            0.000476558597           
       3.080005             0.00891295141            0.000394059869           
       3.082645             0.00849504503            0.000386669532           
       3.085286             0.00877435915            0.000393046575           
       3.087926             0.00762181577            0.000368654875           
       3.090566             0.00732832899            0.000365211014           
       3.093207             0.00772506964            0.000370915409           
       3.095847              0.0076036727            0.000375702945           
       3.098488             0.00801988684            0.000385149044           
       3.101128             0.00799641072              0.0003866799           
       3.103768             0.00787566391            0.000385911292           
       3.106409             0.00862203977             0.00040648834           
       3.109049              0.0099870713            0.000440884928           
       3.111690              0.0126608398            0.000494451918           
       3.114330              0.0201976749            0.000630072674           
       3.116970              0.0171056145            0.000587907928           
       3.119611              0.0118771714            0.000486700028           
       3.122251             0.00970075212            0.000443455235           
       3.124891             0.00836596523            0.000413817085           
       3.127532             0.00834342698            0.000420703663           
       3.130172             0.00930380004            0.000435117876           
       3.132813             0.00672982908            0.000377597366           
       3.135453             0.00713430503            0.000396980007           
       3.138093             0.00612620228            0.000359136574           
       3.140734             0.00673764473            0.000383642217           
       3.143374             0.00604232696            0.000368861347           
       3.146014             0.00653243001            0.000380745146           
       3.148655             0.00631813301            0.000377395972           
       3.151295             0.00739259164            0.000411457749           
       3.153936             0.00684957622            0.000401904792           
       3.156576              0.0055934069             0.00035901719           
       3.159216             0.00644726948            0.000388599743           
       3.161857              0.0062982065            0.000388792832           
       3.164497             0.00627311227             0.00039619899           
       3.167138             0.00620703014            0.000384651396           
       3.169778             0.00553217142            0.000369696421           
       3.172418             0.00628013076             0.00039619787           
       3.175059             0.00638155649            0.000404611081           
       3.177699             0.00626801037            0.000399411481           
       3.180339             0.00612312025            0.000398296769           
       3.182980             0.00627042465            0.000408500454           
       3.185620             0.00541632375            0.000383810157           
       3.188261             0.00613013637            0.000402969122           
       3.190901             0.00592077964            0.000402130619           
       3.193541             0.00576443897            0.000398093373           
       3.196182             0.00608370736            0.000417478396           
       3.198822             0.00613798431             0.00041425317           
       3.201463             0.00601253414            0.000415299964           
       3.204103             0.00509648536            0.000387448066           
       3.206743             0.00608531873            0.000426949146           
       3.209384             0.00601039869            0.000422421298           
       3.212024             0.00555280735            0.000407465214           
       3.214664             0.00586338305            0.000426685874           
       3.217305             0.00598039758              0.0004409761           
       3.219945              0.0055698902            0.000422013637           
       3.222586             0.00507154278            0.000404971144           
       3.225226             0.00600974606            0.000450772541           
       3.227866              0.0051817246            0.000421806649           
       3.230507             0.00650561344            0.000478268809           
       3.233147             0.00682384983            0.000482581852           
       3.235787             0.00624343969            0.000461728042           
       3.238428             0.00530273982            0.000433039644           
       3.241068             0.00545005867            0.000447915888           
       3.243709              0.0061402399            0.000472793298           
       3.246349             0.00595283428            0.000462917734           
       3.248989             0.00651672692             0.00049541779           
       3.251630             0.00548062402            0.000456340482           
       3.254270             0.00574446551            0.000481556659           
       3.256911             0.00551840182            0.000460160094           
       3.259551             0.00605804193            0.000492788617           
       3.262191             0.00591928035            0.000491593533           
       3.264832              0.0060306128            0.000500850873           
       3.267472             0.00521703928            0.000472449551           
       3.270112              0.0058992851            0.000503822607           
       3.272753             0.00569742707             0.00050121253           
       3.275393              0.0054047126              0.0004906802           
       3.278034             0.00525186485            0.000493545416           
       3.280674             0.00625110394            0.000540016866           
       3.283314             0.00476539299             0.00047410159           
       3.285955             0.00554269403            0.000520911839           
       3.288595               0.005625343            0.000530635712           
       3.291235             0.00528433418            0.000517321846           
       3.293876             0.00694020677            0.000596370043           
       3.296516             0.00591965268            0.000562013372           
       3.299157             0.00638156448            0.000592348255           
       3.301797             0.00601584571            0.000575368917           
       3.304437              0.0052718842            0.000548714326           
       3.307078             0.00530773031            0.000555925269           
       3.309718              0.0063032285            0.000611867293           
       3.312359             0.00582195644            0.000599926319           
       3.314999             0.00620154093            0.000625670211           
       3.317639             0.00532920599            0.000586243986           
       3.320280             0.00439388116             0.00054009166           
       3.322920             0.00672036924            0.000677937402           
       3.325560             0.00477444109            0.000582452425           
       3.328201             0.00534233525            0.000618723703           
       3.330841             0.00554405796            0.000645626074           
       3.333482              0.0061268002            0.000687327308           
       3.336122             0.00544768444            0.000662202476           
       3.338762             0.00578016074            0.000688349407           
       3.341403             0.00573173137            0.000691818628           
       3.344043             0.00750894074            0.000822064714           
       3.346683             0.00572108589            0.000724833985           
       3.349324             0.00608525944            0.000759119688           
       3.351964             0.00537966843            0.000736699923           
       3.354605             0.00592943009            0.000782185202           
       3.357245             0.00556459564            0.000784373773           
       3.359885             0.00602864184            0.000816717894           
       3.362526             0.00516971377            0.000794973201           
       3.365166             0.00436960728            0.000721847033           
       3.367807             0.00581010929            0.000891022229           
       3.370447             0.00528692624            0.000850288607           
       3.373087             0.00500554806            0.000873186445           
       3.375728             0.00597167617            0.000946528878           
       3.378368             0.00625507155             0.00104678318           
       3.381008             0.00486890554            0.000915488424           
       3.383649             0.00639993349             0.00113590888           
       3.386289             0.00617052552             0.00111582455           
       3.388930             0.00575819721             0.00118379941           
       3.391570             0.00648060511             0.00125639065           
       3.394210              0.0054974788             0.00123988673           
       3.396851              0.0061038767             0.00141522727           
       3.399491             0.00601903264              0.0014308631           
       3.402131             0.00326622856              0.0012476875           
       3.404772             0.00507160097             0.00155539667           
       3.407412             0.00281457092             0.00143781307           
       3.410053             0.00453786868             0.00190103048           
       3.412693             0.00444846334             0.00266296314           
       3.415333             0.00439102393             0.00324164365           
