################################################################################
# EDF_DataBlockID                     0.Image.Psd
# EDF_BinarySize                      2105344
# EDF_HeaderSize                      2560
# ByteOrder                           LowByteFirst
# DataType                            FloatValue
# Dim_1                               512
# Dim_2                               1028
# Image                               0
# HeaderID                            EH:000000:000000:000000
# Size                                2105344
# Center_1                            304.9000
# Center_2                            588.7000
# Comment                             Xenocs_Cell_Window - front_window_open_only
# DDummy                              0.6
# Date                                2025-10-20T05:07:00
# Delta                               21.910000
# Dummy                               -1.5
# ExposureTime                        360
# Gamma                               15.360000
# Intensity1                          8.81441e-10
# PSize_1                             7.5e-05
# PSize_2                             7.5e-05
# Pressure                            0.0326872
# SampleDistance                      0.115750
# SampleEnvKind                       large
# SampleEnvPN                         ElectroChemical cell
# SampleEnvSN                         1141
# Thickness                           0
# Wavelength                          1.541891e-10
# Wavelength                          1.54189e-10
# aux                                 0
# aux_dial                            0.002375
# beamx                               588.429
# beamx_dial                          588.429
# beamz                               657.855
# beamz_dial                          657.855
# det0x                               -0.000396875
# det0x_dial                          6.36905
# det0xvd                             -0.0005
# det0xvd_dial                        -0.0005
# det0y                               450.002
# det0y_dial                          481.635
# det0z                               0
# det0z_dial                          1.2295
# det0zvd                             0
# det0zvd_dial                        0
# mag                                 1.818
# mag_dial                            1.818
# om                                  0.2499
# om_dial                             -0.610199
# phi                                 -0.0120535
# phi_dial                            0
# ry                                  0.599993
# ry_dial                             0.599993
# s1bot                               0.8
# s1bot_dial                          -1.66094
# s1hl                                0.8
# s1hl_dial                           -0.608437
# s1hr                                0.8
# s1hr_dial                           0.970938
# s1top                               0.8
# s1top_dial                          -0.461562
# s2bot                               0.45
# s2bot_dial                          1.36109
# s2hl                                0.45
# s2hl_dial                           -0.83375
# s2hr                                0.45
# s2hr_dial                           -0.118594
# s2top                               0.45
# s2top_dial                          1.44734
# w2theta                             32
# w2theta_dial                        32
# waxsch                              19.2605
# waxsch_dial                         -32.7238
# waxsh                               137.085
# waxsh_dial                          -43.5335
# waxsth                              26.0607
# waxsth_dial                         -19.4068
# waxsz                               67.0407
# waxsz_dial                          -23.7962
# wind                                65.9854
# wind_dial                           66.0041
# wpsi                                124
# wpsi_dial                           124
# wstod                               115
# wstod_dial                          115
# x                                   0
# x_dial                              1.00969
# z                                   0
# z_dial                              13.3172
# CountCutoff                         6807993
# DetectorModel                       Dectris EIGER2 Si 500K, S/N E-01-0554
# ThresholdSetting                    4023.88989258
# Saturation                          0
# FlatField                           Corrected
# BackgroundReductionExtra            0.02
# BackgroundCorrectionConstant        0.0026712
# Detector                            0
# Monitor                             0
# Pil_Roi0                            0
# SumForIntensity1                    3.17319e+08
# TransmittedFlux                     881441
# det                                 0
# mon                                 0
# pilai0                              3.17319e+08
# pilai1                              683696
# pilct0                              5.4849e+08
# pilct1                              683696
# pilroi0                             0
# pilroi1                             0
# sec                                 1
# title                               20251017__1_00536.edf
# usaxs0                              0
# Operation                           Azimuthal average I(q)
# Error_model                         ErrorModel.poisson
# Geometrical_correction              True
# Transmission_correction             True
# Thickness_correction                False
# Binning mode                        Uniform
# Binning factor                      1.0
# Psi                                 0.0
# Omega                               0.2499
# MaskInvalidPixels                   True
# DetectorEdge                        3
# MaskFiles                           ['20251017__1_00233_mask.edf']
################################################################################
    q(A⁻¹)                Intensity(a.u.)            Sigma_I(a.u.)            
       0.690460             0.00782423117              0.0082154075           
       0.693100             0.00801179947             0.00371673036           
       0.695741             0.00829277819             0.00319456821           
       0.698381             0.00825243221             0.00298056975           
       0.701021              0.0111444224             0.00282684473           
       0.703662             0.00891817628             0.00234074194           
       0.706302             0.00450510355             0.00160673314           
       0.708942             0.00660965174             0.00172871969           
       0.711583             0.00617589228             0.00167072742           
       0.714223             0.00471450787             0.00127203233           
       0.716864             0.00873651029             0.00176701677           
       0.719504             0.00908871485             0.00166801434           
       0.722144             0.00558470088             0.00126279889           
       0.724785             0.00627466295             0.00131659542           
       0.727425             0.00631849884             0.00122546796           
       0.730065             0.00643991741             0.00127299505           
       0.732706             0.00481033775            0.000989355101           
       0.735346             0.00680800455             0.00127135451           
       0.737987             0.00843858766             0.00122512268           
       0.740627             0.00465353985            0.000996653535           
       0.743267             0.00626137801            0.000994427172           
       0.745908              0.0073501439             0.00115469981           
       0.748548             0.00719567558             0.00106558271           
       0.751189             0.00609590998             0.00097153774           
       0.753829             0.00717088643             0.00106322928           
       0.756469             0.00621130689            0.000930704969           
       0.759110             0.00664128846            0.000995429034           
       0.761750             0.00483931527            0.000777668073           
       0.764390             0.00625146063            0.000948795966           
       0.767031             0.00655088413            0.000878870508           
       0.769671             0.00805742155             0.00103370623           
       0.772312             0.00557688011            0.000783683975           
       0.774952             0.00702040573            0.000942633199           
       0.777592             0.00823249972            0.000933646702           
       0.780233             0.00689134213             0.00090052435           
       0.782873             0.00675204418             0.00081511703           
       0.785513             0.00630064387            0.000837604871           
       0.788154             0.00642511605            0.000776912746           
       0.790794              0.0055948517            0.000750333513           
       0.793435             0.00758363971            0.000839057712           
       0.796075             0.00604264542            0.000752930743           
       0.798715             0.00753016025            0.000835713037           
       0.801356             0.00757023235            0.000815509155           
       0.803996             0.00622355218            0.000751240143           
       0.806637             0.00683547881            0.000744212924           
       0.809277             0.00607653631            0.000734074564           
       0.811917             0.00720094061            0.000756190612           
       0.814558             0.00787251932            0.000809987446           
       0.817198             0.00677408001            0.000716419931           
       0.819838             0.00703908006            0.000761779593           
       0.822479             0.00733433906            0.000716593176           
       0.825119             0.00619027035            0.000707220956           
       0.827760             0.00662738531            0.000678055078           
       0.830400             0.00658579301            0.000712171582           
       0.833040             0.00673721884            0.000672256746           
       0.835681             0.00723576837            0.000729578928           
       0.838321             0.00686128354            0.000664966652           
       0.840961             0.00791811269            0.000746664571           
       0.843602             0.00633519897            0.000629111247           
       0.846242             0.00637059045            0.000653139724           
       0.848883             0.00712830624              0.0006720816           
       0.851523              0.0060105305            0.000621767225           
       0.854163             0.00666821396            0.000647293377           
       0.856804             0.00569069198            0.000582669102           
       0.859444             0.00765033842            0.000680441991           
       0.862085             0.00801851779            0.000686489687           
       0.864725             0.00660978292            0.000620987967           
       0.867365             0.00698641196            0.000633862858           
       0.870006             0.00670220234            0.000629498118           
       0.872646             0.00720898165            0.000624450716           
       0.875286             0.00724768839            0.000647458942           
       0.877927             0.00705964368            0.000611820442           
       0.880567             0.00592201324            0.000571307249           
       0.883208             0.00667476316            0.000589014317           
       0.885848             0.00685011798            0.000612175653           
       0.888488             0.00670435243            0.000575842795           
       0.891129             0.00679392128            0.000609343752           
       0.893769             0.00646831542             0.00056200954           
       0.896410             0.00583416969             0.00055019097           
       0.899050             0.00681373651            0.000573299904           
       0.901690                0.00744233            0.000611667866           
       0.904331             0.00692570155             0.00056945526           
       0.906971             0.00695066531            0.000589075854           
       0.909611             0.00626378611            0.000536749521           
       0.912252             0.00686361597            0.000571598049           
       0.914892             0.00754726518            0.000584207579           
       0.917533             0.00666903155             0.00056155756           
       0.920173             0.00649687916            0.000531675309           
       0.922813             0.00594948342            0.000531688707           
       0.925454             0.00694163345            0.000545057217           
       0.928094             0.00673954806            0.000548592705           
       0.930734             0.00647026915            0.000524693149           
       0.933375              0.0077294413            0.000585705072           
       0.936015             0.00742422546            0.000549236324           
       0.938656             0.00676966026            0.000546464753           
       0.941296             0.00775899626            0.000563971541           
       0.943936              0.0064635302            0.000524012016           
       0.946577             0.00713679858            0.000530288535           
       0.949217             0.00825460263            0.000590447951           
       0.951858             0.00691361911            0.000510850488           
       0.954498             0.00755772149            0.000561914457           
       0.957138             0.00734397655            0.000532391157           
       0.959779             0.00790501368            0.000564434258           
       0.962419             0.00840074227            0.000560157149           
       0.965059             0.00806693256            0.000564506837           
       0.967700             0.00720094695            0.000516099614           
       0.970340              0.0062235659            0.000493280104           
       0.972981              0.0081671326            0.000545599503           
       0.975621             0.00715683231            0.000521433644           
       0.978261             0.00797268089            0.000525105144           
       0.980902             0.00728090963            0.000525700849           
       0.983542             0.00727087837            0.000510042203           
       0.986182             0.00775366801            0.000533639881           
       0.988823             0.00787491672            0.000520443811           
       0.991463             0.00743452707            0.000517760255           
       0.994104             0.00801220975            0.000519381963           
       0.996744             0.00786412203            0.000531246329           
       0.999384             0.00734024741             0.00049582692           
       1.002025             0.00785392679            0.000527162991           
       1.004665             0.00743595335            0.000491932619           
       1.007306             0.00756962173            0.000512965604           
       1.009946             0.00707279693            0.000476771489           
       1.012586             0.00779198289            0.000514819588           
       1.015227              0.0077849724            0.000499011646           
       1.017867             0.00809807927            0.000523532443           
       1.020507             0.00683242161            0.000462780388           
       1.023148             0.00732046287            0.000484809447           
       1.025788             0.00711757312            0.000473148841           
       1.028429             0.00798573817               0.000512131           
       1.031069             0.00756444241            0.000480221264           
       1.033709              0.0084396297            0.000516981831           
       1.036350             0.00815314747            0.000494807426           
       1.038990             0.00776184328            0.000494706439           
       1.041630             0.00782486707            0.000487154829           
       1.044271             0.00743592453            0.000474946594           
       1.046911             0.00687337746            0.000448143779           
       1.049552             0.00823726507            0.000508275675           
       1.052192             0.00843941713            0.000491339532           
       1.054832             0.00705357266            0.000457925402           
       1.057473             0.00852378578            0.000497019354           
       1.060113             0.00789044712            0.000483376361           
       1.062754             0.00866615148            0.000500976838           
       1.065394             0.00799541662            0.000476136525           
       1.068034             0.00774772865            0.000466888859           
       1.070675              0.0081036242            0.000485890364           
       1.073315             0.00808678395            0.000470548597           
       1.075955             0.00834322864            0.000485967188           
       1.078596             0.00806762815            0.000476928778           
       1.081236             0.00719861976            0.000443828784           
       1.083877             0.00863718283            0.000501344371           
       1.086517             0.00869713926             0.00049170106           
       1.089157             0.00755934354            0.000461771884           
       1.091798             0.00905473492            0.000494678367           
       1.094438             0.00834200345            0.000482356595           
       1.097078             0.00916383379            0.000492567157           
       1.099719             0.00874359992             0.00049347172           
       1.102359             0.00847192546            0.000460155477           
       1.105000             0.00913816967            0.000496728447           
       1.107640             0.00908671298            0.000479181461           
       1.110280             0.00849442176            0.000472578209           
       1.112921             0.00795795454            0.000449135395           
       1.115561             0.00909663526            0.000486288217           
       1.118202             0.00825729294            0.000449788014           
       1.120842             0.00799895364            0.000456644359           
       1.123482             0.00889197794            0.000467954758           
       1.126123             0.00904520013            0.000474914814           
       1.128763             0.00941505745            0.000482123918           
       1.131403              0.0083836441              0.0004542427           
       1.134044             0.00790275915            0.000440257194           
       1.136684              0.0084431667            0.000458481021           
       1.139325             0.00940055528            0.000470146591           
       1.141965             0.00848731687            0.000452569019           
       1.144605             0.00793603108            0.000440194702           
       1.147246             0.00774921108            0.000426744533           
       1.149886             0.00817548417            0.000441442032           
       1.152527             0.00794674924             0.00043565896           
       1.155167             0.00847657708            0.000443621548           
       1.157807             0.00850326053            0.000444625338           
       1.160448             0.00877584641            0.000457875957           
       1.163088             0.00874923796            0.000440220004           
       1.165728             0.00845111985            0.000450488285           
       1.168369             0.00948055178            0.000460103546           
       1.171009             0.00915887694            0.000455979917           
       1.173650             0.00858078193            0.000438172317           
       1.176290              0.0086815343            0.000445908715           
       1.178930             0.00868436833            0.000433444442           
       1.181571             0.00847518758            0.000442177856           
       1.184211             0.00890746572            0.000439623482           
       1.186851             0.00936299458             0.00045488045           
       1.189492             0.00837953602            0.000432717878           
       1.192132             0.00900916449            0.000442035352           
       1.194773             0.00909970111              0.0004415707           
       1.197413              0.0092138173            0.000447955449           
       1.200053             0.00943833146             0.00045052774           
       1.202694             0.00905940551            0.000438065104           
       1.205334             0.00962099558            0.000456373645           
       1.207975             0.00904138332            0.000433744626           
       1.210615             0.00931600647            0.000449592919           
       1.213255             0.00955811949            0.000443349993           
       1.215896             0.00862219119            0.000429066235           
       1.218536             0.00900006398            0.000425741431           
       1.221176             0.00993275119            0.000457933278           
       1.223817             0.00915644847            0.000430512427           
       1.226457             0.00953765832            0.000444963682           
       1.229098             0.00886632622            0.000422509459           
       1.231738             0.00940793978            0.000441351621           
       1.234378              0.0102865347             0.00045253321           
       1.237019             0.00945258269            0.000437300609           
       1.239659              0.0100576157             0.00045083468           
       1.242299              0.0102375587             0.00045252445           
       1.244940             0.00971731953            0.000436117691           
       1.247580              0.0103557251            0.000452203691           
       1.250221             0.00998091925            0.000451191642           
       1.252861             0.00983032482            0.000431092348           
       1.255501             0.00994378898            0.000445814664           
       1.258142              0.0112034998            0.000463856105           
       1.260782              0.0106723357            0.000457840606           
       1.263423              0.0106189244            0.000447645585           
       1.266063              0.0100071715            0.000442659575           
       1.268703             0.00982479935            0.000427556762           
       1.271344              0.0101048533            0.000443051635           
       1.273984              0.0105507772            0.000445654632           
       1.276624              0.0102467384            0.000436506866           
       1.279265              0.0102286872            0.000437074405           
       1.281905              0.0106898596            0.000449572893           
       1.284546             0.00957172029             0.00042076402           
       1.287186              0.0101267134            0.000433206415           
       1.289826             0.00994393675            0.000431505254           
       1.292467              0.0102201008            0.000429648366           
       1.295107              0.0101026923            0.000434702878           
       1.297747              0.0100645409            0.000422500804           
       1.300388              0.0108186691             0.00044929236           
       1.303028              0.0109027413            0.000439565267           
       1.305669             0.00985565885            0.000423324577           
       1.308309              0.0107971456            0.000436420833           
       1.310949              0.0110259553            0.000446517703           
       1.313590             0.00981665845            0.000414800055           
       1.316230             0.00999916466            0.000426173678           
       1.318871              0.0100498161            0.000418034383           
       1.321511              0.0102966274            0.000425256927           
       1.324151                0.01097769            0.000440830962           
       1.326792             0.00930810935            0.000402638216           
       1.329432              0.0102501833            0.000424726726           
       1.332072              0.0104429143            0.000421349953           
       1.334713              0.0115988523            0.000449565054           
       1.337353              0.0113540021            0.000437952635           
       1.339994              0.0109093683            0.000435406308           
       1.342634              0.0102190371            0.000411918354           
       1.345274              0.0110276793            0.000433499981           
       1.347915             0.00986318523            0.000411063276           
       1.350555              0.0110836905            0.000434052499           
       1.353195              0.0106108171            0.000416567854           
       1.355836              0.0103434041            0.000419045284           
       1.358476             0.00995528551            0.000409951905           
       1.361117              0.0107999851            0.000416278487           
       1.363757              0.0100934049             0.00041576767           
       1.366397             0.00984890391            0.000397911479           
       1.369038              0.0110608186            0.000430570945           
       1.371678              0.0108705443            0.000418232373           
       1.374319              0.0103851173             0.00041202973           
       1.376959              0.0111107323            0.000420313904           
       1.379599              0.0102682576            0.000411940606           
       1.382240              0.0102435741            0.000403630367           
       1.384880              0.0115055632            0.000433023833           
       1.387520              0.0104269295            0.000407406979           
       1.390161               0.010731047            0.000412182257           
       1.392801              0.0113944421            0.000427263281           
       1.395442               0.010324512            0.000402494948           
       1.398082              0.0113177317            0.000422852621           
       1.400722              0.0108783214            0.000412689922           
       1.403363              0.0109331024            0.000417567035           
       1.406003              0.0102885156            0.000395124151           
       1.408644              0.0105115489            0.000407768472           
       1.411284              0.0111678804            0.000418001037           
       1.413924              0.0106673825            0.000403488506           
       1.416565              0.0102512772            0.000395075766           
       1.419205              0.0105784548            0.000405284134           
       1.421845              0.0107306252            0.000403057073           
       1.424486              0.0104054464            0.000398655233           
       1.427126              0.0101542331            0.000393565095           
       1.429767              0.0107566582            0.000398829412           
       1.432407               0.010871536             0.00041105403           
       1.435047              0.0100137672            0.000382649611           
       1.437688              0.0105406297            0.000401280696           
       1.440328              0.0111735514            0.000405146333           
       1.442968              0.0100065417            0.000388712929           
       1.445609              0.0102084346            0.000386156945           
       1.448249               0.010892066            0.000401456466           
       1.450890              0.0107062097            0.000395177348           
       1.453530              0.0107955748            0.000399762518           
       1.456170              0.0106511429            0.000396185373           
       1.458811              0.0106516953            0.000393043596           
       1.461451              0.0103389736            0.000390077451           
       1.464092              0.0108265034            0.000395689066           
       1.466732              0.0100990217            0.000379819817           
       1.469372              0.0105192221            0.000386449499           
       1.472013              0.0100528368            0.000384544397           
       1.474653              0.0101900639            0.000377600467           
       1.477293                0.01049963            0.000389744864           
       1.479934              0.0102403946            0.000380874826           
       1.482574              0.0104745803            0.000384254613           
       1.485215             0.00992847879            0.000375067123           
       1.487855              0.0106627954            0.000388609536           
       1.490495              0.0107796986            0.000389893023           
       1.493136              0.0103233827            0.000376547785           
       1.495776              0.0097012193            0.000371388762           
       1.498416             0.00997890845             0.00036934904           
       1.501057              0.0094010931            0.000361579801           
       1.503697              0.0104641264            0.000377807571           
       1.506338              0.0103077412            0.000377731386           
       1.508978             0.00960886318            0.000362547991           
       1.511618             0.00960064499            0.000362209775           
       1.514259             0.00979003559             0.00036642555           
       1.516899              0.0096664381            0.000364274732           
       1.519540              0.0103960743            0.000375676226           
       1.522180              0.0100795554            0.000365293508           
       1.524820             0.00979313926            0.000367338548           
       1.527461             0.00943229132            0.000352532263           
       1.530101             0.00995079739            0.000365836015           
       1.532741             0.00974819256            0.000360376987           
       1.535382              0.0108241247            0.000380580697           
       1.538022             0.00954205106            0.000354169932           
       1.540663             0.00958571061            0.000358334167           
       1.543303              0.0105140766            0.000370615208           
       1.545943             0.00944607896            0.000353256851           
       1.548584             0.00993578078            0.000364227144           
       1.551224               0.010337603            0.000361994497           
       1.553864             0.00963403886            0.000358588069           
       1.556505             0.00937122559            0.000348222769           
       1.559145              0.0098881187            0.000358524342           
       1.561786             0.00940556454            0.000348082595           
       1.564426              0.0088883647             0.00033807134           
       1.567066             0.00962324485            0.000349023902           
       1.569707             0.00914424299            0.000345152229           
       1.572347             0.00903148086            0.000338567125           
       1.574988             0.00901078616             0.00033684116           
       1.577628             0.00926306257            0.000349213247           
       1.580268             0.00920600569            0.000336121971           
       1.582909             0.00896002697            0.000337803372           
       1.585549             0.00917804704             0.00033869342           
       1.588189             0.00924543308            0.000343731234           
       1.590830             0.00929007048            0.000338645425           
       1.593470              0.0090975145             0.00033785415           
       1.596111             0.00944282453             0.00034123212           
       1.598751               0.008916352            0.000334972915           
       1.601391             0.00857140538             0.00032632963           
       1.604032             0.00926373516             0.00033641984           
       1.606672             0.00848905784            0.000328528027           
       1.609312             0.00895440781            0.000327372692           
       1.611953             0.00903610179            0.000333628661           
       1.614593              0.0093459805             0.00033672044           
       1.617234             0.00867369088            0.000326222425           
       1.619874             0.00896988095            0.000327842875           
       1.622514             0.00865303009            0.000324848299           
       1.625155             0.00847979482            0.000320784815           
       1.627795             0.00883179686            0.000324066942           
       1.630436              0.0086802649            0.000324504085           
       1.633076             0.00902834273            0.000329265004           
       1.635716             0.00854586882            0.000319787622           
       1.638357             0.00852075502            0.000317960711           
       1.640997             0.00863313271            0.000322553502           
       1.643637             0.00899664619            0.000323160023           
       1.646278              0.0083889236            0.000316725434           
       1.648918             0.00911291928            0.000325854131           
       1.651559             0.00829325789            0.000314762864           
       1.654199             0.00849111164            0.000314129699           
       1.656839             0.00822964998            0.000309172214           
       1.659480             0.00838131031            0.000314755932           
       1.662120             0.00833984857            0.000309769031           
       1.664761             0.00819309584            0.000310355778           
       1.667401             0.00837384211            0.000310837499           
       1.670041             0.00857644216             0.00031493528           
       1.672682             0.00828139236            0.000306558542           
       1.675322             0.00823754028            0.000311151686           
       1.677962              0.0087830377            0.000314908123           
       1.680603             0.00877368188            0.000317533661           
       1.683243             0.00848165375            0.000309894856           
       1.685884             0.00819195157            0.000305715384           
       1.688524             0.00886943539            0.000317210817           
       1.691164             0.00833715841            0.000306754773           
       1.693805             0.00861613773            0.000314366654           
       1.696445             0.00839402221            0.000305981565           
       1.699085             0.00839207375            0.000307167506           
       1.701726             0.00885641473            0.000311446488           
       1.704366             0.00851439983            0.000312804024           
       1.707007             0.00797349936            0.000296245598           
       1.709647             0.00834584727            0.000306849575           
       1.712287             0.00847089696            0.000303973534           
       1.714928             0.00855668287            0.000308580839           
       1.717568             0.00842515248            0.000303384258           
       1.720209             0.00804157582            0.000298227927           
       1.722849             0.00805122698            0.000298885294           
       1.725489             0.00830857767            0.000298785104           
       1.728130             0.00808404348            0.000300719797           
       1.730770             0.00848222835             0.00030152571           
       1.733410             0.00878020656            0.000310803506           
       1.736051             0.00876699335            0.000305748921           
       1.738691              0.0084289891            0.000302857113           
       1.741332             0.00815493639            0.000296059242           
       1.743972             0.00809421476            0.000295064356           
       1.746612             0.00811064894            0.000295431699           
       1.749253             0.00793501827            0.000293478345           
       1.751893             0.00872821149            0.000305950617           
       1.754533             0.00791419154            0.000287336031           
       1.757174             0.00810755953            0.000296262551           
       1.759814             0.00842401967            0.000297385182           
       1.762455             0.00829838983            0.000297672179           
       1.765095             0.00851383669            0.000297277369           
       1.767735             0.00859718644            0.000303805091           
       1.770376             0.00874870593            0.000301822878           
       1.773016             0.00850787013            0.000298109313           
       1.775657             0.00851219071             0.00029879591           
       1.778297             0.00843285191            0.000298855058           
       1.780937             0.00840207169            0.000296917099           
       1.783578             0.00888634712            0.000303920175           
       1.786218             0.00814109079             0.00029553896           
       1.788858             0.00846586811            0.000293888593           
       1.791499             0.00860278086            0.000301715528           
       1.794139             0.00828640463            0.000290647549           
       1.796780             0.00888329187             0.00030272162           
       1.799420             0.00915843278            0.000306982611           
       1.802060             0.00879257994            0.000297089074           
       1.804701             0.00866502869            0.000298882994           
       1.807341              0.0089639812            0.000301057771           
       1.809981             0.00945313251             0.00031121604           
       1.812622             0.00973174859            0.000314048642           
       1.815262             0.00916012977            0.000305772234           
       1.817903             0.00968896887             0.00031058973           
       1.820543             0.00915589354            0.000305656532           
       1.823183             0.00921705832            0.000301950507           
       1.825824             0.00867142997            0.000297281165           
       1.828464             0.00849222327            0.000293290634           
       1.831105             0.00918294705            0.000306165776           
       1.833745             0.00849015144            0.000294206429           
       1.836385             0.00877054021            0.000297862072           
       1.839026             0.00831518277            0.000294386462           
       1.841666              0.0089346734            0.000301193195           
       1.844306             0.00875300044             0.00030187892           
       1.846947             0.00902210067            0.000302545677           
       1.849587             0.00894075079            0.000305263442           
       1.852228             0.00848056536            0.000294141554           
       1.854868              0.0088546289            0.000306071058           
       1.857508             0.00867408418            0.000297340975           
       1.860149             0.00942509126            0.000312430141           
       1.862789             0.00895136201            0.000305824437           
       1.865429              0.0089067525            0.000305981163           
       1.868070             0.00875125547            0.000302250414           
       1.870710             0.00881649454            0.000304201124           
       1.873351             0.00852562085             0.00030105068           
       1.875991             0.00887687266            0.000308851352           
       1.878631             0.00855123314            0.000300315967           
       1.881272             0.00888942749            0.000305479754           
       1.883912              0.0087288653            0.000306258478           
       1.886553             0.00854304361            0.000299346694           
       1.889193             0.00876293661            0.000306676884           
       1.891833             0.00883425129            0.000304418137           
       1.894474             0.00860655873            0.000302847579           
       1.897114              0.0088312486            0.000304395739           
       1.899754             0.00937179593            0.000317089868           
       1.902395             0.00887665533            0.000308665584           
       1.905035             0.00920253035            0.000313048661           
       1.907676             0.00947859288            0.000318078823           
       1.910316             0.00920590318            0.000315468762           
       1.912956              0.0090609687            0.000312963158           
       1.915597             0.00893706044            0.000307575537           
       1.918237             0.00836260929            0.000302042678           
       1.920878             0.00893142509            0.000306621783           
       1.923518             0.00834977314            0.000304346239           
       1.926158             0.00851520907            0.000300283972           
       1.928799             0.00897508314              0.0003123826           
       1.931439             0.00913431978             0.00031261605           
       1.934079             0.00889994058            0.000311704192           
       1.936720             0.00935319649            0.000317662112           
       1.939360             0.00867802176            0.000308930912           
       1.942001             0.00881591248            0.000310177784           
       1.944641             0.00851676926            0.000303556141           
       1.947281             0.00907107584            0.000314792339           
       1.949922             0.00883056313            0.000310979805           
       1.952562              0.0087599113            0.000312398531           
       1.955202             0.00864439381            0.000302534876           
       1.957843             0.00876099601            0.000314243592           
       1.960483             0.00867775271            0.000307758571           
       1.963124             0.00853681215            0.000305022735           
       1.965764             0.00869666268            0.000307975312           
       1.968404             0.00841208779            0.000308310976           
       1.971045             0.00816258007            0.000296091206           
       1.973685             0.00789738621            0.000296676586           
       1.976326             0.00810955392            0.000299324635           
       1.978966             0.00841476085            0.000306348033           
       1.981606             0.00839715159            0.000302790913           
       1.984247             0.00849635093            0.000307229956           
       1.986887             0.00834367825            0.000307304501           
       1.989527             0.00777083461            0.000290389272           
       1.992168             0.00808597093            0.000303365817           
       1.994808             0.00807241934            0.000299585849           
       1.997449             0.00774208773            0.000292961891           
       2.000089             0.00804520329            0.000296883296           
       2.002729              0.0080769317            0.000304284451           
       2.005370             0.00797802702            0.000296666924           
       2.008010             0.00785479596            0.000298275013           
       2.010650             0.00797580636             0.00029970401           
       2.013291             0.00808180415            0.000303406145           
       2.015931              0.0081146481            0.000301846109           
       2.018572             0.00767766581            0.000297505698           
       2.021212             0.00797373424            0.000300466669           
       2.023852             0.00783899394            0.000299482229           
       2.026493             0.00818274087            0.000304637165           
       2.029133             0.00747632229            0.000288969361           
       2.031774             0.00803915901            0.000302555082           
       2.034414             0.00766282212            0.000293625628           
       2.037054             0.00811915569            0.000306053185           
       2.039695             0.00776653962             0.00029343736           
       2.042335             0.00770300762            0.000297208948           
       2.044975             0.00749053616            0.000290738996           
       2.047616             0.00806964181            0.000303061637           
       2.050256             0.00781524521            0.000294738094           
       2.052897             0.00766787193            0.000300592486           
       2.055537             0.00832667426            0.000304699346           
       2.058177              0.0078501281            0.000298465063           
       2.060818             0.00761883551            0.000294918007           
       2.063458             0.00777015416            0.000298242524           
       2.066098             0.00736996645            0.000289171785           
       2.068739             0.00738899688            0.000292563879           
       2.071379             0.00761487467            0.000292615951           
       2.074020             0.00794137458            0.000302915341           
       2.076660             0.00797993924            0.000301591669           
       2.079300             0.00775977871            0.000297359141           
       2.081941             0.00731111555            0.000290389384           
       2.084581             0.00800678922            0.000304116294           
       2.087222             0.00769350747             0.00029831043           
       2.089862             0.00795867669            0.000299626079           
       2.092502             0.00782202478            0.000302439875           
       2.095143             0.00756648667            0.000293207404           
       2.097783             0.00820034415            0.000309886484           
       2.100423             0.00782904909            0.000296983832           
       2.103064             0.00747329779            0.000295167723           
       2.105704             0.00736916782            0.000291982828           
       2.108345             0.00762937033            0.000298456961           
       2.110985             0.00813147539            0.000303793673           
       2.113625             0.00772590816            0.000300786329           
       2.116266             0.00784823287            0.000300914341           
       2.118906             0.00798398325            0.000303284953           
       2.121546             0.00789563391            0.000301362764           
       2.124187             0.00734273085            0.000294639343           
       2.126827             0.00710562625            0.000285297636           
       2.129468             0.00757920483            0.000297726495           
       2.132108             0.00733324218            0.000292249704           
       2.134748             0.00764023361            0.000297180002           
       2.137389             0.00795545688            0.000305788515           
       2.140029             0.00713035045            0.000288793956           
       2.142670             0.00763140728            0.000299256799           
       2.145310              0.0075559364             0.00029891101           
       2.147950             0.00810402065            0.000310758996           
       2.150591             0.00768763525            0.000299894553           
       2.153231             0.00729124904            0.000296378633           
       2.155871             0.00781838912            0.000302473028           
       2.158512             0.00703380704            0.000292064807           
       2.161152             0.00682989544            0.000280610963           
       2.163793             0.00743807929            0.000297603274           
       2.166433             0.00766876836            0.000296942916           
       2.169073             0.00758273956            0.000302166584           
       2.171714             0.00763354601            0.000297004934           
       2.174354             0.00684688266            0.000285583557           
       2.176995             0.00690834192            0.000284482857           
       2.179635             0.00768775236            0.000305781479           
       2.182275             0.00776983962            0.000301307322           
       2.184916              0.0072936237            0.000298097572           
       2.187556             0.00768108261            0.000300988107           
       2.190196             0.00742674356            0.000300614854           
       2.192837              0.0074742352             0.00029827208           
       2.195477             0.00739621917            0.000299573447           
       2.198118             0.00782949464            0.000302532833           
       2.200758             0.00727331107            0.000296117574           
       2.203398             0.00708708269            0.000287454664           
       2.206039             0.00745000351            0.000299227675           
       2.208679             0.00763193889            0.000299894658           
       2.211319             0.00765625257            0.000301785819           
       2.213960             0.00728765775            0.000291301259           
       2.216600             0.00791185935            0.000310671654           
       2.219241              0.0074539794            0.000297163979           
       2.221881             0.00741835101            0.000297998197           
       2.224521             0.00792462767            0.000306930762           
       2.227162             0.00741178095            0.000301495386           
       2.229802             0.00750489113            0.000298458603           
       2.232443             0.00721069288            0.000293700327           
       2.235083             0.00744299059            0.000296604451           
       2.237723             0.00759601368            0.000301934202           
       2.240364             0.00666669474            0.000281423327           
       2.243004             0.00765993725            0.000302571125           
       2.245644               0.007256131             0.00029380784           
       2.248285             0.00720490702            0.000294669482           
       2.250925             0.00800398509             0.00030912811           
       2.253566             0.00720710573            0.000294053566           
       2.256206             0.00731656634            0.000295390686           
       2.258846             0.00737021569             0.00029647434           
       2.261487             0.00770069414            0.000303572601           
       2.264127             0.00702267038             0.00029264334           
       2.266767             0.00772956071            0.000302056423           
       2.269408             0.00734953242            0.000298035617           
       2.272048             0.00674807265            0.000283823555           
       2.274689             0.00751054883             0.00030060681           
       2.277329             0.00709724562            0.000291830328           
       2.279969             0.00745176917             0.00029993665           
       2.282610              0.0069786458            0.000287428198           
       2.285250             0.00700681213            0.000292537308           
       2.287891             0.00670191836             0.00028321472           
       2.290531             0.00664751122            0.000283453731           
       2.293171             0.00731547005            0.000297339321           
       2.295812             0.00724289192            0.000294290363           
       2.298452             0.00788431794            0.000309011591           
       2.301092             0.00734635178            0.000300177798           
       2.303733             0.00730170762            0.000293345019           
       2.306373             0.00738080602            0.000302143345           
       2.309014             0.00706104508             0.00028983112           
       2.311654             0.00688010526            0.000288808711           
       2.314294             0.00708147872            0.000292365124           
       2.316935             0.00665512834            0.000284547569           
       2.319575             0.00702873697            0.000291330524           
       2.322215               0.007027696            0.000295460038           
       2.324856             0.00677653366             0.00028284638           
       2.327496             0.00757083115            0.000306290746           
       2.330137             0.00745100567            0.000298253323           
       2.332777             0.00693226768            0.000290830318           
       2.335417             0.00731174281            0.000297787683           
       2.338058             0.00766881169            0.000306192836           
       2.340698             0.00699042074            0.000289457937           
       2.343339             0.00743077679             0.00030413077           
       2.345979             0.00752584742            0.000299962595           
       2.348619             0.00766682348             0.00030847657           
       2.351260             0.00738279447            0.000296273917           
       2.353900              0.0073610053            0.000302102953           
       2.356540             0.00765386739            0.000303817272           
       2.359181             0.00720495679            0.000298714735           
       2.361821             0.00729683974            0.000296950654           
       2.364462             0.00757531515            0.000307620692           
       2.367102             0.00721953459            0.000291625741           
       2.369742             0.00724785345            0.000302668564           
       2.372383             0.00769834311            0.000302839817           
       2.375023             0.00697536277            0.000295779477           
       2.377663             0.00766542453             0.00030347594           
       2.380304             0.00696414966            0.000293273767           
       2.382944             0.00734413991            0.000298222829           
       2.385585             0.00731072617            0.000300356521           
       2.388225             0.00698030368            0.000292164386           
       2.390865             0.00701676062            0.000293676456           
       2.393506             0.00720502605            0.000296218735           
       2.396146             0.00720585544            0.000297217658           
       2.398787             0.00701739536            0.000293561783           
       2.401427             0.00711217173             0.00029374305           
       2.404067             0.00725599318            0.000301226716           
       2.406708             0.00760208063            0.000304451445           
       2.409348             0.00737478597            0.000302121314           
       2.411988             0.00712497648            0.000296011867           
       2.414629             0.00721768758            0.000298906327           
       2.417269             0.00736339575            0.000299166601           
       2.419910             0.00695825762            0.000294487479           
       2.422550             0.00726369552            0.000296314122           
       2.425190             0.00695914333            0.000299167425           
       2.427831             0.00693032203            0.000287319298           
       2.430471             0.00718035932            0.000301005349           
       2.433112             0.00755003585            0.000301373523           
       2.435752             0.00713494229            0.000300388719           
       2.438392             0.00690446514            0.000290530471           
       2.441033             0.00747375141            0.000303655778           
       2.443673             0.00716792593            0.000298172209           
       2.446313             0.00731630577            0.000299637557           
       2.448954             0.00705109338              0.0002967377           
       2.451594             0.00763476327            0.000306922403           
       2.454235             0.00741190233            0.000301468682           
       2.456875             0.00729743766            0.000300646982           
       2.459515             0.00775151712            0.000310337405           
       2.462156             0.00712655484            0.000296030226           
       2.464796             0.00789482288            0.000317074496           
       2.467436              0.0078260163            0.000309070248           
       2.470077             0.00788859189            0.000314582379           
       2.472717              0.0078621052            0.000310124192           
       2.475358             0.00771290565            0.000310647531           
       2.477998             0.00746503092            0.000303984533           
       2.480638             0.00746565562            0.000304735896           
       2.483279             0.00759572809            0.000308699601           
       2.485919              0.0072320011            0.000299108671           
       2.488560               0.007608696            0.000308072245           
       2.491200             0.00734545628            0.000302281108           
       2.493840             0.00735458256             0.00030082202           
       2.496481             0.00690241876            0.000295238947           
       2.499121             0.00640570572            0.000280630725           
       2.501761             0.00682975641            0.000294691074           
       2.504402             0.00713979076            0.000295531304           
       2.507042             0.00669820665            0.000291004746           
       2.509683             0.00709297581            0.000296730272           
       2.512323             0.00747531604            0.000305815573           
       2.514963              0.0130396502            0.000404706942           
       2.517604              0.0160781113            0.000447632523           
       2.520244             0.00822263495            0.000320187644           
       2.522884             0.00755550492            0.000306252581           
       2.525525             0.00747880524            0.000307196933           
       2.528165              0.0176533166            0.000469813959           
       2.530806              0.0316177377            0.000626390068           
       2.533446              0.0173127078            0.000467632175           
       2.536086             0.00916378873            0.000337364296           
       2.538727             0.00837764291            0.000324636858           
       2.541367             0.00927155689            0.000340541163           
       2.544008             0.00737445379            0.000303966663           
       2.546648             0.00657595404            0.000287364611           
       2.549288             0.00699633858             0.00029645025           
       2.551929             0.00688930352            0.000295145559           
       2.554569             0.00712867765            0.000297485742           
       2.557209             0.00656814603            0.000288776964           
       2.559850                0.00679249            0.000290290415           
       2.562490             0.00729883293            0.000303106763           
       2.565131             0.00692470723            0.000295749888           
       2.567771             0.00701309489             0.00029605394           
       2.570411             0.00759133355             0.00031176548           
       2.573052             0.00721821806            0.000300458636           
       2.575692             0.00756475738            0.000308402391           
       2.578332             0.00684797125            0.000292560959           
       2.580973             0.00669480097            0.000291615976           
       2.583613             0.00711484709             0.00029788557           
       2.586254             0.00708304534            0.000299848557           
       2.588894             0.00669192159            0.000289897522           
       2.591534             0.00670976394            0.000290817677           
       2.594175             0.00713973814            0.000301732443           
       2.596815             0.00696915893            0.000295334578           
       2.599456             0.00706563568            0.000299804784           
       2.602096             0.00692808502            0.000295761238           
       2.604736             0.00705667194            0.000299276167           
       2.607377             0.00683780958            0.000293472012           
       2.610017              0.0071967479            0.000300970946           
       2.612657             0.00628051359            0.000283146407           
       2.615298             0.00688188492            0.000293493247           
       2.617938             0.00740842915            0.000307178075           
       2.620579             0.00658482028            0.000287234729           
       2.623219             0.00708432777            0.000302695695           
       2.625859             0.00672995944            0.000290055599           
       2.628500             0.00675184494            0.000295170065           
       2.631140             0.00657011305            0.000286035929           
       2.633780             0.00682691844            0.000295317452           
       2.636421             0.00675353027            0.000291053047           
       2.639061             0.00762960894            0.000313054293           
       2.641702             0.00686776773            0.000293838516           
       2.644342             0.00788770679            0.000317485815           
       2.646982              0.0071575046            0.000302176651           
       2.649623             0.00701831748            0.000301017921           
       2.652263             0.00717744797            0.000301989085           
       2.654904             0.00709781924            0.000301939839           
       2.657544             0.00724200952             0.00030284553           
       2.660184             0.00721404057            0.000302646788           
       2.662825             0.00714223987            0.000301858714           
       2.665465             0.00748243121            0.000309535422           
       2.668105             0.00698876006             0.00029926848           
       2.670746             0.00657725733            0.000287867718           
       2.673386             0.00681267478            0.000296524918           
       2.676027             0.00730058572            0.000304350125           
       2.678667             0.00718319235            0.000303462688           
       2.681307             0.00727519569            0.000302998396           
       2.683948             0.00750761689            0.000310857152           
       2.686588             0.00757662564            0.000309416863           
       2.689229             0.00756129411            0.000311877802           
       2.691869             0.00733881417            0.000304188394           
       2.694509             0.00759217519            0.000313637642           
       2.697150             0.00753079971            0.000307381839           
       2.699790             0.00727203017            0.000308328979           
       2.702430             0.00720527121            0.000301026083           
       2.705071             0.00660900569            0.000292247257           
       2.707711             0.00684375952            0.000294443297           
       2.710352             0.00646585718            0.000287827498           
       2.712992             0.00722362501            0.000305215474           
       2.715632             0.00681634072            0.000294799779           
       2.718273             0.00657117675            0.000290410602           
       2.720913             0.00669293386            0.000293578087           
       2.723553             0.00673326777            0.000293438144           
       2.726194             0.00637874946            0.000286986117           
       2.728834              0.0062886269            0.000282418534           
       2.731475             0.00709140503            0.000302524498           
       2.734115             0.00694492579            0.000297599788           
       2.736755             0.00715212889            0.000304003033           
       2.739396              0.0072783267            0.000305051656           
       2.742036             0.00745486289            0.000310836257           
       2.744677             0.00778112374            0.000318029567           
       2.747317             0.00764348885             0.00031367299           
       2.749957             0.00754565738            0.000313920071           
       2.752598              0.0073814335            0.000311420188           
       2.755238             0.00726187816             0.00030874868           
       2.757878             0.00705384819            0.000303427816           
       2.760519             0.00695549978            0.000298123773           
       2.763159             0.00749657443            0.000314534747           
       2.765800             0.00688409702            0.000296306257           
       2.768440             0.00673499771            0.000296940792           
       2.771080             0.00670288829             0.00029373575           
       2.773721             0.00691834987            0.000302080396           
       2.776361             0.00684657125            0.000297281682           
       2.779001             0.00665812275            0.000296243468           
       2.781642             0.00641840529            0.000288876955           
       2.784282             0.00650697153            0.000290964673           
       2.786923             0.00677453021            0.000294628543           
       2.789563             0.00651673286            0.000289548774           
       2.792203             0.00633704855            0.000287346567           
       2.794844             0.00703324126            0.000301341972           
       2.797484             0.00702099565            0.000301503745           
       2.800125             0.00727387316            0.000306488815           
       2.802765             0.00673566441            0.000300399536           
       2.805405             0.00654965614            0.000291946689           
       2.808046             0.00617650968            0.000287855541           
       2.810686             0.00710222315            0.000305385024           
       2.813326             0.00661503714            0.000298371218           
       2.815967             0.00658073579            0.000295721169           
       2.818607             0.00723101258            0.000313086649           
       2.821248             0.00636739882            0.000290132774           
       2.823888             0.00713855452            0.000312147781           
       2.826528             0.00666886197            0.000299903908           
       2.829169             0.00644934351            0.000293624583           
       2.831809             0.00697499819            0.000305623715           
       2.834449             0.00723933595             0.00030592635           
       2.837090             0.00689364446            0.000300329301           
       2.839730             0.00704587771            0.000301471095           
       2.842371               0.006405793            0.000289454301           
       2.845011             0.00675569947            0.000296591728           
       2.847651             0.00646731872            0.000290725312           
       2.850292             0.00636678884            0.000286817931           
       2.852932             0.00650537114            0.000290442527           
       2.855573             0.00676642978            0.000298814406           
       2.858213             0.00733723202             0.00030767161           
       2.860853             0.00687000464            0.000299942745           
       2.863494             0.00750407341            0.000314233769           
       2.866134             0.00727109646            0.000313656033           
       2.868774             0.00727558962            0.000308950135           
       2.871415             0.00581413981            0.000278916561           
       2.874055             0.00692256308            0.000305851753           
       2.876696             0.00685689292            0.000301656599           
       2.879336             0.00700454513            0.000306911001           
       2.881976             0.00713764978            0.000309558347           
       2.884617             0.00662300754            0.000296533132           
       2.887257             0.00671621964            0.000296530463           
       2.889897             0.00634703503            0.000291569388           
       2.892538              0.0067775225            0.000299206005           
       2.895178             0.00726032517            0.000306521756           
       2.897819             0.00656586744            0.000294491795           
       2.900459              0.0069330245            0.000300108143           
       2.903099             0.00666751334            0.000295842172           
       2.905740             0.00703044281            0.000300396208           
       2.908380             0.00688982538            0.000301341161           
       2.911021             0.00683683103            0.000300750656           
       2.913661             0.00658119747            0.000291827222           
       2.916301             0.00740995005            0.000314062213           
       2.918942             0.00673886879            0.000294984855           
       2.921582             0.00680816221            0.000299608354           
       2.924222             0.00750333419            0.000312708584           
       2.926863             0.00678499814            0.000298153265           
       2.929503             0.00736964153            0.000314182795           
       2.932144             0.00726052931            0.000306733664           
       2.934784             0.00674672586            0.000296937861           
       2.937424              0.0071369887            0.000305970164           
       2.940065             0.00739286662            0.000311660189           
       2.942705             0.00727490781            0.000310103212           
       2.945346             0.00720002041            0.000306680833           
       2.947986             0.00889238184            0.000342014802           
       2.950626             0.00926068513            0.000350098865           
       2.953267               0.010061696            0.000361049192           
       2.955907             0.00848464948             0.00033593239           
       2.958547             0.00761281657            0.000314942635           
       2.961188             0.00696366026            0.000303845225           
       2.963828             0.00651909694            0.000292320435           
       2.966469             0.00677928209            0.000298171042           
       2.969109             0.00826798832            0.000330970276           
       2.971749              0.0099184828            0.000361436832           
       2.974390              0.0096224228            0.000356978517           
       2.977030             0.00820343908            0.000328980782           
       2.979670             0.00742429428            0.000310950392           
       2.982311             0.00690591152            0.000302062648           
       2.984951             0.00680755825            0.000300679404           
       2.987592             0.00698123156            0.000303462962           
       2.990232             0.00816258442            0.000328973625           
       2.992872             0.00894135657            0.000341615672           
       2.995513               0.011184519            0.000385072788           
       2.998153              0.0180974643            0.000492987516           
       3.000794              0.0266134617             0.00058913072           
       3.003434              0.0207889852            0.000526209208           
       3.006074              0.0152321993             0.00045187728           
       3.008715              0.0142932571            0.000441061651           
       3.011355              0.0158188035            0.000468828177           
       3.013995              0.0157657988            0.000465753233           
       3.016636              0.0283384396            0.000625603802           
       3.019276                0.19606743              0.0016848863           
       3.021917               0.357386702             0.00223618782           
       3.024557               0.135810901             0.00138950401           
       3.027197              0.0843439621             0.00111339209           
       3.029838               0.189034133             0.00165885912           
       3.032478                0.11709496             0.00131339657           
       3.035118              0.0912045316             0.00116510411           
       3.037759              0.0684475498             0.00101111301           
       3.040399              0.0675226015             0.00101574946           
       3.043040              0.0646741145             0.00100374879           
       3.045680              0.0551950649            0.000912996853           
       3.048320              0.0744837339             0.00107761486           
       3.050961              0.0477467146             0.00087144056           
       3.053601              0.0786186113             0.00111327857           
       3.056242              0.0865887197             0.00117585171           
       3.058882              0.0845840084             0.00117944833           
       3.061522               0.253088531             0.00202605653           
       3.064163              0.0763894612             0.00111511994           
       3.066803              0.0251930539            0.000652774358           
       3.069443              0.0223957662            0.000611369101           
       3.072084              0.0557501998            0.000973178742           
       3.074724              0.0714653699             0.00110834296           
       3.077365              0.0152529351             0.00051167242           
       3.080005             0.00851992251            0.000386654106           
       3.082645             0.00835576208            0.000384860649           
       3.085286             0.00813442329            0.000379798338           
       3.087926             0.00732424617            0.000362681655           
       3.090566             0.00821019326            0.000387946146           
       3.093207             0.00793599465            0.000377292108           
       3.095847             0.00712136796            0.000364895047           
       3.098488             0.00707989864            0.000363171356           
       3.101128             0.00829714944            0.000395295501           
       3.103768             0.00836749174            0.000399204023           
       3.106409             0.00926704172            0.000422928552           
       3.109049              0.0102910182            0.000449147219           
       3.111690              0.0145775317            0.000532461449           
       3.114330              0.0204223769            0.000635837975           
       3.116970              0.0181372542            0.000607545924           
       3.119611              0.0124564782            0.000500214021           
       3.122251              0.0095729755            0.000442103466           
       3.124891             0.00785192673             0.00040233876           
       3.127532             0.00856080204            0.000427675774           
       3.130172             0.00909390177            0.000431723049           
       3.132813             0.00650998725            0.000372709422           
       3.135453             0.00682797322            0.000389755333           
       3.138093             0.00713292969            0.000388911965           
       3.140734             0.00623538122            0.000370388255           
       3.143374             0.00607255689            0.000371107898           
       3.146014             0.00624804961            0.000373699564           
       3.148655              0.0067254575            0.000390766351           
       3.151295             0.00731591496            0.000410784999           
       3.153936             0.00666508197            0.000397875726           
       3.156576             0.00577059001            0.000365965807           
       3.159216              0.0062724769            0.000384669273           
       3.161857             0.00658608379            0.000399003579           
       3.164497             0.00659518067            0.000407697967           
       3.167138             0.00639504214              0.0003918325           
       3.169778             0.00593656846            0.000384342611           
       3.172418             0.00610827807            0.000392139469           
       3.175059             0.00665477723            0.000414662334           
       3.177699             0.00670083496             0.00041445131           
       3.180339             0.00620840785            0.000402498136           
       3.182980             0.00617645815            0.000406880787           
       3.185620             0.00605783739            0.000407358071           
       3.188261             0.00601519006            0.000400603503           
       3.190901             0.00634759391            0.000417864642           
       3.193541             0.00577958411            0.000400044297           
       3.196182             0.00582103307            0.000409829528           
       3.198822             0.00553473927             0.00039477978           
       3.201463             0.00626500701            0.000425448758           
       3.204103             0.00571782434            0.000411857402           
       3.206743             0.00605747351             0.00042749753           
       3.209384             0.00534727266            0.000399865279           
       3.212024             0.00523971948            0.000397229613           
       3.214664             0.00630824531            0.000444162391           
       3.217305             0.00613067562            0.000448082061           
       3.219945             0.00657036575            0.000459993087           
       3.222586             0.00546678693            0.000421962124           
       3.225226             0.00583276742             0.00044567686           
       3.227866             0.00538773262            0.000431650888           
       3.230507             0.00577104014            0.000452072764           
       3.233147             0.00542997317            0.000432024584           
       3.235787             0.00526092501             0.00042536202           
       3.238428             0.00667163782            0.000487469102           
       3.241068              0.0061266626            0.000476607887           
       3.243709             0.00561999205            0.000453941467           
       3.246349             0.00559769973            0.000450505488           
       3.248989             0.00701462955            0.000515837096           
       3.251630              0.0058109569            0.000471575445           
       3.254270             0.00549864762            0.000472828764           
       3.256911             0.00552561306            0.000462110558           
       3.259551             0.00556918379            0.000474180477           
       3.262191             0.00547155801            0.000474329979           
       3.264832             0.00620685884            0.000509937571           
       3.267472             0.00483232682            0.000456325671           
       3.270112             0.00550157715            0.000488286735           
       3.272753             0.00630241367            0.000529041023           
       3.275393             0.00646701877            0.000538663633           
       3.278034             0.00589567017            0.000524795746           
       3.280674              0.0050403395            0.000486644952           
       3.283314             0.00585319429            0.000527317136           
       3.285955             0.00583058097            0.000536183018           
       3.288595             0.00570556509            0.000536320833           
       3.291235             0.00556463744            0.000532767203           
       3.293876             0.00651198422             0.00057974852           
       3.296516             0.00532857103            0.000535127511           
       3.299157             0.00499564039            0.000525971825           
       3.301797             0.00622429422            0.000587349323           
       3.304437             0.00578461435            0.000576838099           
       3.307078             0.00539749944            0.000562615455           
       3.309718             0.00588288208            0.000593231425           
       3.312359             0.00592843227            0.000607556587           
       3.314999             0.00530439617            0.000580720304           
       3.317639             0.00652587004            0.000651058062           
       3.320280             0.00623064842             0.00064545104           
       3.322920             0.00541105345            0.000610502298           
       3.325560             0.00488853345            0.000591482429           
       3.328201             0.00588104048             0.00065149582           
       3.330841             0.00533273732            0.000635470859           
       3.333482             0.00501697299            0.000624196006           
       3.336122             0.00713040067            0.000760317803           
       3.338762             0.00612011365            0.000710840383           
       3.341403             0.00526283522            0.000665292439           
       3.344043             0.00514748794            0.000683073915           
       3.346683             0.00394070981            0.000603726036           
       3.349324             0.00537798214            0.000716199061           
       3.351964             0.00421186987            0.000654189706           
       3.354605              0.0059909359             0.00078904872           
       3.357245             0.00486182252            0.000735798965           
       3.359885             0.00597809481            0.000816200944           
       3.362526             0.00607813619            0.000865083079           
       3.365166             0.00486458425             0.00076436396           
       3.367807             0.00392563341            0.000735029251           
       3.370447             0.00546728037             0.00086776828           
       3.373087             0.00594331717            0.000954880414           
       3.375728             0.00510095686            0.000877940196           
       3.378368             0.00366144078            0.000803748115           
       3.381008              0.0065273765             0.00106379974           
       3.383649             0.00400979119            0.000902339581           
       3.386289             0.00579153601             0.00108488844           
       3.388930             0.00480997743             0.00108582474           
       3.391570             0.00432302461             0.00102982667           
       3.394210             0.00638429549             0.00134094228           
       3.396851             0.00419258518             0.00117711155           
       3.399491             0.00663522669             0.00150770363           
       3.402131             0.00698369609             0.00183095878           
       3.404772             0.00699115937             0.00183272199           
       3.407412             0.00644891363             0.00218420286           
       3.410053             0.00533264718             0.00206817797           
       3.412693             0.00299885717             0.00219427675           
       3.415333              0.0110336014             0.00515696732           
