################################################################################
# EDF_DataBlockID                     0.Image.Psd
# EDF_BinarySize                      2105344
# EDF_HeaderSize                      2560
# ByteOrder                           LowByteFirst
# DataType                            FloatValue
# Dim_1                               512
# Dim_2                               1028
# Image                               0
# HeaderID                            EH:000000:000000:000000
# Size                                2105344
# Center_1                            304.9000
# Center_2                            588.7000
# Comment                             Xenocs_Cell_Window - front_window_open_only
# DDummy                              0.6
# Date                                2025-10-17T21:12:58
# Delta                               21.910000
# Dummy                               -1.5
# ExposureTime                        360
# Gamma                               15.360000
# Intensity1                          9.81311e-10
# PSize_1                             7.5e-05
# PSize_2                             7.5e-05
# Pressure                            0.0369692
# SampleDistance                      0.115750
# SampleEnvKind                       large
# SampleEnvPN                         ElectroChemical cell
# SampleEnvSN                         1141
# Thickness                           0
# Wavelength                          1.541891e-10
# Wavelength                          1.54189e-10
# aux                                 0
# aux_dial                            0.002375
# beamx                               588.429
# beamx_dial                          588.429
# beamz                               657.855
# beamz_dial                          657.855
# det0x                               -0.000396875
# det0x_dial                          6.36905
# det0xvd                             -0.0005
# det0xvd_dial                        -0.0005
# det0y                               450.002
# det0y_dial                          481.635
# det0z                               0
# det0z_dial                          1.2295
# det0zvd                             0
# det0zvd_dial                        0
# mag                                 1.818
# mag_dial                            1.818
# om                                  0.2499
# om_dial                             -0.610199
# phi                                 -0.0120535
# phi_dial                            0
# ry                                  0.599993
# ry_dial                             0.599993
# s1bot                               0.8
# s1bot_dial                          -1.66094
# s1hl                                0.8
# s1hl_dial                           -0.608437
# s1hr                                0.8
# s1hr_dial                           0.970938
# s1top                               0.8
# s1top_dial                          -0.461562
# s2bot                               0.45
# s2bot_dial                          1.36109
# s2hl                                0.45
# s2hl_dial                           -0.83375
# s2hr                                0.45
# s2hr_dial                           -0.118594
# s2top                               0.45
# s2top_dial                          1.44734
# w2theta                             32
# w2theta_dial                        32
# waxsch                              19.2605
# waxsch_dial                         -32.7238
# waxsh                               137.085
# waxsh_dial                          -43.5335
# waxsth                              26.0607
# waxsth_dial                         -19.4068
# waxsz                               67.0407
# waxsz_dial                          -23.7962
# wind                                65.9854
# wind_dial                           66.0041
# wpsi                                124
# wpsi_dial                           124
# wstod                               115
# wstod_dial                          115
# x                                   0
# x_dial                              1.00969
# z                                   0
# z_dial                              13.3172
# CountCutoff                         6807993
# DetectorModel                       Dectris EIGER2 Si 500K, S/N E-01-0554
# ThresholdSetting                    4023.88989258
# Saturation                          0
# FlatField                           Corrected
# BackgroundReductionExtra            0.02
# BackgroundCorrectionConstant        0.0026712
# Detector                            0
# Monitor                             0
# Pil_Roi0                            0
# SumForIntensity1                    3.53272e+08
# TransmittedFlux                     981311
# det                                 0
# mon                                 0
# pilai0                              3.53272e+08
# pilai1                              762873
# pilct0                              6.08029e+08
# pilct1                              762873
# pilroi0                             0
# pilroi1                             0
# sec                                 1
# title                               20251017__1_00028.edf
# usaxs0                              0
# Operation                           Azimuthal average I(q)
# Error_model                         ErrorModel.poisson
# Geometrical_correction              True
# Transmission_correction             True
# Thickness_correction                False
# Binning mode                        Uniform
# Binning factor                      1.0
# Psi                                 0.0
# Omega                               0.2499
# MaskInvalidPixels                   True
# DetectorEdge                        3
# MaskFiles                           ['20251017__1_00233_mask.edf']
################################################################################
    q(A⁻¹)                Intensity(a.u.)            Sigma_I(a.u.)            
       0.690460             0.00702794338              0.0073793089           
       0.693100                0.01006741             0.00394864587           
       0.695741             0.00310379837             0.00185226099           
       0.698381              0.0110967408             0.00327566377           
       0.701021             0.00814083343             0.00228981765           
       0.703662             0.00534030923              0.0017166905           
       0.706302             0.00853874919             0.00209643684           
       0.708942             0.00636319735             0.00160755662           
       0.711583             0.00801181519             0.00180349314           
       0.714223             0.00752568499             0.00152316263           
       0.716864             0.00720470724             0.00152080361           
       0.719504             0.00595570604             0.00127970085           
       0.722144             0.00607352695             0.00124809604           
       0.724785             0.00763832349             0.00137673215           
       0.727425             0.00544873151             0.00107853936           
       0.730065             0.00531296172             0.00109584265           
       0.732706             0.00505062453            0.000960793916           
       0.735346             0.00738117316             0.00125462153           
       0.737987             0.00616047909            0.000992076653           
       0.740627             0.00777438331             0.00122089625           
       0.743267             0.00517933757            0.000857172875           
       0.745908             0.00842447593             0.00117161766           
       0.748548             0.00635669545            0.000949205775           
       0.751189             0.00370264579             0.00071761214           
       0.753829             0.00775578833             0.00104796498           
       0.756469             0.00607940619            0.000872658674           
       0.759110             0.00691386366            0.000962582203           
       0.761750             0.00669337049            0.000866798266           
       0.764390             0.00666444691            0.000928447659           
       0.767031             0.00651812715            0.000830863415           
       0.769671             0.00591582247            0.000839459883           
       0.772312             0.00646387899            0.000799622878           
       0.774952             0.00607298188            0.000830913678           
       0.777592             0.00709617492            0.000821527587           
       0.780233             0.00564742341            0.000772613016           
       0.782873             0.00571010173            0.000710423865           
       0.785513             0.00547574544            0.000740050989           
       0.788154             0.00635576277            0.000732333478           
       0.790794             0.00589107711            0.000729710673           
       0.793435             0.00686212189            0.000756441751           
       0.796075             0.00677925242            0.000755832684           
       0.798715              0.0048781551            0.000637494087           
       0.801356             0.00750863439            0.000769747001           
       0.803996             0.00769069071             0.00079147205           
       0.806637             0.00527345835            0.000619517798           
       0.809277             0.00569902043            0.000673760466           
       0.811917             0.00574158669            0.000639949819           
       0.814558             0.00729605553            0.000739024397           
       0.817198             0.00609129017              0.0006438585           
       0.819838              0.0051665474            0.000618535858           
       0.822479              0.0058249553            0.000605245773           
       0.825119             0.00641804388            0.000682487882           
       0.827760             0.00657204412            0.000639937245           
       0.830400             0.00583328165             0.00063522907           
       0.833040             0.00545325824            0.000573213176           
       0.835681              0.0074345957            0.000700893322           
       0.838321             0.00565826176            0.000572310865           
       0.840961             0.00615715203            0.000624019174           
       0.843602             0.00581104504            0.000571041578           
       0.846242             0.00674992872            0.000637175603           
       0.848883             0.00638859396            0.000603010347           
       0.851523             0.00573822018            0.000575775681           
       0.854163             0.00566780184            0.000565583876           
       0.856804             0.00597807965            0.000565996294           
       0.859444             0.00687698408            0.000611424846           
       0.862085             0.00613786034            0.000569231284           
       0.864725             0.00629594748             0.00057439867           
       0.867365             0.00673375349            0.000589780089           
       0.870006             0.00650133411            0.000587597855           
       0.872646             0.00623248084            0.000550281578           
       0.875286             0.00708554699            0.000606725794           
       0.877927             0.00696144418            0.000575805163           
       0.880567             0.00650537831            0.000567498368           
       0.883208             0.00664564519            0.000557018715           
       0.885848             0.00743355615            0.000604391895           
       0.888488             0.00649905071            0.000537333321           
       0.891129             0.00689493878            0.000581782435           
       0.893769             0.00563013652            0.000496936442           
       0.896410             0.00607456462            0.000532077383           
       0.899050             0.00655444668            0.000532905876           
       0.901690             0.00631465605            0.000533985352           
       0.904331             0.00719540564            0.000550108878           
       0.906971             0.00650736977            0.000540199361           
       0.909611             0.00665054398            0.000524173524           
       0.912252             0.00684323349            0.000540926452           
       0.914892             0.00568970862            0.000480740472           
       0.917533             0.00595072982             0.00050273752           
       0.920173             0.00572150705            0.000472870919           
       0.922813             0.00729762117            0.000558086805           
       0.925454             0.00683565874             0.00051261904           
       0.928094             0.00681923416            0.000522992828           
       0.930734             0.00680300123            0.000509903256           
       0.933375              0.0070531357            0.000530260582           
       0.936015              0.0073731627            0.000518744942           
       0.938656             0.00754143113            0.000546636835           
       0.941296             0.00656520722            0.000491667982           
       0.943936             0.00744691031            0.000533074253           
       0.946577             0.00644464966            0.000477588064           
       0.949217             0.00581833511            0.000469814255           
       0.951858             0.00696038345            0.000485792673           
       0.954498             0.00698224746            0.000511877067           
       0.957138             0.00667046082            0.000480879653           
       0.959779             0.00742352878            0.000518394686           
       0.962419             0.00703816014            0.000485930227           
       0.965059             0.00685912945            0.000493335971           
       0.967700             0.00663993129            0.000469692701           
       0.970340             0.00766759587            0.000518915748           
       0.972981             0.00726108318            0.000487565715           
       0.975621             0.00683122344            0.000482815456           
       0.978261             0.00612815302            0.000436317038           
       0.980902             0.00695292081            0.000486880958           
       0.983542             0.00719712662             0.00048093406           
       0.986182              0.0067704406            0.000472602956           
       0.988823             0.00744213124            0.000479504642           
       0.991463             0.00703547626            0.000477355661           
       0.994104             0.00707171001             0.00046245153           
       0.996744             0.00703014288            0.000476043003           
       0.999384             0.00656912445            0.000444551201           
       1.002025             0.00829468774             0.00051344603           
       1.004665             0.00793260092            0.000481546672           
       1.007306             0.00780285935            0.000493595664           
       1.009946             0.00730417786            0.000459191291           
       1.012586             0.00712013893            0.000466410793           
       1.015227             0.00753978312            0.000465430522           
       1.017867             0.00735807802            0.000472963986           
       1.020507             0.00771649419            0.000466112687           
       1.023148             0.00824794876            0.000487717198           
       1.025788              0.0060232396            0.000412515405           
       1.028429              0.0081427256            0.000490119206           
       1.031069             0.00759448246            0.000456031989           
       1.033709             0.00778502004            0.000470583551           
       1.036350             0.00718324353            0.000440176797           
       1.038990             0.00799555255             0.00047586379           
       1.041630             0.00754273966            0.000453300687           
       1.044271             0.00749646007            0.000451958644           
       1.046911             0.00717406695            0.000433918611           
       1.049552              0.0077290891            0.000466622045           
       1.052192             0.00822198199            0.000459628587           
       1.054832             0.00791288089            0.000459674876           
       1.057473             0.00689991162            0.000423810871           
       1.060113             0.00844492004            0.000473942508           
       1.062754             0.00777277557            0.000449661665           
       1.065394             0.00766997213            0.000441978488           
       1.068034             0.00752682873            0.000436139696           
       1.070675             0.00764893327            0.000447396277           
       1.073315             0.00722890764            0.000421644258           
       1.075955             0.00786247822            0.000447108465           
       1.078596             0.00741620441            0.000433375872           
       1.081236             0.00821271154            0.000449290693           
       1.083877             0.00789172881            0.000454181513           
       1.086517             0.00751094794            0.000433065511           
       1.089157             0.00792411239            0.000448078441           
       1.091798             0.00778152119            0.000434620884           
       1.094438             0.00756533489            0.000435351864           
       1.097078             0.00721656444            0.000414271815           
       1.099719             0.00824848477            0.000454252692           
       1.102359             0.00837823216            0.000433693605           
       1.105000             0.00758798567            0.000428988811           
       1.107640              0.0067366119            0.000391030521           
       1.110280             0.00788737145            0.000431584878           
       1.112921             0.00806005988            0.000428389659           
       1.115561             0.00775707444            0.000425594126           
       1.118202             0.00752638072            0.000406982199           
       1.120842             0.00847279656            0.000445418434           
       1.123482             0.00772372065             0.00041334363           
       1.126123             0.00802937891            0.000424073265           
       1.128763             0.00758403642            0.000410100865           
       1.131403              0.0077486617            0.000413883564           
       1.134044             0.00711870917            0.000396014424           
       1.136684             0.00759751408            0.000412190262           
       1.139325             0.00859009874             0.00042594047           
       1.141965             0.00802881088            0.000417175232           
       1.144605             0.00815272165            0.000422851358           
       1.147246             0.00869637806            0.000428451549           
       1.149886             0.00785688847             0.00041014321           
       1.152527             0.00793336989            0.000412547574           
       1.155167             0.00767114201            0.000399968397           
       1.157807             0.00751206745            0.000396072323           
       1.160448             0.00862222072            0.000430136395           
       1.163088             0.00848829628            0.000410949271           
       1.165728             0.00847441708             0.00042753786           
       1.168369             0.00833576551            0.000408888416           
       1.171009             0.00855665636            0.000417705255           
       1.173650             0.00939142047            0.000434450636           
       1.176290             0.00880505891            0.000425605411           
       1.178930             0.00838783651            0.000403722162           
       1.181571             0.00915089361            0.000435459102           
       1.184211             0.00901735578            0.000419214885           
       1.186851             0.00854311874            0.000411804793           
       1.189492             0.00786807581            0.000397395011           
       1.192132             0.00924680956            0.000424427967           
       1.194773             0.00882437278            0.000412118298           
       1.197413             0.00861108065            0.000410428153           
       1.200053             0.00880533488            0.000412420414           
       1.202694             0.00885256863            0.000410408882           
       1.205334             0.00975477823            0.000435524449           
       1.207975             0.00927793459            0.000416423864           
       1.210615             0.00841046366             0.00040486276           
       1.213255              0.0092324206            0.000412963397           
       1.215896             0.00833485948            0.000399813953           
       1.218536             0.00875310025            0.000397921458           
       1.221176             0.00881470326             0.00040885053           
       1.223817             0.00902422003            0.000405060871           
       1.226457             0.00959785088            0.000423042475           
       1.229098             0.00998868352            0.000425022577           
       1.231738             0.00947737861            0.000419831352           
       1.234378             0.00937304622            0.000409401639           
       1.237019             0.00944551893            0.000414296287           
       1.239659             0.00890658376            0.000402085736           
       1.242299             0.00942850595            0.000411584089           
       1.244940             0.00966065052            0.000412123082           
       1.247580             0.00952112422            0.000410942683           
       1.250221             0.00925689233            0.000411814535           
       1.252861             0.00982355671            0.000408426628           
       1.255501             0.00952586673             0.00041354611           
       1.258142              0.0105885553             0.00042738381           
       1.260782             0.00906578099            0.000399926767           
       1.263423              0.0101669056            0.000415127714           
       1.266063             0.00903980313            0.000398737395           
       1.268703             0.00957342825            0.000399999057           
       1.271344             0.00912811575            0.000399092161           
       1.273984              0.0103104791            0.000417531179           
       1.276624             0.00981481173            0.000404885787           
       1.279265             0.00980362641            0.000405538502           
       1.281905              0.0100672938            0.000413488827           
       1.284546             0.00992058874            0.000405980907           
       1.287186              0.0101546081            0.000411135986           
       1.289826              0.0103662977            0.000417553415           
       1.292467             0.00975092376            0.000397742268           
       1.295107             0.00959994648            0.000401607346           
       1.297747             0.00964796062            0.000392050134           
       1.300388              0.0103567523            0.000416626798           
       1.303028             0.00965119699            0.000391957876           
       1.305669              0.0101127071            0.000406403703           
       1.308309              0.0099235517            0.000396531646           
       1.310949              0.0101971875             0.00040697156           
       1.313590              0.0100407471            0.000397588001           
       1.316230              0.0098285595            0.000400445104           
       1.318871             0.00980559627             0.00039134811           
       1.321511               0.010020624            0.000397598348           
       1.324151             0.00961339397            0.000390974352           
       1.326792              0.0102156471            0.000399770264           
       1.329432             0.00946418609            0.000386793085           
       1.332072             0.00980799068            0.000387003957           
       1.334713             0.00969855194            0.000389611507           
       1.337353             0.00983066888            0.000386222422           
       1.339994             0.00968040445            0.000388718274           
       1.342634             0.00984597572            0.000383202935           
       1.345274              0.0123145119            0.000434159102           
       1.347915              0.0108139603            0.000407930108           
       1.350555              0.0103751173            0.000398006224           
       1.353195              0.0105920915            0.000394453207           
       1.355836              0.0108622193            0.000406988171           
       1.358476             0.00991872986            0.000387817471           
       1.361117              0.0109964787            0.000398100293           
       1.363757             0.00954396665            0.000383168337           
       1.366397              0.0106403917            0.000391980637           
       1.369038              0.0107206336            0.000401748813           
       1.371678              0.0101277576            0.000382597337           
       1.374319              0.0110843482            0.000403432817           
       1.376959              0.0105548075            0.000388258404           
       1.379599             0.00991621855            0.000383665335           
       1.382240              0.0100677046            0.000379242149           
       1.384880              0.0102122511            0.000386644549           
       1.387520               0.010449358            0.000386534569           
       1.390161              0.0104863166            0.000386165096           
       1.392801              0.0102852363            0.000384724164           
       1.395442              0.0102480678            0.000380049312           
       1.398082              0.0102699575            0.000381756941           
       1.400722              0.0105410099            0.000385014707           
       1.403363              0.0103982759              0.0003859477           
       1.406003              0.0104676457            0.000377724377           
       1.408644              0.0104592551            0.000385499621           
       1.411284              0.0100335665            0.000375502593           
       1.413924             0.00976301507            0.000365836897           
       1.416565              0.0104628454            0.000378276704           
       1.419205              0.0105557349            0.000383694888           
       1.421845              0.0112700298             0.00039148025           
       1.424486              0.0101958643            0.000374000708           
       1.427126             0.00990061544            0.000368313296           
       1.429767              0.0101548232            0.000367263669           
       1.432407              0.0104987302            0.000382838083           
       1.435047              0.0104586627            0.000370624308           
       1.437688              0.0102053957            0.000374216733           
       1.440328              0.0105150668            0.000372490847           
       1.442968              0.0112726725            0.000391015269           
       1.445609              0.0101849841            0.000365559221           
       1.448249              0.0108427971            0.000379618422           
       1.450890             0.00982096747            0.000358710919           
       1.453530              0.0103178736            0.000370397101           
       1.456170             0.00995866912            0.000363073268           
       1.458811              0.0102855371            0.000366048082           
       1.461451             0.00998813698            0.000363368828           
       1.464092              0.0100037033            0.000360482041           
       1.466732              0.0110370538            0.000376320467           
       1.469372              0.0104427753            0.000364923803           
       1.472013              0.0104160225            0.000370976515           
       1.474653              0.0100909644            0.000356126013           
       1.477293              0.0107107888            0.000373076094           
       1.479934              0.0101188996            0.000358825961           
       1.482574             0.00973400212            0.000351066817           
       1.485215              0.0100563868            0.000357751873           
       1.487855              0.0101729901            0.000359745622           
       1.490495              0.0107525471            0.000369055023           
       1.493136              0.0100263597            0.000351701333           
       1.495776              0.0104614852            0.000365515299           
       1.498416             0.00994232746            0.000349407946           
       1.501057             0.00987970634            0.000351301734           
       1.503697             0.00991418514            0.000348530646           
       1.506338              0.0099218206            0.000351228943           
       1.508978             0.00991628539            0.000349057759           
       1.511618              0.0096132702            0.000343509559           
       1.514259             0.00961213286            0.000344109598           
       1.516899             0.00982975715            0.000348145266           
       1.519540              0.0101306729             0.00035147259           
       1.522180             0.00935247814             0.00033348623           
       1.524820              0.0101483893            0.000354403001           
       1.527461             0.00991508426            0.000342556144           
       1.530101             0.00974888289            0.000343184949           
       1.532741             0.00942889991            0.000335906806           
       1.535382              0.0107371453            0.000359242799           
       1.538022              0.0107570297            0.000356393926           
       1.540663              0.0101258893            0.000349048633           
       1.543303              0.0101872989            0.000345748642           
       1.545943             0.00983300552            0.000341586926           
       1.548584             0.00984106826            0.000343546652           
       1.551224             0.00950541089            0.000328980974           
       1.553864             0.00996005157            0.000345553839           
       1.556505              0.0101941059            0.000344212652           
       1.559145             0.00981298629            0.000338497681           
       1.561786              0.0102875371             0.00034501571           
       1.564426              0.0100620849            0.000340906044           
       1.567066             0.00983669466            0.000334435435           
       1.569707             0.00926108748            0.000329200956           
       1.572347             0.00939885601            0.000327337749           
       1.574988             0.00956919318             0.00032898399           
       1.577628              0.0099063027            0.000342265006           
       1.580268             0.00957307569            0.000324848091           
       1.582909             0.00950715653             0.00032978275           
       1.585549             0.00959664548            0.000328234809           
       1.588189             0.00912759164            0.000323688119           
       1.590830             0.00901120088            0.000316096972           
       1.593470             0.00914403723            0.000321018575           
       1.596111             0.00902889257            0.000316234667           
       1.598751             0.00853674225            0.000310638632           
       1.601391             0.00887334878            0.000314678852           
       1.604032             0.00860878964             0.00030736391           
       1.606672             0.00883288003            0.000317604857           
       1.609312             0.00880970259            0.000307749906           
       1.611953             0.00885725205            0.000313051354           
       1.614593             0.00883534261            0.000310285894           
       1.617234             0.00885524543            0.000312395978           
       1.619874              0.0088915337            0.000309352792           
       1.622514             0.00902902924            0.000314492512           
       1.625155              0.0085780916            0.000305780482           
       1.627795             0.00881920562            0.000306915074           
       1.630436              0.0088976248            0.000311375196           
       1.633076             0.00819779522            0.000297360568           
       1.635716             0.00886357185            0.000308660613           
       1.638357             0.00910282584            0.000311469716           
       1.640997             0.00840314002            0.000301600213           
       1.643637             0.00862693731            0.000299915507           
       1.646278              0.0082791769            0.000298206216           
       1.648918             0.00862250539             0.00030040316           
       1.651559             0.00887550203            0.000308610471           
       1.654199              0.0085385024            0.000298545731           
       1.656839             0.00916763847            0.000309265734           
       1.659480             0.00836281106            0.000297980192           
       1.662120             0.00918907664            0.000308168428           
       1.664761             0.00874881869            0.000303951168           
       1.667401             0.00868993257            0.000300104505           
       1.670041             0.00846586565            0.000296549167           
       1.672682             0.00845845628            0.000293630109           
       1.675322             0.00911146342            0.000310142113           
       1.677962              0.0083676499            0.000291310763           
       1.680603             0.00852144747            0.000296584742           
       1.683243              0.0083586197            0.000291564518           
       1.685884             0.00823441292            0.000290491358           
       1.688524             0.00819246202            0.000288935237           
       1.691164             0.00832160543            0.000290455198           
       1.693805             0.00771605398            0.000281949335           
       1.696445              0.0079856559            0.000282851699           
       1.699085             0.00859351367            0.000294590883           
       1.701726             0.00815596232            0.000283260071           
       1.704366             0.00864213416            0.000298675158           
       1.707007             0.00829305887            0.000286337408           
       1.709647             0.00783388659            0.000281755394           
       1.712287             0.00865148771            0.000291145285           
       1.714928             0.00813367469            0.000285136574           
       1.717568             0.00819664256            0.000283606021           
       1.720209             0.00833349517            0.000287729648           
       1.722849             0.00858781327            0.000292555387           
       1.725489             0.00835677515            0.000283993401           
       1.728130             0.00813333664            0.000285874464           
       1.730770             0.00858773646            0.000287542479           
       1.733410             0.00850443118            0.000289900836           
       1.736051             0.00828530944            0.000281700262           
       1.738691             0.00803155995            0.000280183964           
       1.741332             0.00826532447             0.00028248252           
       1.743972             0.00819627514            0.000281404439           
       1.746612             0.00848358037            0.000286359878           
       1.749253              0.0081227798            0.000281415313           
       1.751893             0.00820380203            0.000281118598           
       1.754533             0.00796608549            0.000273213768           
       1.757174             0.00795211657            0.000278077816           
       1.759814             0.00840267741            0.000281489224           
       1.762455             0.00814107527            0.000279431592           
       1.765095             0.00811277621            0.000275028202           
       1.767735              0.0081103773            0.000279660219           
       1.770376             0.00848523764            0.000281712127           
       1.773016             0.00852073116             0.00028274624           
       1.775657             0.00856113721            0.000283996505           
       1.778297             0.00843756182             0.00028331864           
       1.780937             0.00802720055            0.000275053619           
       1.783578              0.0087217709            0.000285360279           
       1.786218             0.00848676504            0.000285981422           
       1.788858             0.00841477977              0.0002776909           
       1.791499             0.00860208669            0.000285939023           
       1.794139             0.00834091336            0.000276365414           
       1.796780              0.0082401252            0.000276322767           
       1.799420              0.0084366379             0.00027924229           
       1.802060             0.00857562415            0.000278070346           
       1.804701              0.0086676225            0.000283308423           
       1.807341             0.00852973279            0.000278330229           
       1.809981             0.00871357262            0.000283181917           
       1.812622             0.00851272103            0.000278374192           
       1.815262             0.00849274987            0.000279038861           
       1.817903             0.00816106138             0.00027015619           
       1.820543             0.00811263804            0.000272682743           
       1.823183             0.00851377087            0.000275038737           
       1.825824             0.00809942627            0.000272296746           
       1.828464             0.00818743331            0.000272932133           
       1.831105             0.00831197484            0.000276064779           
       1.833745             0.00786983069            0.000268454338           
       1.836385             0.00816041844            0.000272302443           
       1.839026             0.00774681118            0.000269300221           
       1.841666             0.00798002243            0.000269774665           
       1.844306             0.00823127055            0.000277447644           
       1.846947             0.00825866239            0.000274337556           
       1.849587             0.00779573583             0.00027015291           
       1.852228             0.00800510857            0.000270845038           
       1.854868             0.00768823189            0.000270298484           
       1.857508             0.00802242978            0.000271012422           
       1.860149             0.00785250484            0.000270276035           
       1.862789              0.0082172929            0.000277706023           
       1.865429             0.00803374782            0.000275414871           
       1.868070             0.00780337162            0.000270499308           
       1.870710             0.00766905048            0.000268891412           
       1.873351             0.00773582099            0.000271783509           
       1.875991             0.00815223528            0.000280511813           
       1.878631             0.00791790506            0.000273881365           
       1.881272             0.00776379927            0.000270567716           
       1.883912             0.00804540218             0.00027866113           
       1.886553             0.00802015828            0.000274886185           
       1.889193             0.00797507863            0.000277279003           
       1.891833             0.00791256479            0.000273047107           
       1.894474             0.00795273405            0.000275905817           
       1.897114             0.00768606032            0.000269136561           
       1.899754             0.00808248681            0.000279085162           
       1.902395              0.0080267877            0.000278181157           
       1.905035             0.00768799669            0.000271180281           
       1.907676             0.00816825213            0.000279847015           
       1.910316             0.00749966848            0.000269859358           
       1.912956              0.0075709711            0.000271128384           
       1.915597             0.00799488214            0.000275710792           
       1.918237             0.00802589718             0.00028043841           
       1.920878             0.00726814497            0.000262148698           
       1.923518             0.00731643552            0.000270006156           
       1.926158             0.00747580563            0.000266659331           
       1.928799              0.0075213289            0.000271024265           
       1.931439             0.00746265782            0.000267801633           
       1.934079             0.00783699752            0.000277215324           
       1.936720             0.00769402807            0.000273058414           
       1.939360             0.00741777105            0.000270695478           
       1.942001             0.00791711287            0.000278582456           
       1.944641             0.00745969762            0.000269249859           
       1.947281             0.00734753504             0.00026850902           
       1.949922             0.00788966617            0.000278586836           
       1.952562             0.00767607476            0.000277154553           
       1.955202             0.00742731089            0.000265776921           
       1.957843             0.00803628052            0.000285240062           
       1.960483             0.00714605052            0.000264687147           
       1.963124             0.00767521493            0.000274108757           
       1.965764             0.00804803938            0.000280787602           
       1.968404             0.00732787672             0.00027272155           
       1.971045             0.00763930527            0.000271476352           
       1.973685             0.00790137536            0.000281245914           
       1.976326             0.00745591995            0.000272011889           
       1.978966             0.00729855574            0.000270399549           
       1.981606             0.00744630445            0.000270234334           
       1.984247             0.00756320178             0.00027472202           
       1.986887             0.00762359563            0.000278396238           
       1.989527             0.00760779174            0.000272313601           
       1.992168             0.00725731202            0.000272384094           
       1.994808             0.00798413189            0.000282375218           
       1.997449             0.00718046606            0.000267394022           
       2.000089             0.00728675414            0.000267779669           
       2.002729             0.00700107294            0.000268492493           
       2.005370              0.0074187659            0.000271131827           
       2.008010             0.00737783464            0.000273972624           
       2.010650             0.00752327622            0.000275868458           
       2.013291             0.00742084607            0.000275543527           
       2.015931             0.00756000547            0.000276124589           
       2.018572             0.00696095677             0.00026847784           
       2.021212             0.00748471831            0.000275896661           
       2.023852             0.00741134508            0.000275983235           
       2.026493             0.00723929737            0.000271565743           
       2.029133              0.0076752039            0.000277489172           
       2.031774             0.00770553594            0.000280733253           
       2.034414             0.00716133092            0.000269023208           
       2.037054             0.00745559498             0.00027795591           
       2.039695             0.00731056906            0.000269817745           
       2.042335             0.00758197627            0.000279457788           
       2.044975              0.0074962688            0.000275652985           
       2.047616             0.00698864023             0.00026729662           
       2.050256             0.00735590928             0.00027100446           
       2.052897             0.00708663378            0.000273876003           
       2.055537             0.00731303325             0.00027063116           
       2.058177             0.00749740186            0.000276441865           
       2.060818             0.00714805222            0.000270734836           
       2.063458              0.0078160045             0.00028349176           
       2.066098             0.00725044089            0.000271830798           
       2.068739              0.0073647508            0.000276821796           
       2.071379             0.00804758733            0.000285097071           
       2.074020             0.00752292406            0.000279421653           
       2.076660             0.00700100921            0.000267727612           
       2.079300             0.00745388498            0.000276211183           
       2.081941             0.00750511495            0.000278843725           
       2.084581             0.00734142846            0.000275990458           
       2.087222             0.00740603738            0.000277391078           
       2.089862             0.00771548502            0.000279598017           
       2.092502             0.00726388698            0.000276221377           
       2.095143             0.00710542486            0.000269287449           
       2.097783             0.00773584106            0.000285255255           
       2.100423             0.00728425873            0.000271496522           
       2.103064               0.007108189            0.000272825836           
       2.105704             0.00750046881            0.000279180822           
       2.108345             0.00710207291            0.000272912368           
       2.110985             0.00707640585            0.000268592391           
       2.113625             0.00759208101            0.000282590157           
       2.116266             0.00705526056            0.000270400048           
       2.118906             0.00694027818            0.000267992589           
       2.121546             0.00737185484            0.000275980099           
       2.124187             0.00683751164            0.000269466178           
       2.126827             0.00734170023            0.000274845486           
       2.129468             0.00711838447            0.000273457396           
       2.132108             0.00745552269             0.00027927908           
       2.134748             0.00719365473            0.000273296675           
       2.137389             0.00727235905            0.000277089171           
       2.140029             0.00693030889            0.000269837465           
       2.142670             0.00727845216            0.000276983894           
       2.145310             0.00724966653            0.000277491747           
       2.147950             0.00697493123             0.00027323523           
       2.150591              0.0074229347             0.00027928866           
       2.153231             0.00750980314            0.000285071297           
       2.155871              0.0072783063            0.000276589996           
       2.158512             0.00694614369            0.000275073768           
       2.161152             0.00669985096            0.000263404668           
       2.163793             0.00716446322            0.000276816786           
       2.166433             0.00723130295             0.00027328244           
       2.169073             0.00698888138            0.000274935291           
       2.171714             0.00739638498            0.000277078957           
       2.174354             0.00699787611             0.00027362966           
       2.176995             0.00729720143            0.000277102629           
       2.179635             0.00695174435            0.000275582522           
       2.182275             0.00705070166            0.000272027692           
       2.184916              0.0071395762            0.000279522176           
       2.187556             0.00660142062            0.000264453982           
       2.190196             0.00750031957            0.000286315195           
       2.192837             0.00689471419             0.00027150676           
       2.195477             0.00691503301            0.000274529393           
       2.198118             0.00709436944            0.000272932868           
       2.200758              0.0065097211            0.000265504926           
       2.203398             0.00774351084            0.000284772374           
       2.206039             0.00677496793            0.000270439692           
       2.208679             0.00729229434            0.000277828422           
       2.211319             0.00695461732            0.000272596711           
       2.213960             0.00679062745            0.000266499636           
       2.216600             0.00712419348            0.000279398129           
       2.219241             0.00697727311            0.000272482254           
       2.221881             0.00714164893            0.000277110184           
       2.224521             0.00709340156             0.00027521465           
       2.227162             0.00705342897            0.000278748682           
       2.229802             0.00691999217            0.000271617655           
       2.232443             0.00725729305            0.000279252167           
       2.235083             0.00698742097            0.000272367744           
       2.237723             0.00764146895             0.00028701273           
       2.240364             0.00718187017            0.000276832372           
       2.243004             0.00709487792            0.000275981917           
       2.245644             0.00702844475            0.000274052477           
       2.248285             0.00717593401            0.000278710594           
       2.250925             0.00702698664             0.00027451319           
       2.253566             0.00671102839            0.000268926644           
       2.256206             0.00699677118            0.000273769628           
       2.258846             0.00742248396            0.000281977812           
       2.261487             0.00754243336             0.00028473881           
       2.264127              0.0067608955            0.000272134062           
       2.266767             0.00669637231            0.000266454927           
       2.269408             0.00716281269            0.000278851766           
       2.272048             0.00718579651            0.000277580727           
       2.274689             0.00693985996            0.000273861903           
       2.277329             0.00685875825            0.000271895202           
       2.279969             0.00689122885            0.000273364091           
       2.282610              0.0065162569            0.000263230485           
       2.285250             0.00720710451            0.000281186667           
       2.287891              0.0070952201            0.000276180163           
       2.290531             0.00729463881            0.000281415377           
       2.293171             0.00719664154            0.000279504917           
       2.295812             0.00711974853            0.000276532167           
       2.298452             0.00690503188            0.000274074632           
       2.301092             0.00729773394            0.000283550234           
       2.303733             0.00708725582            0.000273904296           
       2.306373             0.00674209375            0.000273685521           
       2.309014             0.00708543016            0.000275161028           
       2.311654             0.00678091187             0.00027173782           
       2.314294             0.00705297922             0.00027653059           
       2.316935             0.00691864395            0.000274966916           
       2.319575             0.00701402716            0.000275819112           
       2.322215             0.00679261844            0.000275298704           
       2.324856             0.00735879943            0.000279346734           
       2.327496             0.00704067133            0.000279938365           
       2.330137             0.00707523098            0.000275449156           
       2.332777             0.00744665157            0.000285677359           
       2.335417             0.00676663866            0.000271503892           
       2.338058              0.0066511511            0.000270254345           
       2.340698             0.00764027428            0.000286801599           
       2.343339             0.00676542079            0.000275032459           
       2.345979             0.00685832614            0.000271388696           
       2.348619             0.00695740598            0.000278503986           
       2.351260             0.00744306962            0.000281937186           
       2.353900             0.00709116987            0.000281020913           
       2.356540             0.00721462175            0.000279558091           
       2.359181             0.00729561249            0.000284882076           
       2.361821             0.00706335792            0.000276895424           
       2.364462             0.00735678858            0.000287311242           
       2.367102              0.0071888307            0.000275799626           
       2.369742              0.0069059596            0.000280006376           
       2.372383              0.0072758754             0.00027902959           
       2.375023             0.00688707661            0.000278545011           
       2.377663             0.00703604812            0.000275558524           
       2.380304             0.00730197348            0.000284611593           
       2.382944             0.00726906449            0.000281192003           
       2.385585              0.0071428247            0.000281374731           
       2.388225             0.00764012848            0.000289690156           
       2.390865             0.00723407831            0.000282608808           
       2.393506             0.00722782829             0.00028118487           
       2.396146             0.00712361079            0.000280075562           
       2.398787             0.00725076105            0.000282811217           
       2.401427              0.0072371453            0.000280829947           
       2.404067              0.0069126955            0.000278651932           
       2.406708             0.00627683608            0.000262189616           
       2.409348             0.00739828839            0.000286791036           
       2.411988             0.00728281365            0.000283635308           
       2.414629             0.00703451536            0.000279670365           
       2.417269             0.00749386666            0.000286035744           
       2.419910             0.00658175268            0.000271444254           
       2.422550             0.00731451615            0.000281812094           
       2.425190             0.00701269667            0.000284624466           
       2.427831             0.00675857854            0.000268911306           
       2.430471             0.00697692743            0.000281207253           
       2.433112             0.00672937288            0.000269656675           
       2.435752             0.00666798033            0.000275219266           
       2.438392             0.00674410484            0.000272133567           
       2.441033             0.00656830701            0.000269793969           
       2.443673             0.00659507174             0.00027106501           
       2.446313             0.00709449211            0.000279643204           
       2.448954             0.00682997507            0.000276788054           
       2.451594             0.00713081621            0.000281121275           
       2.454235             0.00744527869            0.000286359191           
       2.456875             0.00698166803            0.000278704858           
       2.459515             0.00779329093            0.000294913399           
       2.462156              0.0074003995            0.000285901948           
       2.464796             0.00825011268            0.000307194437           
       2.467436             0.00739485296            0.000284737645           
       2.470077             0.00774258617            0.000295373114           
       2.472717             0.00825929986            0.000301252824           
       2.475358             0.00752972742            0.000290898723           
       2.477998             0.00775257404            0.000293597216           
       2.480638              0.0078699995            0.000296531122           
       2.483279             0.00789710566            0.000298317429           
       2.485919             0.00732522499            0.000285301159           
       2.488560             0.00769871547            0.000293697252           
       2.491200             0.00746094329             0.00028872991           
       2.493840             0.00723501409            0.000282776679           
       2.496481             0.00773371758            0.000296183213           
       2.499121              0.0070840563            0.000279695847           
       2.501761             0.00704250509            0.000283609811           
       2.504402             0.00678884103            0.000273118965           
       2.507042             0.00695459778            0.000281028328           
       2.509683             0.00745239983            0.000288263051           
       2.512323             0.00740740179            0.000288516769           
       2.514963             0.00828470455            0.000305731006           
       2.517604              0.0132152689            0.000384623141           
       2.520244              0.0417213356            0.000683551838           
       2.522884              0.0163108854            0.000426461735           
       2.525525              0.0105849014            0.000346367761           
       2.528165              0.0175673129            0.000444179713           
       2.530806              0.0273500954            0.000552143775           
       2.533446              0.0162139705            0.000428903771           
       2.536086              0.0253489853            0.000531783876           
       2.538727              0.0178228752            0.000448765103           
       2.541367              0.0140258833            0.000396964511           
       2.544008             0.00972066554            0.000330751877           
       2.546648             0.00824360943             0.00030493403           
       2.549288             0.00744353095            0.000289800547           
       2.551929             0.00711189431            0.000284206843           
       2.554569             0.00755454488            0.000290241233           
       2.557209              0.0073678023            0.000289870099           
       2.559850             0.00730052513             0.00028522562           
       2.562490             0.00689168424            0.000279141811           
       2.565131             0.00721528631            0.000286117193           
       2.567771             0.00729229799            0.000286115563           
       2.570411             0.00759328881            0.000295513441           
       2.573052             0.00725546162            0.000285493028           
       2.575692             0.00711519917            0.000283469968           
       2.578332             0.00728742129            0.000286032667           
       2.580973             0.00738716125            0.000290318397           
       2.583613              0.0071922563            0.000283852386           
       2.586254             0.00727866575            0.000288078688           
       2.588894             0.00755792925             0.00029198718           
       2.591534             0.00726735415            0.000286845891           
       2.594175             0.00763588295            0.000295735724           
       2.596815             0.00718170655            0.000284139251           
       2.599456             0.00744438378            0.000291655792           
       2.602096             0.00693550509            0.000280457455           
       2.604736             0.00691314757            0.000280739403           
       2.607377             0.00711456953            0.000283710751           
       2.610017              0.0061623649            0.000263951069           
       2.612657             0.00744025335            0.000292079198           
       2.615298             0.00683152967            0.000277138384           
       2.617938             0.00697689892            0.000282521598           
       2.620579             0.00696272289            0.000279928961           
       2.623219             0.00730960885            0.000291405188           
       2.625859             0.00703584009            0.000281077641           
       2.628500             0.00684039292            0.000281575521           
       2.631140             0.00705248958            0.000280865686           
       2.633780             0.00694613951            0.000282320098           
       2.636421             0.00722018902            0.000285216272           
       2.639061             0.00686024615            0.000281340118           
       2.641702             0.00709288279            0.000283012492           
       2.644342             0.00722958339            0.000288070558           
       2.646982             0.00710673606            0.000285370101           
       2.649623             0.00734702592            0.000291893836           
       2.652263             0.00714492561            0.000285560652           
       2.654904             0.00692751746            0.000282709275           
       2.657544             0.00692624637            0.000280694485           
       2.660184             0.00749373183            0.000292340606           
       2.662825             0.00741331684            0.000291464774           
       2.665465             0.00721057328            0.000287983215           
       2.668105             0.00685464635             0.00028089676           
       2.670746             0.00630231336            0.000267063069           
       2.673386             0.00719325191            0.000288774135           
       2.676027               0.007015384            0.000282757183           
       2.678667              0.0074442606            0.000292786216           
       2.681307             0.00766103141            0.000294682877           
       2.683948             0.00791606748            0.000302522615           
       2.686588             0.00787336602            0.000298936934           
       2.689229             0.00677828674            0.000279859245           
       2.691869             0.00758743768            0.000293136942           
       2.694509             0.00710739981            0.000287603212           
       2.697150             0.00714114903              0.0002836841           
       2.699790             0.00709334755            0.000288606042           
       2.702430             0.00710129847            0.000283231228           
       2.705071             0.00679480142            0.000280843292           
       2.707711             0.00657897717            0.000273606733           
       2.710352             0.00724663947            0.000288789133           
       2.712992             0.00660844621            0.000276676276           
       2.715632             0.00672870262             0.00027759425           
       2.718273             0.00688087951            0.000281647668           
       2.720913             0.00693801432            0.000283286746           
       2.723553             0.00686573874            0.000280828093           
       2.726194             0.00695633403            0.000284038114           
       2.728834             0.00677941913            0.000277910409           
       2.731475             0.00639965976            0.000272374305           
       2.734115             0.00690301776            0.000281197593           
       2.736755             0.00711666222            0.000287403278           
       2.739396             0.00767442749            0.000296875186           
       2.742036             0.00697131918            0.000284880429           
       2.744677              0.0068822253             0.00028346802           
       2.747317              0.0078283349            0.000300856428           
       2.749957             0.00732306425            0.000293096245           
       2.752598             0.00719564536            0.000291410082           
       2.755238             0.00690422693            0.000285319496           
       2.757878             0.00673052081            0.000280905319           
       2.760519             0.00661945397            0.000275636554           
       2.763159             0.00701474777            0.000288360999           
       2.765800             0.00693532625            0.000281866894           
       2.768440             0.00719385764            0.000290854205           
       2.771080             0.00660446377            0.000276336268           
       2.773721             0.00648397457            0.000277162981           
       2.776361             0.00706462932            0.000286199957           
       2.779001             0.00642673375            0.000275842595           
       2.781642             0.00632415361            0.000271765188           
       2.784282             0.00722302693            0.000290538518           
       2.786923             0.00672856257            0.000278284915           
       2.789563              0.0068281686            0.000280900285           
       2.792203             0.00709714777            0.000288202478           
       2.794844             0.00623246343            0.000268846897           
       2.797484             0.00672760902            0.000279715815           
       2.800125             0.00665191305            0.000277778316           
       2.802765             0.00667588399            0.000283437115           
       2.805405             0.00715612431            0.000289218808           
       2.808046             0.00685020347            0.000287308224           
       2.810686              0.0064110314            0.000274984251           
       2.813326             0.00724938583            0.000296029288           
       2.815967             0.00679704851            0.000284838481           
       2.818607             0.00685874214            0.000288988471           
       2.821248              0.0068078911            0.000284325201           
       2.823888             0.00650800369            0.000282469979           
       2.826528             0.00654139153            0.000281504034           
       2.829169             0.00670410222             0.00028372543           
       2.831809              0.0065403378            0.000280484187           
       2.834449             0.00680400886            0.000281088609           
       2.837090             0.00721139555            0.000291122797           
       2.839730             0.00692605075            0.000283278916           
       2.842371             0.00662919431            0.000279072615           
       2.845011             0.00660247908            0.000277888568           
       2.847651             0.00660652404             0.00027848417           
       2.850292             0.00675341486            0.000279963284           
       2.852932             0.00662642054            0.000277815808           
       2.855573              0.0068741759            0.000285446914           
       2.858213             0.00706654268            0.000286166032           
       2.860853             0.00663601639            0.000279387429           
       2.863494             0.00678984922             0.00028328767           
       2.866134             0.00668481502            0.000285030726           
       2.868774             0.00670030454            0.000280992581           
       2.871415             0.00675614801            0.000284953788           
       2.874055             0.00714322129            0.000294454269           
       2.876696             0.00681651437            0.000285051686           
       2.879336              0.0065006399            0.000280216582           
       2.881976             0.00703719119            0.000291311659           
       2.884617             0.00650494746            0.000278522823           
       2.887257             0.00603030182            0.000266299092           
       2.889897             0.00678418111            0.000285692267           
       2.892538             0.00638707003             0.00027528272           
       2.895178             0.00673098304            0.000279715033           
       2.897819             0.00695977419            0.000287354504           
       2.900459              0.0064119891            0.000273530708           
       2.903099              0.0062153725            0.000270710441           
       2.905740             0.00701699663            0.000284427792           
       2.908380              0.0066583807            0.000280757878           
       2.911021             0.00744974636            0.000297538517           
       2.913661             0.00662379524            0.000277472585           
       2.916301             0.00684383176            0.000286055959           
       2.918942             0.00728034447            0.000290586526           
       2.921582             0.00672149701            0.000282140392           
       2.924222             0.00667099723            0.000279448208           
       2.926863             0.00683716482            0.000283658641           
       2.929503             0.00634622415            0.000276318658           
       2.932144              0.0071740681            0.000288970386           
       2.934784             0.00697058824            0.000286053357           
       2.937424             0.00779462343            0.000303048707           
       2.940065             0.00637767847            0.000274346545           
       2.942705             0.00635376682            0.000274663812           
       2.945346             0.00635335942            0.000273032768           
       2.947986             0.00612881971            0.000269102395           
       2.950626              0.0067844394            0.000284000705           
       2.953267             0.00807750878            0.000306593392           
       2.955907                0.01036177            0.000351839984           
       2.958547             0.00965135359            0.000336082716           
       2.961188             0.00796757476            0.000308027856           
       2.963828             0.00852906265            0.000316890631           
       2.966469             0.00723455171            0.000291925957           
       2.969109             0.00696700942            0.000287942356           
       2.971749             0.00673268853            0.000282226206           
       2.974390             0.00742845429            0.000297264044           
       2.977030              0.0086901279            0.000320906803           
       2.979670             0.00995454309            0.000341245926           
       2.982311             0.00876502427            0.000322519793           
       2.984951              0.0077812819            0.000304668014           
       2.987592              0.0075283619            0.000298664226           
       2.990232             0.00734415638            0.000295740965           
       2.992872             0.00704659805            0.000287421412           
       2.995513             0.00737315714             0.00029631539           
       2.998153             0.00875429356            0.000324960744           
       3.000794             0.00930120379             0.00033008353           
       3.003434              0.0203436564            0.000493343708           
       3.006074              0.0674874665            0.000901455001           
       3.008715              0.0498821552            0.000780907494           
       3.011355              0.0328410765            0.000640219463           
       3.013995              0.0235916416            0.000539970779           
       3.016636              0.0331608015            0.000641382658           
       3.019276               0.173866825             0.00150372881           
       3.021917               0.195525209             0.00156759457           
       3.024557               0.136617458             0.00132080553           
       3.027197               0.148019081             0.00139789088           
       3.029838               0.158294037             0.00143868249           
       3.032478              0.0579363889            0.000875579891           
       3.035118              0.0350391028            0.000684425695           
       3.037759              0.0897869867             0.00109754095           
       3.040399               0.231526666             0.00178260787           
       3.043040               0.110086482               0.001241138           
       3.045680              0.0541857565            0.000857343811           
       3.048320               0.166436329              0.0015266877           
       3.050961               0.250969102             0.00189351802           
       3.053601              0.0705038732             0.00099917358           
       3.056242              0.0536213526            0.000876968653           
       3.058882               0.205515354             0.00174240944           
       3.061522               0.113882784             0.00128806463           
       3.064163              0.0205247454            0.000547818935           
       3.066803              0.0266109644            0.000635837702           
       3.069443               0.037194087            0.000746707931           
       3.072084              0.0678004523             0.00101713591           
       3.074724              0.0230675047            0.000596787809           
       3.077365              0.0107601055             0.00040730229           
       3.080005             0.00986748944            0.000394367783           
       3.082645             0.00886983938            0.000375804211           
       3.085286             0.00845725376             0.00036702669           
       3.087926             0.00787342215            0.000356384807           
       3.090566              0.0075558877            0.000352720571           
       3.093207             0.00715748413            0.000339586585           
       3.095847             0.00720994983            0.000347973096           
       3.098488             0.00785540926            0.000362556559           
       3.101128             0.00789970123            0.000365557787           
       3.103768              0.0094086499            0.000401193795           
       3.106409              0.0100831058            0.000418106479           
       3.109049              0.0101723245            0.000423216834           
       3.111690              0.0109724904            0.000437816443           
       3.114330             0.00961179331            0.000413417467           
       3.116970             0.00999684428            0.000427482259           
       3.119611              0.0124954341            0.000474818015           
       3.122251              0.0155340389            0.000533747595           
       3.124891              0.0121755675            0.000474833828           
       3.127532             0.00902382939            0.000416146408           
       3.130172             0.00799144938            0.000383562528           
       3.132813             0.00710538424            0.000369034847           
       3.135453             0.00904059786             0.00042504805           
       3.138093             0.00861857783            0.000405161739           
       3.140734             0.00633138507            0.000353727118           
       3.143374             0.00697155978              0.0003768536           
       3.146014             0.00637477898            0.000357747175           
       3.148655             0.00614567767              0.0003540254           
       3.151295             0.00611952109            0.000356067438           
       3.153936             0.00591650551            0.000355279888           
       3.156576             0.00643346884             0.00036622357           
       3.159216             0.00755369252            0.000400074529           
       3.161857             0.00597942655             0.00036031822           
       3.164497             0.00625674653            0.000376350735           
       3.167138              0.0056774963            0.000349905259           
       3.169778             0.00573098599            0.000357897578           
       3.172418             0.00591231523            0.000365639611           
       3.175059             0.00639617412            0.000385284251           
       3.177699             0.00579016452            0.000365130236           
       3.180339             0.00559693231            0.000362194683           
       3.182980             0.00615111733            0.000384828942           
       3.185620             0.00600071059            0.000384248474           
       3.188261             0.00554906111            0.000364664183           
       3.190901             0.00574645225            0.000376811587           
       3.193541             0.00553772976             0.00037112393           
       3.196182              0.0057644013            0.000386521456           
       3.198822              0.0062634982            0.000398022925           
       3.201463             0.00585523558            0.000389809085           
       3.204103             0.00626302299            0.000408523237           
       3.206743             0.00573881406            0.000394359416           
       3.209384             0.00585200166            0.000396454216           
       3.212024             0.00575564773            0.000394573571           
       3.214664             0.00530494323            0.000386030088           
       3.217305              0.0056744965            0.000408564233           
       3.219945             0.00636879781             0.00042921862           
       3.222586              0.0049646483            0.000381105249           
       3.225226             0.00559178139             0.00041357201           
       3.227866             0.00521261259            0.000402393203           
       3.230507             0.00697078189            0.000470885517           
       3.233147             0.00617143052            0.000436511642           
       3.235787             0.00678753234            0.000457906598           
       3.238428             0.00556027075            0.000421766539           
       3.241068              0.0060004558            0.000447027925           
       3.243709             0.00643937273            0.000460518497           
       3.246349             0.00613502949             0.00044698907           
       3.248989             0.00615475744            0.000457940402           
       3.251630             0.00559113591            0.000438400127           
       3.254270             0.00584921304            0.000462187242           
       3.256911             0.00537168464             0.00043182144           
       3.259551             0.00580023655            0.000458631666           
       3.262191             0.00494538489            0.000427384148           
       3.264832             0.00564060855            0.000460720299           
       3.267472             0.00565888098            0.000468010203           
       3.270112             0.00567974068            0.000470206758           
       3.272753             0.00603057788            0.000490465713           
       3.275393             0.00571605048            0.000479962065           
       3.278034             0.00563747968            0.000486361849           
       3.280674              0.0054568263            0.000479894401           
       3.283314             0.00517059877            0.000469720078           
       3.285955             0.00577002405            0.000505521047           
       3.288595             0.00511957691            0.000481488214           
       3.291235             0.00612739671            0.000529846824           
       3.293876             0.00501914879            0.000482382234           
       3.296516             0.00522064807            0.000502004255           
       3.299157             0.00577336231            0.000535888692           
       3.301797             0.00567030611            0.000531309961           
       3.304437             0.00517983025            0.000517330145           
       3.307078             0.00632326452            0.000577137535           
       3.309718             0.00564448326            0.000550724582           
       3.312359             0.00581832922            0.000570439038           
       3.314999             0.00446994744            0.000505235122           
       3.317639             0.00568364373            0.000575847154           
       3.320280             0.00607992161            0.000604281032           
       3.322920             0.00589405621            0.000603874677           
       3.325560             0.00612871194            0.000627668663           
       3.328201              0.0059108659            0.000619018163           
       3.330841             0.00615365293            0.000646964325           
       3.333482             0.00554537892            0.000621955064           
       3.336122             0.00512190006            0.000610726877           
       3.338762             0.00580647514             0.00065620861           
       3.341403             0.00442289858            0.000578028806           
       3.344043              0.0063120377            0.000716882725           
       3.346683             0.00609744868            0.000711737822           
       3.349324             0.00570406259             0.00069905203           
       3.351964             0.00523143431            0.000690987056           
       3.354605             0.00453176216            0.000650404186           
       3.357245             0.00613867557            0.000783592469           
       3.359885             0.00617304639            0.000786065533           
       3.362526             0.00577613983            0.000799253861           
       3.365166             0.00492137792            0.000728641638           
       3.367807             0.00537085001            0.000814825392           
       3.370447             0.00552393763            0.000826676842           
       3.373087             0.00465206244            0.000800664531           
       3.375728             0.00469738394            0.000798473354           
       3.378368             0.00705724421             0.00105755953           
       3.381008             0.00583373555             0.00095314112           
       3.383649             0.00524397335            0.000977986044           
       3.386289             0.00596237348             0.00104325645           
       3.388930             0.00543445785             0.00109385465           
       3.391570             0.00588702337             0.00113896781           
       3.394210             0.00396621045             0.00100169329           
       3.396851             0.00520939124             0.00124355058           
       3.399491             0.00418621074             0.00113498973           
       3.402131             0.00503113668             0.00147286265           
       3.404772             0.00628311149             0.00164665518           
       3.407412             0.00511254333             0.00184315341           
       3.410053             0.00554309331             0.00199841586           
       3.412693             0.00676720635              0.0031240035           
       3.415333             0.00600640981             0.00360608952           
