################################################################################
# EDF_DataBlockID                     0.Image.Psd
# EDF_BinarySize                      2105344
# EDF_HeaderSize                      2560
# ByteOrder                           LowByteFirst
# DataType                            FloatValue
# Dim_1                               512
# Dim_2                               1028
# Image                               0
# HeaderID                            EH:000000:000000:000000
# Size                                2105344
# Center_1                            304.9000
# Center_2                            588.7000
# Comment                             Xenocs_Cell_Window - front_window_open_only
# DDummy                              0.6
# Date                                2025-10-19T06:13:24
# Delta                               21.910000
# Dummy                               -1.5
# ExposureTime                        360
# Gamma                               15.360000
# Intensity1                          8.99871e-10
# PSize_1                             7.5e-05
# PSize_2                             7.5e-05
# Pressure                            0.0331163
# SampleDistance                      0.115750
# SampleEnvKind                       large
# SampleEnvPN                         ElectroChemical cell
# SampleEnvSN                         1141
# Thickness                           0
# Wavelength                          1.541891e-10
# Wavelength                          1.54189e-10
# aux                                 0
# aux_dial                            0.002375
# beamx                               588.429
# beamx_dial                          588.429
# beamz                               657.855
# beamz_dial                          657.855
# det0x                               -0.000396875
# det0x_dial                          6.36905
# det0xvd                             -0.0005
# det0xvd_dial                        -0.0005
# det0y                               450.002
# det0y_dial                          481.635
# det0z                               0
# det0z_dial                          1.2295
# det0zvd                             0
# det0zvd_dial                        0
# mag                                 1.818
# mag_dial                            1.818
# om                                  0.2499
# om_dial                             -0.610199
# phi                                 -0.0120535
# phi_dial                            0
# ry                                  0.599993
# ry_dial                             0.599993
# s1bot                               0.8
# s1bot_dial                          -1.66094
# s1hl                                0.8
# s1hl_dial                           -0.608437
# s1hr                                0.8
# s1hr_dial                           0.970938
# s1top                               0.8
# s1top_dial                          -0.461562
# s2bot                               0.45
# s2bot_dial                          1.36109
# s2hl                                0.45
# s2hl_dial                           -0.83375
# s2hr                                0.45
# s2hr_dial                           -0.118594
# s2top                               0.45
# s2top_dial                          1.44734
# w2theta                             32
# w2theta_dial                        32
# waxsch                              19.2605
# waxsch_dial                         -32.7238
# waxsh                               137.085
# waxsh_dial                          -43.5335
# waxsth                              26.0607
# waxsth_dial                         -19.4068
# waxsz                               67.0407
# waxsz_dial                          -23.7962
# wind                                65.9854
# wind_dial                           66.0041
# wpsi                                124
# wpsi_dial                           124
# wstod                               115
# wstod_dial                          115
# x                                   0
# x_dial                              1.00969
# z                                   0
# z_dial                              13.3172
# CountCutoff                         6807993
# DetectorModel                       Dectris EIGER2 Si 500K, S/N E-01-0554
# ThresholdSetting                    4023.88989258
# Saturation                          0
# FlatField                           Corrected
# BackgroundReductionExtra            0.02
# BackgroundCorrectionConstant        0.0026712
# Detector                            0
# Monitor                             0
# Pil_Roi0                            0
# SumForIntensity1                    3.23953e+08
# TransmittedFlux                     899871
# det                                 0
# mon                                 0
# pilai0                              3.23953e+08
# pilai1                              692838
# pilct0                              5.60133e+08
# pilct1                              692838
# pilroi0                             0
# pilroi1                             0
# sec                                 1
# title                               20251017__1_00328.edf
# usaxs0                              0
# Operation                           Azimuthal average I(q)
# Error_model                         ErrorModel.poisson
# Geometrical_correction              True
# Transmission_correction             True
# Thickness_correction                False
# Binning mode                        Uniform
# Binning factor                      1.0
# Psi                                 0.0
# Omega                               0.2499
# MaskInvalidPixels                   True
# DetectorEdge                        3
# MaskFiles                           ['20251017__1_00233_mask.edf']
################################################################################
    q(A⁻¹)                Intensity(a.u.)            Sigma_I(a.u.)            
       0.690460           -2.25702286e-05                         0           
       0.693100             0.00939290897             0.00398292907           
       0.695741             0.00572889248             0.00262787057           
       0.698381             0.00302735575               0.001786679           
       0.701021             0.00340708444             0.00154693162           
       0.703662             0.00524570655              0.0017767405           
       0.706302             0.00661251468             0.00192655399           
       0.708942             0.00476794491             0.00145313981           
       0.711583             0.00608709115             0.00164159924           
       0.714223             0.00893969885             0.00173359605           
       0.716864             0.00686987932             0.00155078905           
       0.719504             0.00531393001             0.00126230108           
       0.722144             0.00630428109             0.00132787904           
       0.724785             0.00666883095             0.00134334786           
       0.727425             0.00598610367             0.00118052073           
       0.730065             0.00562302358             0.00117727525           
       0.732706              0.0065066643             0.00113880695           
       0.735346             0.00714665005              0.0012891828           
       0.737987             0.00879077496             0.00123755575           
       0.740627             0.00557355443             0.00107950613           
       0.743267             0.00537280259            0.000911685313           
       0.745908              0.0063632322              0.0010633263           
       0.748548             0.00660178476             0.00101015625           
       0.751189             0.00676594821             0.00101300417           
       0.753829             0.00919618798             0.00119165605           
       0.756469             0.00515010629            0.000838755017           
       0.759110             0.00750750263             0.00104746224           
       0.761750             0.00643030744            0.000887206419           
       0.764390             0.00701239491            0.000994538862           
       0.767031             0.00617544247            0.000844530752           
       0.769671             0.00491211399            0.000798803214           
       0.772312             0.00717586942             0.00087981036           
       0.774952             0.00738300947            0.000956719958           
       0.777592             0.00701614295            0.000853045931           
       0.780233             0.00559810837            0.000803286931           
       0.782873             0.00661877305            0.000798725537           
       0.785513             0.00672103284            0.000856192132           
       0.788154             0.00647449599            0.000771864802           
       0.790794              0.0070295602            0.000832397232           
       0.793435             0.00859250584            0.000883933108           
       0.796075              0.0072137326            0.000814194174           
       0.798715             0.00611878906            0.000745580094           
       0.801356             0.00606833612            0.000722629266           
       0.803996             0.00554019375             0.00070150148           
       0.806637             0.00787241095            0.000790447648           
       0.809277             0.00631143054            0.000740427476           
       0.811917             0.00635964426              0.0007033307           
       0.814558             0.00699702436            0.000755761229           
       0.817198             0.00722511821             0.00073227039           
       0.819838             0.00675105942            0.000738352659           
       0.822479             0.00669623215            0.000677663232           
       0.825119             0.00644318211            0.000714096677           
       0.827760             0.00650677378            0.000664941153           
       0.830400             0.00780699866            0.000767412996           
       0.833040             0.00666614648            0.000661818288           
       0.835681             0.00739199544            0.000729822578           
       0.838321             0.00677553791            0.000653996717           
       0.840961             0.00630482967            0.000659413571           
       0.843602             0.00638657727            0.000625155277           
       0.846242               0.006912651            0.000673356515           
       0.848883             0.00646890513            0.000633651865           
       0.851523             0.00537788357            0.000582081259           
       0.854163             0.00655350459            0.000635096472           
       0.856804             0.00813248567            0.000689378283           
       0.859444              0.0061917782            0.000605849807           
       0.862085             0.00647465399            0.000610522602           
       0.864725             0.00639673397            0.000604609863           
       0.867365             0.00785428507            0.000665162926           
       0.870006             0.00823916553            0.000690770494           
       0.872646             0.00643315215            0.000583820869           
       0.875286             0.00670139191            0.000616171322           
       0.877927             0.00675266038            0.000592211098           
       0.880567             0.00629336207            0.000582885031           
       0.883208             0.00603243345            0.000554192554           
       0.885848             0.00708191412            0.000616039914           
       0.888488             0.00689227171            0.000577847462           
       0.891129             0.00659303151            0.000594088545           
       0.893769             0.00794994891            0.000616647191           
       0.896410              0.0082926751            0.000649198864           
       0.899050             0.00663935499            0.000560091062           
       0.901690             0.00714895648            0.000593320052           
       0.904331             0.00802822597            0.000606797821           
       0.906971             0.00711520243            0.000589872513           
       0.909611             0.00764998176            0.000587070018           
       0.912252             0.00694894443            0.000569220018           
       0.914892             0.00757633093            0.000579306426           
       0.917533             0.00713218155            0.000574752121           
       0.920173             0.00684583496            0.000540149285           
       0.922813             0.00706254902            0.000573330492           
       0.925454             0.00693198042            0.000539071554           
       0.928094             0.00682305052            0.000546299031           
       0.930734             0.00704999011            0.000542057015           
       0.933375             0.00710206433            0.000555653086           
       0.936015             0.00797945281            0.000563542568           
       0.938656             0.00692858467            0.000547151354           
       0.941296             0.00615222004            0.000497023409           
       0.943936             0.00673311007             0.00052932293           
       0.946577             0.00822274564            0.000563346294           
       0.949217             0.00725783147            0.000547953203           
       0.951858              0.0071423968            0.000513889294           
       0.954498             0.00675095225            0.000525610192           
       0.957138             0.00601550635            0.000476878544           
       0.959779             0.00718416797            0.000532545583           
       0.962419             0.00708871231            0.000509261944           
       0.965059             0.00785596762            0.000551342322           
       0.967700             0.00755548086            0.000523210293           
       0.970340             0.00762381711            0.000540339459           
       0.972981             0.00717984066            0.000506294327           
       0.975621             0.00581204394            0.000465060623           
       0.978261             0.00751465523            0.000504551042           
       0.980902             0.00812144022            0.000549501496           
       0.983542             0.00656363722             0.00047961356           
       0.986182             0.00785432636            0.000531564103           
       0.988823             0.00801714482             0.00051971736           
       0.991463             0.00724297872            0.000505786387           
       0.994104             0.00738277432            0.000493431648           
       0.996744             0.00808708358            0.000533179302           
       0.999384             0.00686398113            0.000474536136           
       1.002025             0.00794397655            0.000524719207           
       1.004665             0.00717774454            0.000478341198           
       1.007306             0.00745527248            0.000503836252           
       1.009946             0.00695566377             0.00046794032           
       1.012586             0.00842989281            0.000529966709           
       1.015227             0.00802619986            0.000501468461           
       1.017867             0.00759578591            0.000501817083           
       1.020507             0.00777748127            0.000488667662           
       1.023148             0.00762179042            0.000489594804           
       1.025788             0.00724332428            0.000472397154           
       1.028429             0.00727539175            0.000483791483           
       1.031069             0.00680469802            0.000450779181           
       1.033709             0.00713731138            0.000470530091           
       1.036350             0.00729741877             0.00046330255           
       1.038990             0.00797656108            0.000496340223           
       1.041630             0.00810720107            0.000490761512           
       1.044271             0.00739773159            0.000468849083           
       1.046911             0.00784901962            0.000473965224           
       1.049552             0.00811086049            0.000499169184           
       1.052192             0.00842763298            0.000485942388           
       1.054832             0.00813206789             0.00048662807           
       1.057473             0.00786975136            0.000472654763           
       1.060113             0.00777945295             0.00047502408           
       1.062754             0.00826017508            0.000484067173           
       1.065394             0.00758341145            0.000458933494           
       1.068034             0.00832962084            0.000479121237           
       1.070675             0.00833634352            0.000487745125           
       1.073315             0.00779926082            0.000457351155           
       1.075955             0.00801575685            0.000471431544           
       1.078596             0.00798318779            0.000469542882           
       1.081236             0.00839049333            0.000474232258           
       1.083877             0.00781826854            0.000472075948           
       1.086517             0.00819982668            0.000472521707           
       1.089157             0.00756426599            0.000457167487           
       1.091798             0.00838366892            0.000471095118           
       1.094438             0.00748928193            0.000452334408           
       1.097078             0.00833831014            0.000465020788           
       1.099719             0.00815282654            0.000471604269           
       1.102359             0.00893940046            0.000467815088           
       1.105000             0.00806555638            0.000461862907           
       1.107640              0.0085554291            0.000460176033           
       1.110280              0.0086704271            0.000472534501           
       1.112921             0.00900879141            0.000472951183           
       1.115561              0.0078001903            0.000445669025           
       1.118202             0.00883463266            0.000460457739           
       1.120842             0.00781783444            0.000446798018           
       1.123482             0.00857926285            0.000454921185           
       1.126123              0.0083968064            0.000452866497           
       1.128763             0.00898675661            0.000466181652           
       1.131403             0.00793209799            0.000437292542           
       1.134044             0.00929787313            0.000472623587           
       1.136684             0.00802247842            0.000442312746           
       1.139325              0.0084975563            0.000442394846           
       1.141965             0.00873437868            0.000454383044           
       1.144605              0.0089723635            0.000463236805           
       1.147246             0.00859084522            0.000444696451           
       1.149886             0.00864085697            0.000449160798           
       1.152527             0.00851580136            0.000446345492           
       1.155167             0.00870387857            0.000444902948           
       1.157807             0.00832904116            0.000435517355           
       1.160448              0.0096202657            0.000474464105           
       1.163088             0.00819901547            0.000421766428           
       1.165728             0.00860489186            0.000449889208           
       1.168369             0.00869220621            0.000436023884           
       1.171009             0.00830502115            0.000429735736           
       1.173650             0.00855673472             0.00043305398           
       1.176290             0.00884351084            0.000445416776           
       1.178930             0.00921300886            0.000441846645           
       1.181571             0.00915529293            0.000454846595           
       1.184211             0.00929538097            0.000444471476           
       1.186851             0.00895011545            0.000440160129           
       1.189492             0.00930710879            0.000451345112           
       1.192132             0.00950594767            0.000449385393           
       1.194773             0.00906049004            0.000436082867           
       1.197413             0.00868388787            0.000430406305           
       1.200053             0.00959055796            0.000449471705           
       1.202694             0.00957001167            0.000445606522           
       1.205334             0.00949627645            0.000448738901           
       1.207975             0.00951857427            0.000440462676           
       1.210615             0.00948608664             0.00044900855           
       1.213255             0.00953658816            0.000438291944           
       1.215896             0.00959000637            0.000447848845           
       1.218536             0.00954731113            0.000433980435           
       1.221176             0.00950510472             0.00044335578           
       1.223817             0.00932815314            0.000430057468           
       1.226457              0.0103963732            0.000459781095           
       1.229098             0.00919523672            0.000425845964           
       1.231738             0.00995120764            0.000449243551           
       1.234378             0.00890573278            0.000416732368           
       1.237019             0.00953831923            0.000434757679           
       1.239659             0.00941464871            0.000431696328           
       1.242299             0.00931636712            0.000427241705           
       1.244940             0.00897664266            0.000414852706           
       1.247580             0.00938712749            0.000426105069           
       1.250221             0.00924159694             0.00042969053           
       1.252861             0.00985577033            0.000427206806           
       1.255501             0.00950803039            0.000431449704           
       1.258142             0.00965781045            0.000426238088           
       1.260782              0.0104458608            0.000448294266           
       1.263423              0.0102059287            0.000434336976           
       1.266063             0.00947975385            0.000426401985           
       1.268703              0.0101499167            0.000430100224           
       1.271344             0.00949025433            0.000424946992           
       1.273984              0.0102165325            0.000434024708           
       1.276624              0.0104618437            0.000436524742           
       1.279265              0.0104842953            0.000437946987           
       1.281905             0.00990800283            0.000428364699           
       1.284546              0.0101292396              0.0004283892           
       1.287186              0.0103085578            0.000432579636           
       1.289826              0.0094359403            0.000416012136           
       1.292467              0.0103923947            0.000428795172           
       1.295107             0.00982582439            0.000424292102           
       1.297747              0.0110386462            0.000437920179           
       1.300388              0.0098873393            0.000425097284           
       1.303028              0.0101415132             0.00041957866           
       1.305669              0.0106158535            0.000434825101           
       1.308309             0.00976464799            0.000410757769           
       1.310949               0.010320908            0.000427558965           
       1.313590              0.0101445591            0.000417330427           
       1.316230              0.0106866776            0.000436046306           
       1.318871              0.0103226946            0.000419310737           
       1.321511              0.0100543967            0.000415899504           
       1.324151             0.00992617497            0.000414871944           
       1.326792              0.0104636837            0.000422506167           
       1.329432              0.0104748745            0.000424937134           
       1.332072              0.0109031343            0.000426102684           
       1.334713              0.0114897368            0.000442839724           
       1.337353              0.0106741725            0.000420267942           
       1.339994              0.0108149055            0.000429054811           
       1.342634              0.0105280688            0.000413796687           
       1.345274              0.0128344233            0.000462851519           
       1.347915              0.0118212832             0.00044538839           
       1.350555              0.0108919087            0.000425851868           
       1.353195              0.0100015348            0.000400268267           
       1.355836              0.0106200791            0.000420242124           
       1.358476              0.0110080755            0.000426646556           
       1.361117              0.0107188944             0.00041044397           
       1.363757              0.0108966974            0.000427548914           
       1.366397              0.0113501053            0.000422764935           
       1.369038              0.0109860426            0.000424696049           
       1.371678              0.0110742897            0.000417788459           
       1.374319              0.0106966148            0.000413859117           
       1.376959              0.0107938309             0.00041001214           
       1.379599              0.0101523209            0.000405392202           
       1.382240              0.0101913441             0.00039845594           
       1.384880              0.0108537408            0.000416249838           
       1.387520               0.011114275            0.000416291277           
       1.390161              0.0111496852            0.000415820641           
       1.392801              0.0115745221            0.000426193741           
       1.395442              0.0109109326            0.000409508667           
       1.398082              0.0112353733            0.000416974578           
       1.400722              0.0106721285            0.000404552545           
       1.403363              0.0111495385            0.000417339451           
       1.406003              0.0106183556            0.000397276014           
       1.408644              0.0104440963            0.000402274233           
       1.411284              0.0105008212             0.00040115306           
       1.413924              0.0113896744            0.000412633406           
       1.416565             0.00986903523             0.00038365004           
       1.419205              0.0101525068            0.000392953921           
       1.421845              0.0107638841            0.000399525991           
       1.424486              0.0110538413            0.000406658842           
       1.427126              0.0106272117            0.000398482425           
       1.429767              0.0108272993            0.000396018124           
       1.432407              0.0107886476            0.000405269066           
       1.435047              0.0103935266            0.000385825113           
       1.437688              0.0110781272            0.000407150205           
       1.440328              0.0100703363            0.000380666606           
       1.442968              0.0105560965            0.000395134685           
       1.445609              0.0110203023            0.000397088697           
       1.448249              0.0108473044            0.000396506887           
       1.450890              0.0105984784            0.000389136908           
       1.453530              0.0107476049            0.000394767626           
       1.456170              0.0103002373            0.000385594156           
       1.458811              0.0107513646            0.000390813582           
       1.461451              0.0111677344            0.000401237178           
       1.464092              0.0106565654            0.000388530454           
       1.466732              0.0108987359            0.000390510333           
       1.469372              0.0108715935            0.000388824868           
       1.472013              0.0104695369            0.000388393904           
       1.474653              0.0111254536             0.00039048956           
       1.477293              0.0106017622            0.000387604604           
       1.479934               0.010726429            0.000385796248           
       1.482574              0.0120177879            0.000407351704           
       1.485215              0.0107603027            0.000386443832           
       1.487855              0.0110568559            0.000391651899           
       1.490495              0.0107026464            0.000384498135           
       1.493136             0.00987867172            0.000364556509           
       1.495776              0.0106179478            0.000384540766           
       1.498416              0.0101747081            0.000369116051           
       1.501057              0.0100500336            0.000370002993           
       1.503697             0.00996533646            0.000364898138           
       1.506338              0.0108277887            0.000383157828           
       1.508978              0.0104571934            0.000374320458           
       1.511618              0.0104175504            0.000373421452           
       1.514259             0.00998522026            0.000366251097           
       1.516899              0.0104613187            0.000375055485           
       1.519540              0.0107828421            0.000378662365           
       1.522180              0.0102999323            0.000365464289           
       1.524820               0.010241607            0.000371788617           
       1.527461              0.0107202776            0.000371963032           
       1.530101              0.0100514709            0.000363897291           
       1.532741             0.00998170108            0.000360914039           
       1.535382              0.0104375959            0.000369876806           
       1.538022              0.0105865562            0.000369211032           
       1.540663              0.0094775687            0.000352639559           
       1.543303              0.0101358698             0.00036014275           
       1.545943              0.0106961993            0.000372036925           
       1.548584              0.0106503928            0.000373216313           
       1.551224              0.0109395332            0.000368551291           
       1.553864              0.0100656855             0.00036276035           
       1.556505              0.0101114361            0.000357990815           
       1.559145             0.00991436232            0.000355304494           
       1.561786             0.00950253534            0.000346270996           
       1.564426             0.00968198326            0.000349209526           
       1.567066              0.0101957328            0.000355557725           
       1.569707             0.00957772637            0.000349602486           
       1.572347             0.00959843011            0.000345439425           
       1.574988             0.00966540432            0.000345271174           
       1.577628             0.00965693514            0.000352890172           
       1.580268             0.00994520481            0.000345759915           
       1.582909             0.00918937993            0.000338578146           
       1.585549             0.00947571218            0.000340599532           
       1.588189             0.00960301696            0.000346709476           
       1.590830             0.00945435948             0.00033811019           
       1.593470             0.00913789635            0.000335117794           
       1.596111             0.00963659919            0.000341167253           
       1.598751             0.00952739017            0.000342696415           
       1.601391             0.00920682114            0.000334727843           
       1.604032             0.00880353278            0.000324581321           
       1.606672             0.00841445514            0.000323714516           
       1.609312             0.00892799575            0.000323524741           
       1.611953             0.00862613013            0.000322617034           
       1.614593             0.00918647733            0.000330398483           
       1.617234             0.00955436648            0.000338859203           
       1.619874             0.00889611314             0.00032313132           
       1.622514             0.00876331526             0.00032354687           
       1.625155             0.00857675926            0.000319292881           
       1.627795             0.00927803944            0.000328734132           
       1.630436              0.0088043308             0.00032345089           
       1.633076             0.00878137713            0.000321387784           
       1.635716             0.00888656687            0.000322743156           
       1.638357             0.00914880109            0.000326079134           
       1.640997             0.00899700807            0.000325891553           
       1.643637             0.00878087691            0.000315975021           
       1.646278             0.00915383275            0.000327444578           
       1.648918             0.00842618886            0.000310110563           
       1.651559             0.00888125773            0.000322377435           
       1.654199             0.00888415072            0.000318010293           
       1.656839             0.00862870378            0.000313320672           
       1.659480             0.00863357895            0.000316169441           
       1.662120             0.00867350047             0.00031265301           
       1.664761             0.00868311578            0.000316213284           
       1.667401             0.00883016414            0.000315908932           
       1.670041              0.0086410495            0.000312865355           
       1.672682              0.0082981474            0.000303709803           
       1.675322              0.0088934704            0.000319974604           
       1.677962             0.00837012748            0.000304252407           
       1.680603             0.00802358961            0.000300531278           
       1.683243             0.00882569581            0.000312863624           
       1.685884             0.00907012055            0.000318373295           
       1.688524             0.00842956096            0.000306061692           
       1.691164             0.00869214858            0.000309993344           
       1.693805             0.00912442193            0.000320176411           
       1.696445             0.00800505034            0.000295732282           
       1.699085              0.0081400339            0.000299405813           
       1.701726             0.00846198536            0.000301298587           
       1.704366             0.00831053516            0.000305855505           
       1.707007             0.00821016541             0.00029751569           
       1.709647             0.00878337976            0.000311549914           
       1.712287             0.00832567237            0.000298254653           
       1.714928             0.00834724463            0.000301643731           
       1.717568             0.00888950853            0.000308424969           
       1.720209             0.00844598605            0.000302488874           
       1.722849             0.00866556199            0.000306886918           
       1.725489              0.0082302297             0.00029431207           
       1.728130             0.00825844511            0.000300817666           
       1.730770             0.00853482758            0.000299345849           
       1.733410             0.00815769542            0.000296499374           
       1.736051             0.00912841874            0.000308776235           
       1.738691             0.00876658469            0.000305683322           
       1.741332              0.0084096351            0.000297552365           
       1.743972             0.00794173337            0.000289263432           
       1.746612             0.00784153942            0.000287499074           
       1.749253             0.00826420152            0.000296421049           
       1.751893             0.00847351356            0.000298350632           
       1.754533             0.00803967393            0.000286623981           
       1.757174              0.0082164431            0.000295175363           
       1.759814             0.00870203448            0.000299141409           
       1.762455             0.00808676384            0.000290827323           
       1.765095              0.0086444269            0.000296465246           
       1.767735             0.00898325048            0.000307354888           
       1.770376             0.00860656113            0.000296279479           
       1.773016             0.00867606665            0.000297942908           
       1.775657             0.00832712451            0.000292487965           
       1.778297             0.00812224803            0.000290280587           
       1.780937             0.00867786371            0.000298644778           
       1.783578             0.00812071219            0.000287542106           
       1.786218             0.00808042605            0.000291405045           
       1.788858             0.00843918208             0.00029040471           
       1.791499              0.0081250567            0.000290200347           
       1.794139             0.00847882531            0.000290976513           
       1.796780             0.00850934047            0.000293231701           
       1.799420             0.00887489806            0.000299082758           
       1.802060              0.0089727606            0.000297028453           
       1.804701             0.00842152717             0.00029162055           
       1.807341             0.00912192974            0.000300572491           
       1.809981             0.00864115289            0.000294487211           
       1.812622             0.00826197959            0.000286384846           
       1.815262             0.00871110212            0.000295114318           
       1.817903             0.00947583473            0.000303992974           
       1.820543              0.0087329676            0.000295440979           
       1.823183             0.00863271543            0.000289214327           
       1.825824             0.00826416485             0.00028722882           
       1.828464             0.00765791833            0.000275644514           
       1.831105             0.00816574187            0.000285739264           
       1.833745              0.0085893389            0.000292873991           
       1.836385              0.0080975674            0.000283260368           
       1.839026             0.00831291074            0.000291316436           
       1.841666             0.00862102832            0.000292814006           
       1.844306              0.0083860745            0.000292442284           
       1.846947             0.00803651756            0.000282603517           
       1.849587             0.00837366557            0.000292382991           
       1.852228             0.00858858803            0.000292962047           
       1.854868             0.00819241211            0.000291373113           
       1.857508             0.00830059084            0.000287874996           
       1.860149             0.00777219672            0.000280794457           
       1.862789             0.00858359286              0.0002963935           
       1.865429             0.00816132652            0.000289882415           
       1.868070             0.00815151649            0.000288707074           
       1.870710             0.00754537757            0.000278522206           
       1.873351             0.00841177495            0.000295955847           
       1.875991             0.00815922899            0.000293055967           
       1.878631             0.00798018627               0.000287129           
       1.881272              0.0086708297            0.000298594883           
       1.883912             0.00862883138            0.000301364236           
       1.886553             0.00828488864            0.000291754785           
       1.889193             0.00839084474            0.000297006221           
       1.891833             0.00777215814            0.000282594015           
       1.894474             0.00806029603            0.000290062329           
       1.897114             0.00842984854            0.000294336347           
       1.899754             0.00800060295            0.000289960479           
       1.902395             0.00824825314            0.000294476753           
       1.905035             0.00831595128            0.000294523997           
       1.907676             0.00841911629            0.000296689769           
       1.910316              0.0079060333            0.000289340332           
       1.912956              0.0078604651            0.000288493822           
       1.915597             0.00823249324            0.000292163952           
       1.918237             0.00807258473            0.000293704237           
       1.920878             0.00838800203            0.000294088731           
       1.923518              0.0082575702              0.0002995458           
       1.926158             0.00787466773            0.000285796633           
       1.928799             0.00790607991            0.000290171457           
       1.931439              0.0075325771            0.000280964503           
       1.934079             0.00769234212            0.000286803786           
       1.936720             0.00795321382            0.000289910013           
       1.939360              0.0079583511            0.000292798631           
       1.942001             0.00791128793            0.000290808532           
       1.944641             0.00813522575            0.000293624901           
       1.947281             0.00749344491             0.00028316659           
       1.949922             0.00787689022            0.000290684503           
       1.952562             0.00772810859            0.000290403758           
       1.955202             0.00792303985            0.000286655706           
       1.957843             0.00775120243            0.000292536946           
       1.960483             0.00815650576            0.000295301118           
       1.963124             0.00782270991            0.000288981111           
       1.965764             0.00813775833              0.0002948482           
       1.968404             0.00774402533            0.000292770266           
       1.971045             0.00739363434            0.000278899195           
       1.973685             0.00785293226            0.000292795236           
       1.976326             0.00806828397            0.000295488825           
       1.978966             0.00776868046            0.000291322704           
       1.981606              0.0082043808            0.000296214451           
       1.984247             0.00745859675            0.000284893405           
       1.986887             0.00805631568            0.000298857996           
       1.989527             0.00772454327            0.000286542889           
       1.992168             0.00739683358            0.000287163987           
       1.994808             0.00749496776             0.00028570038           
       1.997449             0.00725747361            0.000280725145           
       2.000089             0.00731017252            0.000280083523           
       2.002729             0.00746622681            0.000289543381           
       2.005370             0.00785199196            0.000291284782           
       2.008010             0.00741726826            0.000286865228           
       2.010650             0.00753168962            0.000288242461           
       2.013291             0.00740959898            0.000287523972           
       2.015931              0.0078063425             0.00029300905           
       2.018572             0.00769261611             0.00029472991           
       2.021212             0.00776874677            0.000293526558           
       2.023852             0.00767919393            0.000293362911           
       2.026493             0.00744632674            0.000287614665           
       2.029133             0.00741231292            0.000284767982           
       2.031774             0.00806921283            0.000299999978           
       2.034414             0.00762951971            0.000289971077           
       2.037054              0.0074246913            0.000289659093           
       2.039695             0.00706608774            0.000277011395           
       2.042335             0.00739697515             0.00028824733           
       2.044975             0.00740320956            0.000286064095           
       2.047616             0.00742555934            0.000287723224           
       2.050256             0.00715350782            0.000279081462           
       2.052897             0.00765005447            0.000297152545           
       2.055537             0.00771075586            0.000290195522           
       2.058177             0.00784368116            0.000295271541           
       2.060818             0.00704230344            0.000280621444           
       2.063458             0.00738165551            0.000287698854           
       2.066098             0.00744447138            0.000287638218           
       2.068739             0.00796902751            0.000300702558           
       2.071379             0.00783447757            0.000293750174           
       2.074020             0.00745752252            0.000290520786           
       2.076660              0.0072595191            0.000284695086           
       2.079300             0.00732541382            0.000285942824           
       2.081941             0.00701074527            0.000281434608           
       2.084581             0.00712335922            0.000283896089           
       2.087222             0.00745492358            0.000290625918           
       2.089862             0.00676560978            0.000273412992           
       2.092502             0.00747783841            0.000292667158           
       2.095143             0.00711077119            0.000281314841           
       2.097783             0.00763792117            0.000295992479           
       2.100423              0.0070365683            0.000278653978           
       2.103064             0.00735291186            0.000289766982           
       2.105704             0.00719573396            0.000285556554           
       2.108345             0.00694301096            0.000281784945           
       2.110985             0.00734438539            0.000285744759           
       2.113625             0.00712130436            0.000285804849           
       2.116266             0.00739153325            0.000289021872           
       2.118906             0.00692382075            0.000279524873           
       2.121546             0.00723687377            0.000285547317           
       2.124187             0.00766952675            0.000298025011           
       2.126827             0.00709153991            0.000282080955           
       2.129468             0.00795101725            0.000301802968           
       2.132108             0.00690393321             0.00028064729           
       2.134748             0.00711901444            0.000283911311           
       2.137389             0.00733095708            0.000290519602           
       2.140029              0.0072002703             0.00028721926           
       2.142670             0.00746397559            0.000292909401           
       2.145310             0.00676566137             0.00027993641           
       2.147950             0.00733843324            0.000292672292           
       2.150591             0.00673939195            0.000277900319           
       2.153231             0.00705915547            0.000288621576           
       2.155871             0.00737456451            0.000290738602           
       2.158512             0.00684208248            0.000285091752           
       2.161152             0.00718714886            0.000284893422           
       2.163793             0.00695038038            0.000284720072           
       2.166433             0.00700847817            0.000280949664           
       2.169073             0.00723939461             0.00029220725           
       2.171714             0.00703891594            0.000282266855           
       2.174354             0.00712345317            0.000288295948           
       2.176995             0.00662518624            0.000275724102           
       2.179635             0.00693728172            0.000287483316           
       2.182275             0.00747410435            0.000292475661           
       2.184916             0.00742478641            0.000297670118           
       2.187556              0.0069915582            0.000284204926           
       2.190196             0.00723932743            0.000293742528           
       2.192837             0.00675206712            0.000280578309           
       2.195477              0.0077683342            0.000303856742           
       2.198118             0.00715395985            0.000286210389           
       2.200758             0.00713683938            0.000290307034           
       2.203398              0.0078986937            0.000300344541           
       2.206039             0.00723036418            0.000291749488           
       2.208679             0.00704741578            0.000285215242           
       2.211319             0.00726096767            0.000290866999           
       2.213960             0.00689317717            0.000280391338           
       2.216600             0.00756011241             0.00030056124           
       2.219241             0.00731572634            0.000291364941           
       2.221881             0.00724878221             0.00029154055           
       2.224521             0.00759272452             0.00029734203           
       2.227162             0.00773310466             0.00030479148           
       2.229802             0.00731396664            0.000291604947           
       2.232443             0.00749108224            0.000296274797           
       2.235083             0.00718425704            0.000288404051           
       2.237723              0.0072761192            0.000292466307           
       2.240364             0.00748163244            0.000295059423           
       2.243004             0.00728929953            0.000292122002           
       2.245644              0.0069065554             0.00028369264           
       2.248285             0.00706228654            0.000288735465           
       2.250925             0.00717501359            0.000289669802           
       2.253566             0.00637405429            0.000273690913           
       2.256206             0.00692698623            0.000284460388           
       2.258846             0.00683140066            0.000282493453           
       2.261487             0.00732089613             0.00029294511           
       2.264127             0.00775070527            0.000304273836           
       2.266767             0.00690406151            0.000282533201           
       2.269408             0.00652443089            0.000277917648           
       2.272048             0.00698616548            0.000285814654           
       2.274689             0.00717791235            0.000290849653           
       2.277329             0.00766224728            0.000300102825           
       2.279969             0.00710711711            0.000289903241           
       2.282610             0.00768601936            0.000298538968           
       2.285250             0.00687711398            0.000286834001           
       2.287891             0.00763499309            0.000299176224           
       2.290531             0.00696144668            0.000287083931           
       2.293171             0.00720277877              0.0002920033           
       2.295812             0.00711619144            0.000288702368           
       2.298452             0.00694033976            0.000286938991           
       2.301092             0.00706433897            0.000291329839           
       2.303733             0.00678622507            0.000279889834           
       2.306373             0.00727232262            0.000296827546           
       2.309014             0.00740702099            0.000293791216           
       2.311654             0.00710829133             0.00029053727           
       2.314294             0.00682509437            0.000284069373           
       2.316935             0.00706423524             0.00029014543           
       2.319575              0.0072632415            0.000293102202           
       2.322215             0.00674998382            0.000286582805           
       2.324856             0.00707969029             0.00028612806           
       2.327496             0.00743769917            0.000300460853           
       2.330137             0.00712048838            0.000288562061           
       2.332777             0.00723673454            0.000294089712           
       2.335417             0.00705435241            0.000289488522           
       2.338058             0.00682571703            0.000285898333           
       2.340698             0.00704062282             0.00028750529           
       2.343339             0.00725508443            0.000297420559           
       2.345979             0.00741176318            0.000294616225           
       2.348619             0.00707570066            0.000293295684           
       2.351260             0.00718863725            0.000289342887           
       2.353900             0.00707932129            0.000293216707           
       2.356540             0.00737201643            0.000295101649           
       2.359181             0.00695058201            0.000290374208           
       2.361821             0.00705379038            0.000288957953           
       2.364462             0.00693378774            0.000291277514           
       2.367102             0.00723434715            0.000288919878           
       2.369742             0.00731618379            0.000300961826           
       2.372383             0.00722724899            0.000290407179           
       2.375023             0.00732465545            0.000299974773           
       2.377663             0.00722720727            0.000291640551           
       2.380304             0.00738265683            0.000298849137           
       2.382944             0.00728580976            0.000293978672           
       2.385585             0.00684184233            0.000287574142           
       2.388225             0.00738283136            0.000297377487           
       2.390865             0.00707969556            0.000291954106           
       2.393506             0.00693442363            0.000287611618           
       2.396146             0.00753824589            0.000300866255           
       2.398787             0.00704971989            0.000291208449           
       2.401427             0.00670555453            0.000282286642           
       2.404067              0.0069557085             0.00029189203           
       2.406708             0.00667558403            0.000282359844           
       2.409348             0.00647991963            0.000280283776           
       2.411988             0.00741852848            0.000298939142           
       2.414629             0.00667182638            0.000284423144           
       2.417269             0.00748678567             0.00029855767           
       2.419910             0.00760626694            0.000304725543           
       2.422550             0.00716604714            0.000291286167           
       2.425190             0.00697451855            0.000296414896           
       2.427831             0.00680898422            0.000281861493           
       2.430471             0.00708032008             0.00029582445           
       2.433112             0.00693806123            0.000285927646           
       2.435752             0.00703605072            0.000295229237           
       2.438392              0.0072706833            0.000295067093           
       2.441033              0.0077315655            0.000305669735           
       2.443673             0.00708036651            0.000293295077           
       2.446313             0.00707404271            0.000291602108           
       2.448954             0.00721376892             0.00029705174           
       2.451594             0.00705478313            0.000291997499           
       2.454235             0.00707996927            0.000291608071           
       2.456875             0.00789010299            0.000309399412           
       2.459515             0.00717230311            0.000295444958           
       2.462156             0.00767410717             0.00030403016           
       2.464796             0.00771460621            0.000310208357           
       2.467436             0.00792449722            0.000307807489           
       2.470077             0.00840905733            0.000321451014           
       2.472717             0.00790255045            0.000307720447           
       2.475358             0.00752452396             0.00030367211           
       2.477998             0.00764016385            0.000304364161           
       2.480638             0.00721006481            0.000296391482           
       2.483279             0.00747535926            0.000303091595           
       2.485919             0.00775516574            0.000306550338           
       2.488560             0.00730414083            0.000298736661           
       2.491200             0.00717676687             0.00029571444           
       2.493840             0.00745031626            0.000299657022           
       2.496481             0.00714450531            0.000297279919           
       2.499121             0.00694521376            0.000289201826           
       2.501761             0.00731833994            0.000301909765           
       2.504402             0.00744818675            0.000298739412           
       2.507042             0.00757062059            0.000306191434           
       2.509683             0.00725433329            0.000296997548           
       2.512323              0.0072907386            0.000298907683           
       2.514963              0.0128545497            0.000397688115           
       2.517604              0.0286668498            0.000591562451           
       2.520244              0.0354869179            0.000658324019           
       2.522884             0.00904873326            0.000331702237           
       2.525525             0.00931990592            0.000339400927           
       2.528165              0.0172779681            0.000460008219           
       2.530806              0.0234691553            0.000534114898           
       2.533446              0.0104650468            0.000359831324           
       2.536086              0.0108867159            0.000363928883           
       2.538727              0.0105644989            0.000360801098           
       2.541367              0.0110578577            0.000368074115           
       2.544008             0.00771474947            0.000307700666           
       2.546648             0.00718472674            0.000297279884           
       2.549288             0.00671886275            0.000287521809           
       2.551929             0.00681858116             0.00029060434           
       2.554569             0.00741090528            0.000300195235           
       2.557209              0.0072769587            0.000300831007           
       2.559850             0.00746886766            0.000301267352           
       2.562490              0.0067804109            0.000289136832           
       2.565131             0.00721577343            0.000298793964           
       2.567771             0.00668966398             0.00028617035           
       2.570411             0.00726394779             0.00030182961           
       2.573052             0.00667478336            0.000285953078           
       2.575692             0.00697024852            0.000292988694           
       2.578332             0.00713411817             0.00029553713           
       2.580973             0.00738790262            0.000303186287           
       2.583613             0.00699720025            0.000292371697           
       2.586254             0.00683942414            0.000291613896           
       2.588894             0.00683403431            0.000289944019           
       2.591534             0.00661182419            0.000285715844           
       2.594175             0.00718805929            0.000299635447           
       2.596815             0.00692345991             0.00029133469           
       2.599456             0.00695237676            0.000294331053           
       2.602096             0.00664930805            0.000286767133           
       2.604736             0.00703587678            0.000295758869           
       2.607377             0.00711986331            0.000296381105           
       2.610017             0.00678064548             0.00028913352           
       2.612657             0.00727214567            0.000301544392           
       2.615298              0.0078709674            0.000310645425           
       2.617938             0.00689098377            0.000293206948           
       2.620579             0.00678501886             0.00028856723           
       2.623219             0.00717187941            0.000301425441           
       2.625859              0.0068647148            0.000289929746           
       2.628500                0.00670091            0.000291027795           
       2.631140             0.00699737914            0.000292151665           
       2.633780             0.00714557066            0.000299021014           
       2.636421             0.00702513635            0.000293792428           
       2.639061             0.00704368857            0.000297697436           
       2.641702             0.00738035472            0.000301471344           
       2.644342             0.00740555258            0.000304462759           
       2.646982             0.00713063404            0.000298504344           
       2.649623             0.00712587567            0.000300193624           
       2.652263             0.00717723519             0.00029887618           
       2.654904             0.00696637874            0.000296051992           
       2.657544             0.00700706132            0.000294826201           
       2.660184             0.00750995191             0.00030561302           
       2.662825             0.00732306075            0.000302509708           
       2.665465             0.00767139844            0.000310193543           
       2.668105             0.00693743423            0.000295098396           
       2.670746             0.00698283457            0.000293557324           
       2.673386             0.00758125649            0.000309584677           
       2.676027             0.00749778526            0.000305258402           
       2.678667             0.00746241603            0.000306120756           
       2.681307             0.00740330909            0.000302508391           
       2.683948             0.00789710844            0.000315537048           
       2.686588             0.00708752169            0.000296182749           
       2.689229             0.00777025021            0.000312903482           
       2.691869              0.0075488538            0.000305335076           
       2.694509             0.00758626106            0.000310288341           
       2.697150             0.00713935792            0.000296205917           
       2.699790             0.00730613997            0.000305870082           
       2.702430             0.00731593422            0.000300206681           
       2.705071             0.00708586819            0.000299492128           
       2.707711             0.00654973289            0.000285083834           
       2.710352             0.00722255105            0.000301072463           
       2.712992             0.00666208966            0.000290095294           
       2.715632             0.00728244002            0.000301575782           
       2.718273             0.00676076597            0.000291538113           
       2.720913             0.00691572156            0.000295352475           
       2.723553             0.00708291489            0.000297862707           
       2.726194              0.0071019686            0.000299701548           
       2.728834             0.00733079936            0.000301784856           
       2.731475             0.00707182082            0.000298996788           
       2.734115             0.00685638672            0.000292652987           
       2.736755             0.00664061192            0.000289915073           
       2.739396              0.0069941337            0.000295958676           
       2.742036             0.00692190729            0.000296436192           
       2.744677              0.0070593095            0.000299801599           
       2.747317             0.00797114766            0.000317028444           
       2.749957             0.00727244049            0.000305012141           
       2.752598             0.00704880179            0.000301190002           
       2.755238             0.00718069823            0.000303857852           
       2.757878             0.00749168692            0.000309484314           
       2.760519             0.00726225491            0.000301491227           
       2.763159             0.00721712128            0.000305439851           
       2.765800              0.0071885936            0.000299671743           
       2.768440             0.00699357482            0.000299472705           
       2.771080             0.00683124959            0.000293482621           
       2.773721             0.00681095986             0.00029664152           
       2.776361             0.00675887717            0.000292331326           
       2.779001             0.00678002707            0.000295866024           
       2.781642             0.00668106528            0.000291694797           
       2.784282             0.00701221682            0.000298940649           
       2.786923             0.00644360277            0.000284384618           
       2.789563             0.00713895293            0.000299937333           
       2.792203             0.00674364072             0.00029337034           
       2.794844             0.00682317332            0.000293752496           
       2.797484             0.00679119217            0.000293476185           
       2.800125             0.00641243569            0.000284806421           
       2.802765              0.0062304768            0.000285940831           
       2.805405             0.00697710816             0.00029822121           
       2.808046             0.00663470208            0.000295270623           
       2.810686             0.00639170961            0.000286725021           
       2.813326             0.00686529715            0.000300834021           
       2.815967             0.00651262918            0.000291158758           
       2.818607             0.00656510446            0.000295251631           
       2.821248             0.00634096538            0.000286549695           
       2.823888             0.00704998171            0.000307012178           
       2.826528             0.00670269694            0.000297568906           
       2.829169             0.00668509968            0.000295866025           
       2.831809             0.00642449888             0.00029029605           
       2.834449              0.0064517086            0.000285832355           
       2.837090             0.00658542996            0.000290517186           
       2.839730             0.00677945619            0.000292672591           
       2.842371             0.00717269675            0.000303138633           
       2.845011               0.006919775            0.000297082012           
       2.847651             0.00663281096            0.000291390923           
       2.850292             0.00628804096            0.000282104655           
       2.852932             0.00660596049            0.000289666751           
       2.855573              0.0067406115            0.000295173854           
       2.858213             0.00676926182            0.000292481532           
       2.860853             0.00710188636            0.000301823605           
       2.863494             0.00699140635            0.000300187833           
       2.866134             0.00702816963            0.000305197734           
       2.868774             0.00737829798            0.000307920699           
       2.871415             0.00652091358            0.000292342721           
       2.874055              0.0064448687            0.000292072754           
       2.876696             0.00680452542            0.000297409313           
       2.879336             0.00669087674             0.00029687286           
       2.881976             0.00621270128            0.000285832517           
       2.884617             0.00712101821            0.000304314849           
       2.887257             0.00703837349            0.000300434305           
       2.889897             0.00668855274            0.000296230009           
       2.892538             0.00668332088             0.00029406103           
       2.895178               0.006500068             0.00028704416           
       2.897819             0.00672035754            0.000294869484           
       2.900459             0.00614011968            0.000279518994           
       2.903099             0.00679196513            0.000295516922           
       2.905740             0.00659292047            0.000287904545           
       2.908380             0.00710874977            0.000302940585           
       2.911021             0.00730269163            0.000307628903           
       2.913661             0.00632680146            0.000283186104           
       2.916301             0.00664341105            0.000294313446           
       2.918942             0.00695958128             0.00029669093           
       2.921582             0.00725293877             0.00030605711           
       2.924222             0.00678116152            0.000294219327           
       2.926863             0.00672096625            0.000293688577           
       2.929503             0.00641859867            0.000290192259           
       2.932144             0.00726940378            0.000303761824           
       2.934784             0.00735329218            0.000306807839           
       2.937424              0.0080174823            0.000320957166           
       2.940065             0.00677482242            0.000295277495           
       2.942705             0.00668272913            0.000294154802           
       2.945346             0.00675384269            0.000293969136           
       2.947986             0.00693479938            0.000298922976           
       2.950626             0.00786475828            0.000319314271           
       2.953267              0.0104427496            0.000364036313           
       2.955907              0.0100422551            0.000361707111           
       2.958547             0.00859000912            0.000331102212           
       2.961188             0.00798502033            0.000322016509           
       2.963828             0.00762194507            0.000312827454           
       2.966469             0.00637715797            0.000286215859           
       2.969109             0.00692452255            0.000299771595           
       2.971749             0.00757173326            0.000312545992           
       2.974390              0.0088021263             0.00033790931           
       2.977030              0.0103114729            0.000365039111           
       2.979670             0.00996667919            0.000356570373           
       2.982311             0.00754071788            0.000312391611           
       2.984951             0.00692669267            0.000300177027           
       2.987592              0.0073708736            0.000308606912           
       2.990232             0.00754038396            0.000312932352           
       2.992872             0.00770876782            0.000313931617           
       2.995513             0.00863012242            0.000334772015           
       2.998153             0.00934020721            0.000350519198           
       3.000794               0.015290974            0.000441962127           
       3.003434              0.0370689298            0.000695429834           
       3.006074              0.0404660024            0.000728938431           
       3.008715              0.0211605647            0.000531133651           
       3.011355              0.0214465133            0.000540271096           
       3.013995              0.0184385463            0.000498502938           
       3.016636              0.0311135627             0.00064877302           
       3.019276               0.134200143             0.00137959259           
       3.021917                0.37351651             0.00226256195           
       3.024557               0.135488014             0.00137356566           
       3.027197              0.0975541765             0.00118508789           
       3.029838              0.0914609065             0.00114199351           
       3.032478              0.0755928567             0.00104441633           
       3.035118              0.0499385539            0.000853259247           
       3.037759              0.0952051666             0.00118020513           
       3.040399               0.101073154             0.00122994707           
       3.043040              0.0511589997            0.000883542218           
       3.045680               0.059466239              0.0009379094           
       3.048320              0.0727131796             0.00105377021           
       3.050961                0.07414168             0.00107474079           
       3.053601               0.111012462             0.00130928299           
       3.056242              0.0809831564              0.0011254488           
       3.058882              0.0955977135             0.00124098072           
       3.061522               0.285960634             0.00213144901           
       3.064163              0.0718736308             0.00107052336           
       3.066803              0.0198428061            0.000573364393           
       3.069443               0.022970988            0.000612797318           
       3.072084              0.0761037121              0.0011253272           
       3.074724              0.0672393664             0.00106400739           
       3.077365              0.0129624414            0.000466836921           
       3.080005              0.0087215495            0.000387175729           
       3.082645             0.00960949397            0.000408476644           
       3.085286             0.00799275736            0.000372601404           
       3.087926             0.00785482871            0.000371722609           
       3.090566             0.00701624131            0.000354938824           
       3.093207             0.00752121035             0.00036351924           
       3.095847             0.00700069607             0.00035806623           
       3.098488             0.00780585201            0.000377411145           
       3.101128             0.00750676986            0.000372126383           
       3.103768             0.00802171329            0.000386845301           
       3.106409             0.00890498191            0.000410316954           
       3.109049             0.00968409924            0.000431216781           
       3.111690              0.0110018484            0.000457810234           
       3.114330              0.0139401881            0.000519917137           
       3.116970              0.0167747824            0.000578266834           
       3.119611              0.0172664189            0.000582862154           
       3.122251              0.0123918737            0.000497823542           
       3.124891             0.00873572277            0.000420010039           
       3.127532             0.00815305426            0.000413070409           
       3.130172             0.00779530823            0.000395597235           
       3.132813             0.00870485885             0.00042654776           
       3.135453             0.00809043692            0.000419893011           
       3.138093             0.00673506986            0.000374020047           
       3.140734             0.00649789985            0.000374212857           
       3.143374              0.0064759256            0.000379290375           
       3.146014             0.00649039362            0.000376957484           
       3.148655             0.00572462161            0.000356809272           
       3.151295             0.00667982885            0.000388480671           
       3.153936             0.00661225867            0.000392216726           
       3.156576             0.00737534434            0.000409475618           
       3.159216             0.00611949182            0.000376038349           
       3.161857             0.00745714776            0.000420199987           
       3.164497              0.0069585146            0.000414467007           
       3.167138             0.00613055978            0.000379695378           
       3.169778             0.00605249954            0.000384082636           
       3.172418             0.00622299189            0.000391730395           
       3.175059             0.00523885504             0.00036412669           
       3.177699             0.00609458691             0.00039118995           
       3.180339             0.00597442036            0.000390776229           
       3.182980             0.00561683271            0.000384016311           
       3.185620             0.00573539658            0.000392288649           
       3.188261             0.00570933246            0.000386268442           
       3.190901             0.00653109664            0.000419498689           
       3.193541             0.00601372653            0.000403866772           
       3.196182             0.00530250111            0.000387123996           
       3.198822             0.00633898095            0.000418140791           
       3.201463             0.00647115152            0.000427940865           
       3.204103              0.0054403148            0.000397603301           
       3.206743             0.00578261563            0.000413386706           
       3.209384             0.00612160851            0.000423435048           
       3.212024             0.00571526094            0.000410593554           
       3.214664             0.00550974803            0.000410827835           
       3.217305             0.00586722494            0.000433836665           
       3.219945             0.00608822711            0.000438236403           
       3.222586             0.00601172544            0.000437938837           
       3.225226             0.00583784702            0.000441281384           
       3.227866             0.00626166979            0.000460554678           
       3.230507             0.00561652678            0.000441389206           
       3.233147             0.00498942453            0.000409865481           
       3.235787             0.00568943807            0.000437793025           
       3.238428             0.00658431027            0.000479283526           
       3.241068             0.00643032253            0.000483250283           
       3.243709             0.00610488281            0.000468249334           
       3.246349             0.00614507997            0.000467159894           
       3.248989              0.0059415393            0.000469857521           
       3.251630             0.00564851519             0.00046015167           
       3.254270             0.00670533529            0.000516764521           
       3.256911             0.00532970465            0.000449173084           
       3.259551             0.00566100952            0.000473152711           
       3.262191             0.00569258394            0.000478835442           
       3.264832             0.00577949666            0.000487004059           
       3.267472              0.0056643229            0.000488964409           
       3.270112             0.00560206918            0.000487654293           
       3.272753             0.00621511031            0.000519956262           
       3.275393             0.00546083996            0.000489893656           
       3.278034             0.00490420978            0.000473712377           
       3.280674             0.00534666884            0.000496055725           
       3.283314             0.00546151771            0.000504125405           
       3.285955             0.00566141538            0.000522909035           
       3.288595             0.00558261711            0.000525050107           
       3.291235             0.00615997556            0.000554772642           
       3.293876             0.00541856929            0.000523397676           
       3.296516             0.00668785652            0.000593337598           
       3.299157             0.00587906937            0.000564712869           
       3.301797             0.00609677956            0.000575318259           
       3.304437             0.00503163607            0.000532448783           
       3.307078             0.00532899271            0.000553279289           
       3.309718             0.00611137553            0.000598418566           
       3.312359             0.00567535194            0.000588328244           
       3.314999             0.00525001181            0.000571788835           
       3.317639             0.00430392608            0.000523286353           
       3.320280             0.00537517447            0.000593334307           
       3.322920             0.00576022256            0.000623408212           
       3.325560             0.00597218074            0.000647031641           
       3.328201             0.00574131425            0.000637084008           
       3.330841              0.0046423663            0.000586808968           
       3.333482             0.00461408509            0.000592446857           
       3.336122             0.00559593327             0.00066662401           
       3.338762             0.00634376076            0.000716262547           
       3.341403             0.00499896586            0.000641725479           
       3.344043             0.00562808149            0.000706897941           
       3.346683              0.0055653128            0.000710074576           
       3.349324             0.00507669436            0.000688685715           
       3.351964             0.00551774768            0.000741060471           
       3.354605             0.00525143711            0.000731142557           
       3.357245             0.00583349749            0.000797683531           
       3.359885             0.00618306901             0.00082153153           
       3.362526             0.00403378922            0.000697486329           
       3.365166             0.00383875665            0.000672015242           
       3.367807             0.00467544306            0.000793903348           
       3.370447             0.00521781645            0.000839013585           
       3.373087             0.00400882051            0.000776156562           
       3.375728             0.00514788551            0.000872891056           
       3.378368              0.0039271107             0.00082382891           
       3.381008             0.00416698009            0.000841216447           
       3.383649             0.00470696663            0.000967578444           
       3.386289             0.00449575896            0.000946011042           
       3.388930             0.00618826206             0.00121893082           
       3.391570             0.00451791961             0.00104194795           
       3.394210             0.00514187326             0.00119102472           
       3.396851             0.00475110726             0.00124016819           
       3.399491              0.0052769906             0.00133072328           
       3.402131             0.00318744404             0.00122423187           
       3.404772             0.00497822881             0.00153061482           
       3.407412             0.00413529097             0.00173104845           
       3.410053             0.00373514865             0.00171307716           
       3.412693              0.0103976577             0.00404378228           
       3.415333             0.00426105806             0.00317176466           
