################################################################################
# EDF_DataBlockID                     0.Image.Psd
# EDF_BinarySize                      2105344
# EDF_HeaderSize                      2560
# ByteOrder                           LowByteFirst
# DataType                            FloatValue
# Dim_1                               512
# Dim_2                               1028
# Image                               0
# HeaderID                            EH:000000:000000:000000
# Size                                2105344
# Center_1                            304.9000
# Center_2                            588.7000
# Comment                             Xenocs_Cell_Window - front_window_open_only
# DDummy                              0.6
# Date                                2025-10-18T01:23:21
# Delta                               21.910000
# Dummy                               -1.5
# ExposureTime                        360
# Gamma                               15.360000
# Intensity1                          9.30121e-10
# PSize_1                             7.5e-05
# PSize_2                             7.5e-05
# Pressure                            0.0347862
# SampleDistance                      0.115750
# SampleEnvKind                       large
# SampleEnvPN                         ElectroChemical cell
# SampleEnvSN                         1141
# Thickness                           0
# Wavelength                          1.541891e-10
# Wavelength                          1.54189e-10
# aux                                 0
# aux_dial                            0.002375
# beamx                               588.429
# beamx_dial                          588.429
# beamz                               657.855
# beamz_dial                          657.855
# det0x                               -0.000396875
# det0x_dial                          6.36905
# det0xvd                             -0.0005
# det0xvd_dial                        -0.0005
# det0y                               450.002
# det0y_dial                          481.635
# det0z                               0
# det0z_dial                          1.2295
# det0zvd                             0
# det0zvd_dial                        0
# mag                                 1.818
# mag_dial                            1.818
# om                                  0.2499
# om_dial                             -0.610199
# phi                                 -0.0120535
# phi_dial                            0
# ry                                  0.599993
# ry_dial                             0.599993
# s1bot                               0.8
# s1bot_dial                          -1.66094
# s1hl                                0.8
# s1hl_dial                           -0.608437
# s1hr                                0.8
# s1hr_dial                           0.970938
# s1top                               0.8
# s1top_dial                          -0.461562
# s2bot                               0.45
# s2bot_dial                          1.36109
# s2hl                                0.45
# s2hl_dial                           -0.83375
# s2hr                                0.45
# s2hr_dial                           -0.118594
# s2top                               0.45
# s2top_dial                          1.44734
# w2theta                             32
# w2theta_dial                        32
# waxsch                              19.2605
# waxsch_dial                         -32.7238
# waxsh                               137.085
# waxsh_dial                          -43.5335
# waxsth                              26.0607
# waxsth_dial                         -19.4068
# waxsz                               67.0407
# waxsz_dial                          -23.7962
# wind                                65.9854
# wind_dial                           66.0041
# wpsi                                124
# wpsi_dial                           124
# wstod                               115
# wstod_dial                          115
# x                                   0
# x_dial                              1.00969
# z                                   0
# z_dial                              13.3172
# CountCutoff                         6807993
# DetectorModel                       Dectris EIGER2 Si 500K, S/N E-01-0554
# ThresholdSetting                    4023.88989258
# Saturation                          0
# FlatField                           Corrected
# BackgroundReductionExtra            0.02
# BackgroundCorrectionConstant        0.0026712
# Detector                            0
# Monitor                             0
# Pil_Roi0                            0
# SumForIntensity1                    3.34844e+08
# TransmittedFlux                     930121
# det                                 0
# mon                                 0
# pilai0                              3.34844e+08
# pilai1                              721000
# pilct0                              5.77148e+08
# pilct1                              721000
# pilroi0                             0
# pilroi1                             0
# sec                                 1
# title                               20251017__1_00066.edf
# usaxs0                              0
# Operation                           Azimuthal average I(q)
# Error_model                         ErrorModel.poisson
# Geometrical_correction              True
# Transmission_correction             True
# Thickness_correction                False
# Binning mode                        Uniform
# Binning factor                      1.0
# Psi                                 0.0
# Omega                               0.2499
# MaskInvalidPixels                   True
# DetectorEdge                        3
# MaskFiles                           ['20251017__1_00233_mask.edf']
################################################################################
    q(A⁻¹)                Intensity(a.u.)            Sigma_I(a.u.)            
       0.690460                 0.0148513              0.0110183714           
       0.693100             0.00608674701              0.0031536649           
       0.695741             0.00439755085             0.00226461549           
       0.698381             0.00295210245              0.0017354053           
       0.701021             0.00788878939             0.00231528924           
       0.703662             0.00959747484             0.00236385537           
       0.706302             0.00797774072              0.0020814128           
       0.708942              0.0029353664             0.00112148469           
       0.711583              0.0050390677             0.00146912158           
       0.714223             0.00700997003             0.00150995828           
       0.716864             0.00695174024             0.00153442385           
       0.719504              0.0054675596             0.00125942469           
       0.722144             0.00667358669             0.00134381903           
       0.724785             0.00671961487             0.00132634416           
       0.727425             0.00736711308             0.00128816226           
       0.730065             0.00613804896             0.00120984195           
       0.732706             0.00647945678               0.001117791           
       0.735346             0.00686523372             0.00124282881           
       0.737987             0.00828912605             0.00118202311           
       0.740627             0.00561671673             0.00106591028           
       0.743267             0.00532857669            0.000893039215           
       0.745908             0.00564127107            0.000984773961           
       0.748548             0.00547356203            0.000904718144           
       0.751189             0.00618669358            0.000952788717           
       0.753829             0.00564161881            0.000918056217           
       0.756469             0.00536107608            0.000841731196           
       0.759110             0.00574048839            0.000900918391           
       0.761750             0.00673776097            0.000893278765           
       0.764390             0.00648019957            0.000940379533           
       0.767031             0.00619808504            0.000832205528           
       0.769671             0.00663928499             0.00091345392           
       0.772312             0.00675338484            0.000839523699           
       0.774952             0.00628119103            0.000867979614           
       0.777592             0.00677687112            0.000824628266           
       0.780233             0.00708483981            0.000888864316           
       0.782873             0.00564752841            0.000725702201           
       0.785513             0.00671312381             0.00084165858           
       0.788154             0.00643435127            0.000756852135           
       0.790794             0.00614442138            0.000765468722           
       0.793435             0.00611532069            0.000733482074           
       0.796075             0.00651450125            0.000761042587           
       0.798715             0.00584641961            0.000716847803           
       0.801356             0.00492923184            0.000640605639           
       0.803996             0.00667043485            0.000757118035           
       0.806637             0.00655495438            0.000709454378           
       0.809277             0.00753389987            0.000795699249           
       0.811917             0.00628162003             0.00068754226           
       0.814558             0.00719322733            0.000753720299           
       0.817198             0.00663278641            0.000690108544           
       0.819838              0.0065113854            0.000713238835           
       0.822479             0.00607183312            0.000634715331           
       0.825119             0.00607026851            0.000681759445           
       0.827760             0.00694585391            0.000675746156           
       0.830400             0.00586978039            0.000654513226           
       0.833040             0.00548285613            0.000590371204           
       0.835681              0.0062343889            0.000659255555           
       0.838321             0.00716961485            0.000661716547           
       0.840961             0.00577055323            0.000620512208           
       0.843602             0.00617481962            0.000604625357           
       0.846242             0.00554895447             0.00059340163           
       0.848883             0.00565128238            0.000582544672           
       0.851523             0.00647187442            0.000628077684           
       0.854163             0.00644996482            0.000619729218           
       0.856804             0.00539510586            0.000552288923           
       0.859444             0.00609720166            0.000591347767           
       0.862085             0.00758196419            0.000649837444           
       0.864725             0.00637194275            0.000593543315           
       0.867365             0.00618011962            0.000580354757           
       0.870006             0.00675092023            0.000615026821           
       0.872646             0.00575937379            0.000543345081           
       0.875286             0.00641908726            0.000593165681           
       0.877927             0.00690811122            0.000589168001           
       0.880567             0.00633832061             0.00057537243           
       0.883208             0.00690265037             0.00058309962           
       0.885848             0.00763483254            0.000629149252           
       0.888488              0.0061101053            0.000535151523           
       0.891129             0.00677689072            0.000592439828           
       0.893769             0.00750711485            0.000589401887           
       0.896410              0.0066573058            0.000572137063           
       0.899050             0.00641652364            0.000541584217           
       0.901690             0.00647596544            0.000555444107           
       0.904331             0.00635553035            0.000531044017           
       0.906971              0.0078655053             0.00061002586           
       0.909611             0.00789637723            0.000586670227           
       0.912252             0.00702976274            0.000563133654           
       0.914892             0.00583267431            0.000499957565           
       0.917533             0.00729561225            0.000571769076           
       0.920173              0.0058125957            0.000489560145           
       0.922813             0.00679342584            0.000553081491           
       0.925454              0.0065359906            0.000514865587           
       0.928094             0.00550203561            0.000482528799           
       0.930734             0.00690242032            0.000527559952           
       0.933375             0.00707958752            0.000545677203           
       0.936015             0.00680850195            0.000512019331           
       0.938656             0.00629050923            0.000512800594           
       0.941296             0.00755206781              0.0005416444           
       0.943936             0.00624210115            0.000501301096           
       0.946577             0.00589835085            0.000469302338           
       0.949217             0.00807688444            0.000568567941           
       0.951858             0.00740995463            0.000514844125           
       0.954498             0.00629823197            0.000499356824           
       0.957138             0.00672691085            0.000496020844           
       0.959779             0.00710331298            0.000520858105           
       0.962419             0.00667662013            0.000486134323           
       0.965059             0.00830965283            0.000557741977           
       0.967700             0.00738423681            0.000508766415           
       0.970340             0.00731205399            0.000520499776           
       0.972981             0.00714315316            0.000496719309           
       0.975621             0.00738559377            0.000515653816           
       0.978261             0.00731271995            0.000489565101           
       0.980902             0.00679370324             0.00049434033           
       0.983542             0.00709241303            0.000490384327           
       0.986182             0.00773478357            0.000518854586           
       0.988823             0.00639228423            0.000456463232           
       0.991463             0.00759262359            0.000509360039           
       0.994104             0.00715409735            0.000477765769           
       0.996744              0.0068342932            0.000482108204           
       0.999384             0.00784548885            0.000499012767           
       1.002025             0.00748216279            0.000500889543           
       1.004665             0.00741218097            0.000478120317           
       1.007306             0.00649325127            0.000462497255           
       1.009946             0.00719439101            0.000468099955           
       1.012586             0.00735190507             0.00048680823           
       1.015227              0.0063684626            0.000439365896           
       1.017867             0.00692685627             0.00047135441           
       1.020507             0.00787893735            0.000483780478           
       1.023148             0.00639880174            0.000441243203           
       1.025788             0.00716790418            0.000462226464           
       1.028429             0.00737987051            0.000479263992           
       1.031069             0.00913720158            0.000513790924           
       1.033709             0.00795855183            0.000488717069           
       1.036350              0.0069248046            0.000443919498           
       1.038990             0.00827249069            0.000497176017           
       1.041630             0.00745071749            0.000462758575           
       1.044271             0.00784954006             0.00047503575           
       1.046911             0.00837254757            0.000481490791           
       1.049552             0.00818581956            0.000493248517           
       1.052192             0.00762016217            0.000454500627           
       1.054832              0.0069157701            0.000441405089           
       1.057473             0.00731283692            0.000448153591           
       1.060113             0.00811460628            0.000477194276           
       1.062754              0.0080219209            0.000469213605           
       1.065394             0.00845600705            0.000476672959           
       1.068034             0.00798096506              0.0004612973           
       1.070675             0.00771105982            0.000461405296           
       1.073315             0.00751798683            0.000441666278           
       1.075955             0.00724091538            0.000440720761           
       1.078596             0.00779570816            0.000456389115           
       1.081236              0.0083791613            0.000466141771           
       1.083877             0.00754610102            0.000456182155           
       1.086517             0.00774145804            0.000451597171           
       1.089157             0.00878494687             0.00048459833           
       1.091798             0.00775856406            0.000445761568           
       1.094438             0.00834997566            0.000469788674           
       1.097078             0.00761579105             0.00043713065           
       1.099719             0.00802279482            0.000460157889           
       1.102359             0.00865440155            0.000452750514           
       1.105000              0.0079791263            0.000451849694           
       1.107640              0.0082640751            0.000444857204           
       1.110280             0.00731853435            0.000427017564           
       1.112921             0.00905292166            0.000466334809           
       1.115561              0.0077218819            0.000436155981           
       1.118202             0.00824341829             0.00043749148           
       1.120842             0.00798046887             0.00044402008           
       1.123482             0.00839915539            0.000442740638           
       1.126123             0.00736545554            0.000417189464           
       1.128763             0.00755692617            0.000420481293           
       1.131403             0.00836852854            0.000441797231           
       1.134044             0.00864291161             0.00044820224           
       1.136684             0.00808428622            0.000436733413           
       1.139325             0.00886167398             0.00044436651           
       1.141965             0.00856029331            0.000442456759           
       1.144605             0.00758431551            0.000418917233           
       1.147246             0.00792170502            0.000420025302           
       1.149886             0.00867436204            0.000442652185           
       1.152527             0.00882470145            0.000446918987           
       1.155167             0.00825206526            0.000426099085           
       1.157807             0.00894273447             0.00044387791           
       1.160448             0.00866830256            0.000442993407           
       1.163088             0.00803258518            0.000410619176           
       1.165728             0.00800865466            0.000426906782           
       1.168369             0.00855549924            0.000425489013           
       1.171009             0.00784549691            0.000410829603           
       1.173650             0.00897602223             0.00043626499           
       1.176290             0.00846163548             0.00042855027           
       1.178930             0.00937590103             0.00043842744           
       1.181571              0.0085951053            0.000433485754           
       1.184211             0.00889491278            0.000427662872           
       1.186851             0.00886276648            0.000430825537           
       1.189492              0.0092171077            0.000441793257           
       1.192132             0.00903242288            0.000430867539           
       1.194773             0.00868591207            0.000419972929           
       1.197413             0.00902051363            0.000431476908           
       1.200053             0.00878821976            0.000423205475           
       1.202694             0.00894892066            0.000423839118           
       1.205334             0.00882635761            0.000425528064           
       1.207975             0.00944435494            0.000431548603           
       1.210615             0.00860126243            0.000420545093           
       1.213255              0.0091544479            0.000422380107           
       1.215896             0.00847658642            0.000414145466           
       1.218536             0.00907127144            0.000416086952           
       1.221176             0.00803698201            0.000400996723           
       1.223817             0.00948154382            0.000426470103           
       1.226457             0.00874820623             0.00041484904           
       1.229098             0.00849565254            0.000402614909           
       1.231738             0.00902079446            0.000420713797           
       1.234378              0.0100496503            0.000435429934           
       1.237019             0.00907108221             0.00041702423           
       1.239659             0.00940989182            0.000424511063           
       1.242299             0.00892665139            0.000411353345           
       1.244940             0.00975274859            0.000425324966           
       1.247580             0.00852019628            0.000399296538           
       1.250221             0.00974855593             0.00043408304           
       1.252861             0.00888863424            0.000399053199           
       1.255501              0.0095689342            0.000425732772           
       1.258142             0.00896290188            0.000403884923           
       1.260782             0.00921050744            0.000414050437           
       1.263423               0.009052462            0.000402350269           
       1.266063              0.0100162782            0.000431116137           
       1.268703             0.00998331872            0.000419562149           
       1.271344             0.00976668665            0.000424023439           
       1.273984             0.00978258226            0.000417743645           
       1.276624             0.00932678364            0.000405406871           
       1.279265             0.00943955036            0.000408740788           
       1.281905             0.00970270693            0.000416953355           
       1.284546             0.00962370825            0.000410716092           
       1.287186             0.00986804588            0.000416296824           
       1.289826              0.0094562262            0.000409630926           
       1.292467             0.00957066327            0.000404746863           
       1.295107               0.010017975            0.000421396401           
       1.297747              0.0095895025            0.000401472214           
       1.300388              0.0098462728            0.000417258263           
       1.303028              0.0095792581            0.000401096019           
       1.305669             0.00985798089            0.000412146425           
       1.308309              0.0103644147            0.000416246202           
       1.310949             0.00987261019            0.000411313972           
       1.313590             0.00996248172            0.000406787531           
       1.316230               0.009542827            0.000405294012           
       1.318871              0.0101408956            0.000408787872           
       1.321511             0.00999504664            0.000407871358           
       1.324151             0.00923665192            0.000393641425           
       1.326792             0.00994181649            0.000405083007           
       1.329432              0.0101801479            0.000412047912           
       1.332072              0.0108121273            0.000417363597           
       1.334713             0.00980125616            0.000402302568           
       1.337353              0.0101140137            0.000402384578           
       1.339994              0.0095985061            0.000397579183           
       1.342634              0.0101235867             0.00039911703           
       1.345274              0.0110599198            0.000422619864           
       1.347915              0.0107379588            0.000417530159           
       1.350555              0.0110018084            0.000420977615           
       1.353195              0.0103289448            0.000400097849           
       1.355836              0.0103419443             0.00040790329           
       1.358476             0.00958368625            0.000391560831           
       1.361117              0.0101891183            0.000393611328           
       1.363757              0.0100948609            0.000404770576           
       1.366397              0.0102371086            0.000394919038           
       1.369038              0.0104814429            0.000408026641           
       1.371678              0.0102228556            0.000394825336           
       1.374319              0.0100092379            0.000393776919           
       1.376959              0.0110692637            0.000408402772           
       1.379599              0.0103146896            0.000401921471           
       1.382240              0.0106416955            0.000400488813           
       1.384880              0.0106693908            0.000405933196           
       1.387520              0.0102835169            0.000393865533           
       1.390161              0.0104414175            0.000395799166           
       1.392801               0.010649592             0.00040210773           
       1.395442              0.0101945208            0.000389346229           
       1.398082              0.0104762816            0.000396040693           
       1.400722              0.0104348852            0.000393471841           
       1.403363              0.0102915994            0.000394387221           
       1.406003              0.0101619714            0.000382272537           
       1.408644               0.010498479            0.000396707469           
       1.411284              0.0102807479            0.000390419262           
       1.413924              0.0104088771            0.000387999417           
       1.416565              0.0101800849            0.000383260446           
       1.419205             0.00994186179            0.000382480453           
       1.421845              0.0104240103            0.000386721529           
       1.424486              0.0101654813            0.000383581792           
       1.427126              0.0102394659            0.000384732223           
       1.429767              0.0103887031            0.000381554043           
       1.432407              0.0104587334            0.000392482142           
       1.435047             0.00974714835            0.000367509202           
       1.437688             0.00996077239            0.000379741792           
       1.440328              0.0104496317            0.000381411416           
       1.442968              0.0105650023            0.000388820075           
       1.445609             0.00990390263            0.000370266444           
       1.448249             0.00932785556            0.000361660543           
       1.450890             0.00981129742             0.00036826826           
       1.453530              0.0101726194            0.000377765666           
       1.456170             0.00949208184            0.000364089344           
       1.458811              0.0100763792            0.000372143561           
       1.461451              0.0107911884            0.000387948136           
       1.464092              0.0104960853            0.000379271768           
       1.466732              0.0104053865            0.000375313319           
       1.469372              0.0102514678            0.000371382008           
       1.472013              0.0102493733             0.00037798775           
       1.474653             0.00960322692            0.000356844957           
       1.477293             0.00974466978            0.000365513873           
       1.479934              0.0105930726            0.000377104571           
       1.482574             0.00966900062             0.00035939205           
       1.485215             0.00913451897            0.000350217127           
       1.487855              0.0102434593            0.000370790106           
       1.490495              0.0100583298            0.000366633369           
       1.493136              0.0102664746            0.000365549885           
       1.495776             0.00964550302            0.000360499724           
       1.498416              0.0097912817            0.000356157527           
       1.501057              0.0102938121            0.000368323986           
       1.503697              0.0109167491            0.000375658078           
       1.506338             0.00947905481            0.000352623082           
       1.508978             0.00984301896            0.000357207491           
       1.511618              0.0101817196            0.000363117706           
       1.514259             0.00987620054             0.00035827414           
       1.516899             0.00970273205            0.000355279155           
       1.519540              0.0100600477            0.000359754259           
       1.522180             0.00970858162            0.000349000506           
       1.524820             0.00971088947            0.000356091777           
       1.527461               0.010305265            0.000358712696           
       1.530101             0.00922472163            0.000342894919           
       1.532741             0.00970731823            0.000350083411           
       1.535382              0.0098423845            0.000353286813           
       1.538022             0.00966969526            0.000347075624           
       1.540663              0.0101844188            0.000359559764           
       1.543303              0.0102419865            0.000356087448           
       1.545943             0.00935562828            0.000342237966           
       1.548584             0.00938917526            0.000344676703           
       1.551224             0.00919257385            0.000332305483           
       1.553864             0.00948423445            0.000346353578           
       1.556505             0.00951154098            0.000341516199           
       1.559145             0.00974678662            0.000346512926           
       1.561786             0.00931905563            0.000337289425           
       1.564426             0.00954586387            0.000341060904           
       1.567066             0.00999916091             0.00034634034           
       1.569707             0.00971984168            0.000346412296           
       1.572347             0.00956369981            0.000339160424           
       1.574988             0.00874438169            0.000323024352           
       1.577628             0.00914401599            0.000337760453           
       1.580268             0.00941059919            0.000330823856           
       1.582909             0.00923394528            0.000333833465           
       1.585549             0.00940587307            0.000333778283           
       1.588189             0.00854227149            0.000321639184           
       1.590830             0.00866599203            0.000318399041           
       1.593470             0.00890218284            0.000325344173           
       1.596111             0.00904329684            0.000325079241           
       1.598751             0.00874062435            0.000322859981           
       1.601391             0.00890163351             0.00032373693           
       1.604032             0.00902673203            0.000323281393           
       1.606672             0.00812229596            0.000312830424           
       1.609312             0.00869822758            0.000314098814           
       1.611953             0.00890796057            0.000322469643           
       1.614593             0.00847941312            0.000312224401           
       1.617234             0.00937178901            0.000330103396           
       1.619874             0.00885196741            0.000317043762           
       1.622514             0.00831583955            0.000310010525           
       1.625155             0.00842289438            0.000311228032           
       1.627795             0.00824689082            0.000304847204           
       1.630436             0.00878221375             0.00031774782           
       1.633076             0.00844085708            0.000309928652           
       1.635716             0.00895941361            0.000318750027           
       1.638357             0.00807810004            0.000301381044           
       1.640997             0.00872095843            0.000315592418           
       1.643637             0.00843064339            0.000304533146           
       1.646278             0.00830861164            0.000306846341           
       1.648918             0.00852489584            0.000306807455           
       1.651559             0.00889686479             0.00031737031           
       1.654199             0.00866474614            0.000308909698           
       1.656839             0.00851817356            0.000306203334           
       1.659480             0.00836208732            0.000306056926           
       1.662120             0.00807601242             0.00029674561           
       1.664761             0.00876620892            0.000312513387           
       1.667401             0.00785521761            0.000293073824           
       1.670041             0.00792053797            0.000294626612           
       1.672682             0.00840287863            0.000300609489           
       1.675322             0.00825310761            0.000303185925           
       1.677962             0.00856242787            0.000302682179           
       1.680603             0.00861693444            0.000306338882           
       1.683243             0.00838779225             0.00030000247           
       1.685884             0.00844220056            0.000302119208           
       1.688524              0.0076366052            0.000286534598           
       1.691164             0.00816650305            0.000295547483           
       1.693805              0.0085227976            0.000304367406           
       1.696445             0.00804568258            0.000291620837           
       1.699085              0.0082611678            0.000296679984           
       1.701726             0.00762926997            0.000281399198           
       1.704366             0.00846917111            0.000303698511           
       1.707007             0.00880496431            0.000303052676           
       1.709647             0.00871136711             0.00030518302           
       1.712287             0.00831457434            0.000293168958           
       1.714928             0.00801901747            0.000290806237           
       1.717568             0.00875523711            0.000301068288           
       1.720209             0.00892099329             0.00030578152           
       1.722849             0.00867718274            0.000302057611           
       1.725489             0.00830334433            0.000290769616           
       1.728130             0.00805764588            0.000292266263           
       1.730770             0.00859322569            0.000295443457           
       1.733410             0.00837555287            0.000295506599           
       1.736051             0.00825602324            0.000288836415           
       1.738691             0.00782761339            0.000284113333           
       1.741332             0.00783157819            0.000282435887           
       1.743972             0.00844152153             0.00029333687           
       1.746612              0.0080745341            0.000286955746           
       1.749253              0.0083084884            0.000292341185           
       1.751893             0.00747396125            0.000275607494           
       1.754533             0.00826922191            0.000285920985           
       1.757174              0.0080637332            0.000287625018           
       1.759814             0.00830799051            0.000287497805           
       1.762455             0.00783667969            0.000281601055           
       1.765095             0.00803756321            0.000281182502           
       1.767735             0.00835345476            0.000291525693           
       1.770376             0.00828865605            0.000285988918           
       1.773016             0.00799984837            0.000281405702           
       1.775657             0.00751970377            0.000273389129           
       1.778297              0.0080916578            0.000284983048           
       1.780937             0.00801077664            0.000282231983           
       1.783578             0.00854636501            0.000290145281           
       1.786218             0.00792975829            0.000283942443           
       1.788858             0.00836178761            0.000284330498           
       1.791499             0.00860216244            0.000293703384           
       1.794139             0.00872890495            0.000290395831           
       1.796780             0.00905451985            0.000297519945           
       1.799420               0.008392369            0.000286070042           
       1.802060             0.00885469883            0.000290230008           
       1.804701             0.00866663678            0.000290983524           
       1.807341             0.00895912938            0.000292994304           
       1.809981             0.00868020664            0.000290312697           
       1.812622             0.00863647814            0.000288002804           
       1.815262             0.00846563898            0.000286156756           
       1.817903             0.00848990778            0.000283026236           
       1.820543             0.00847111661            0.000286207192           
       1.823183             0.00849237438            0.000282150653           
       1.825824             0.00869661174            0.000289817078           
       1.828464             0.00851928233            0.000285966985           
       1.831105             0.00864818165            0.000289237702           
       1.833745             0.00826312493            0.000282548821           
       1.836385             0.00896083282             0.00029309143           
       1.839026             0.00837426674            0.000287595594           
       1.841666             0.00813653725              0.0002798031           
       1.844306             0.00809618134            0.000282631996           
       1.846947             0.00848730789            0.000285659713           
       1.849587             0.00839458652            0.000287948192           
       1.852228             0.00807371363            0.000279387872           
       1.854868             0.00837451816            0.000289763645           
       1.857508             0.00833734849            0.000283781331           
       1.860149             0.00879234453            0.000293757789           
       1.862789              0.0083168012             0.00028696748           
       1.865429             0.00817131985            0.000285304094           
       1.868070             0.00834828302            0.000287380439           
       1.870710             0.00831544816            0.000287595822           
       1.873351             0.00827463935            0.000288720779           
       1.875991             0.00871640301            0.000297930566           
       1.878631             0.00827428511            0.000287578351           
       1.881272              0.0082519499            0.000286517219           
       1.883912             0.00809218875             0.00028705765           
       1.886553              0.0083895829            0.000288778754           
       1.889193             0.00854988751            0.000294892214           
       1.891833             0.00856673148            0.000291823409           
       1.894474             0.00863214409            0.000295253855           
       1.897114             0.00820621275            0.000285644456           
       1.899754             0.00800358039            0.000285259429           
       1.902395             0.00842272993            0.000292696054           
       1.905035             0.00835543335            0.000290381945           
       1.907676             0.00848358907            0.000292940577           
       1.910316             0.00834741803            0.000292432839           
       1.912956             0.00834991233            0.000292464904           
       1.915597             0.00838399657            0.000290005937           
       1.918237             0.00851932708            0.000296774755           
       1.920878             0.00812672439            0.000284726106           
       1.923518             0.00849016887            0.000298755332           
       1.926158             0.00827245614            0.000288123465           
       1.928799             0.00830627394            0.000292548327           
       1.931439             0.00815821736             0.00028760584           
       1.934079             0.00809419022            0.000289376121           
       1.936720             0.00737807261            0.000274652623           
       1.939360             0.00787224776            0.000286435785           
       1.942001             0.00834002024            0.000293688881           
       1.944641             0.00841930978            0.000293810103           
       1.947281             0.00782959641             0.00028470254           
       1.949922             0.00814089544            0.000290670511           
       1.952562             0.00826635207            0.000295422097           
       1.955202             0.00834917116            0.000289438805           
       1.957843             0.00833496857            0.000298379218           
       1.960483              0.0083749753            0.000294323669           
       1.963124             0.00753989063            0.000279057545           
       1.965764             0.00814497447            0.000290142503           
       1.968404             0.00811857182            0.000294851815           
       1.971045             0.00751241648            0.000276521248           
       1.973685              0.0082172756            0.000294599774           
       1.976326             0.00762816012            0.000282605609           
       1.978966             0.00841365054            0.000298203915           
       1.981606             0.00811478209            0.000289762494           
       1.984247             0.00776848026            0.000285984351           
       1.986887             0.00819998857            0.000296567577           
       1.989527             0.00791110249            0.000285227988           
       1.992168             0.00778378707            0.000289749655           
       1.994808             0.00860638637            0.000301131894           
       1.997449             0.00766158056            0.000283705772           
       2.000089             0.00800663811            0.000288316336           
       2.002729             0.00814229194            0.000297410837           
       2.005370             0.00793857718            0.000288084314           
       2.008010             0.00811790692            0.000295187765           
       2.010650              0.0077066485             0.00028679061           
       2.013291             0.00771354354            0.000288551993           
       2.015931             0.00804525425            0.000292581945           
       2.018572             0.00783562349            0.000292579817           
       2.021212             0.00733424633            0.000280524029           
       2.023852             0.00762333983             0.00028750171           
       2.026493             0.00774777369            0.000288568451           
       2.029133             0.00723166856            0.000276664824           
       2.031774             0.00760101585            0.000286392645           
       2.034414             0.00730404477            0.000279066817           
       2.037054             0.00747413496            0.000285857003           
       2.039695              0.0079776525            0.000289511675           
       2.042335             0.00749552023            0.000285403639           
       2.044975             0.00722569604            0.000277980017           
       2.047616             0.00799879555            0.000293726434           
       2.050256             0.00698093308            0.000271174347           
       2.052897             0.00713276366            0.000282225669           
       2.055537             0.00742452579            0.000280089606           
       2.058177             0.00749219973            0.000283848564           
       2.060818             0.00751550462            0.000285143164           
       2.063458             0.00804839783             0.00029548563           
       2.066098             0.00749923811            0.000283960957           
       2.068739             0.00775536843            0.000291780377           
       2.071379             0.00765163604            0.000285542441           
       2.074020             0.00746817096            0.000285961425           
       2.076660             0.00758101548            0.000286160799           
       2.079300             0.00789728106            0.000292026539           
       2.081941             0.00754767441              0.0002872251           
       2.084581             0.00752127415            0.000286934718           
       2.087222             0.00759970581            0.000288623399           
       2.089862             0.00740444827            0.000281340614           
       2.092502             0.00753017125            0.000288874217           
       2.095143             0.00760005639            0.000286063931           
       2.097783              0.0077554222            0.000293370348           
       2.100423             0.00733963924            0.000279925559           
       2.103064             0.00744523828            0.000286799851           
       2.105704             0.00778908493            0.000292225564           
       2.108345             0.00774731859            0.000292779032           
       2.110985              0.0069538439             0.00027348494           
       2.113625             0.00744175344            0.000287374256           
       2.116266             0.00718300672            0.000280244425           
       2.118906             0.00748621572            0.000285890104           
       2.121546             0.00795077121            0.000294393093           
       2.124187             0.00740484562            0.000288036043           
       2.126827             0.00761783344            0.000287567386           
       2.129468             0.00708801733            0.000280281831           
       2.132108              0.0072785787            0.000283436813           
       2.134748             0.00734823293            0.000283716517           
       2.137389             0.00727910717            0.000284743987           
       2.140029             0.00739708469            0.000286345167           
       2.142670             0.00743556168             0.00028755803           
       2.145310             0.00752183206            0.000290326367           
       2.147950             0.00734131681            0.000287930268           
       2.150591             0.00708988971            0.000280361795           
       2.153231             0.00711516561            0.000285013433           
       2.155871             0.00747835923            0.000287977179           
       2.158512             0.00747417471             0.00029308428           
       2.161152              0.0073856282            0.000284065326           
       2.163793             0.00735972029            0.000288180676           
       2.166433             0.00739544679            0.000283869849           
       2.169073             0.00694857798            0.000281584168           
       2.171714             0.00756022267            0.000287736325           
       2.174354             0.00703202747            0.000281743518           
       2.176995             0.00679404321            0.000274637755           
       2.179635             0.00669297841             0.00027774618           
       2.182275             0.00741435097            0.000286528038           
       2.184916             0.00741614673            0.000292619199           
       2.187556             0.00750249069            0.000289579457           
       2.190196             0.00783541066            0.000300586176           
       2.192837             0.00735985705            0.000288131547           
       2.195477             0.00728337461             0.00028939542           
       2.198118             0.00734487714             0.00028524945           
       2.200758              0.0070159839             0.00028311918           
       2.203398             0.00655920122            0.000269208015           
       2.206039             0.00765548039            0.000295281775           
       2.208679             0.00746959972            0.000288819726           
       2.211319             0.00718710431            0.000284639112           
       2.213960             0.00783470501            0.000294026586           
       2.216600              0.0074008021            0.000292501869           
       2.219241              0.0075648083            0.000291425757           
       2.221881             0.00721567738            0.000286104968           
       2.224521             0.00681671846            0.000277118527           
       2.227162             0.00721300473            0.000289537213           
       2.229802             0.00712138879            0.000283022623           
       2.232443             0.00699475846            0.000281597757           
       2.235083             0.00764417813            0.000292614759           
       2.237723             0.00715515594            0.000285269863           
       2.240364              0.0072753895            0.000286193543           
       2.243004              0.0079914598            0.000300853336           
       2.245644             0.00701648609            0.000281253255           
       2.248285             0.00700987155            0.000282945569           
       2.250925             0.00713515298            0.000284127916           
       2.253566              0.0069756148            0.000281620424           
       2.256206             0.00715641563            0.000284392289           
       2.258846             0.00712469448            0.000283763828           
       2.261487             0.00721428172            0.000286036254           
       2.264127             0.00683879356            0.000281128029           
       2.266767             0.00728114447            0.000285389107           
       2.269408              0.0067939597            0.000278950211           
       2.272048             0.00705005281            0.000282411024           
       2.274689             0.00720828196            0.000286685522           
       2.277329             0.00730782796            0.000288274722           
       2.279969             0.00666167097            0.000276069436           
       2.282610             0.00704450337             0.00028112268           
       2.285250             0.00697838261             0.00028420081           
       2.287891             0.00719209936            0.000285608412           
       2.290531             0.00717867294            0.000286748808           
       2.293171              0.0070828096            0.000284813722           
       2.295812                0.00726413            0.000286905413           
       2.298452             0.00667811952            0.000276851383           
       2.301092             0.00682415967             0.00028163991           
       2.303733             0.00712278669            0.000282044976           
       2.306373             0.00718535275            0.000290209806           
       2.309014             0.00696572219            0.000280233788           
       2.311654             0.00723867374            0.000288382662           
       2.314294             0.00724819235            0.000287942215           
       2.316935             0.00702383748            0.000284571097           
       2.319575             0.00664704818             0.00027579644           
       2.322215              0.0071892651            0.000290911852           
       2.324856              0.0072516885             0.00028483496           
       2.327496              0.0071656101            0.000290078527           
       2.330137             0.00698368384            0.000281091057           
       2.332777             0.00691899884            0.000282846327           
       2.335417             0.00691603243            0.000281936748           
       2.338058             0.00718244697            0.000288465647           
       2.340698             0.00730951807             0.00028814101           
       2.343339             0.00705142377            0.000288408835           
       2.345979             0.00674069765            0.000276355887           
       2.348619             0.00657417694            0.000278075063           
       2.351260              0.0070606086            0.000282053178           
       2.353900             0.00744886821             0.00029584106           
       2.356540             0.00727894416            0.000288425122           
       2.359181             0.00663894178            0.000279136922           
       2.361821             0.00674761852            0.000277983515           
       2.364462             0.00678989995            0.000283513522           
       2.367102              0.0066232773            0.000271915913           
       2.369742             0.00703910424            0.000290367638           
       2.372383             0.00663465222            0.000273684577           
       2.375023             0.00718205657            0.000292170219           
       2.377663             0.00685184692            0.000279310257           
       2.380304             0.00742970178            0.000294884374           
       2.382944             0.00725329069            0.000288512647           
       2.385585             0.00710359149            0.000288219058           
       2.388225             0.00731510477            0.000291157037           
       2.390865             0.00753910953            0.000296338259           
       2.393506             0.00679580941            0.000280054296           
       2.396146             0.00690294137            0.000283188639           
       2.398787             0.00663704109            0.000277923773           
       2.401427             0.00714224366            0.000286556796           
       2.404067             0.00692348271            0.000286440392           
       2.406708             0.00703073477            0.000285022444           
       2.409348             0.00744317694            0.000295469546           
       2.411988             0.00671003075            0.000279644678           
       2.414629             0.00702678031            0.000287105264           
       2.417269             0.00644785198            0.000272526328           
       2.419910             0.00719294917            0.000291472092           
       2.422550             0.00784308561            0.000299739454           
       2.425190             0.00746040543            0.000301539719           
       2.427831             0.00737851667            0.000288602121           
       2.430471             0.00691003362            0.000287453832           
       2.433112             0.00741190337            0.000290684826           
       2.435752             0.00762986102            0.000302394299           
       2.438392             0.00679385958            0.000280551019           
       2.441033             0.00684784368            0.000282954133           
       2.443673             0.00690919035            0.000284977706           
       2.446313             0.00724462006            0.000290258556           
       2.448954             0.00700393318             0.00028790048           
       2.451594             0.00724247356            0.000291005475           
       2.454235             0.00805755041             0.00030598897           
       2.456875             0.00719250695             0.00029056192           
       2.459515             0.00780966569            0.000303238186           
       2.462156              0.0077905424            0.000301305451           
       2.464796             0.00826650125            0.000315847819           
       2.467436             0.00765035293            0.000297477732           
       2.470077             0.00749092573            0.000298420939           
       2.472717             0.00803848076            0.000305267175           
       2.475358             0.00798436982            0.000307684853           
       2.477998             0.00742532463             0.00029513472           
       2.480638             0.00788081589            0.000304790992           
       2.483279             0.00753583008            0.000299325565           
       2.485919             0.00749560888            0.000296435436           
       2.488560             0.00742873064            0.000296334122           
       2.491200             0.00736584141            0.000294672561           
       2.493840             0.00744796287             0.00029469737           
       2.496481             0.00699761207            0.000289384207           
       2.499121             0.00713594917            0.000288339738           
       2.501761             0.00723976794            0.000295361304           
       2.504402             0.00684863237             0.00028176664           
       2.507042             0.00712285879            0.000292129131           
       2.509683             0.00711229038            0.000289253921           
       2.512323             0.00703044812            0.000288710927           
       2.514963             0.00980538285            0.000341638542           
       2.517604              0.0215966825            0.000505038561           
       2.520244              0.0461088764            0.000738105144           
       2.522884              0.0129366598            0.000390109017           
       2.525525             0.00894590531            0.000327069322           
       2.528165              0.0206650474            0.000494832098           
       2.530806              0.0300123042             0.00059409519           
       2.533446              0.0164921882             0.00044431188           
       2.536086              0.0172411729            0.000450476238           
       2.538727              0.0144918639            0.000415648221           
       2.541367              0.0109699373            0.000360597119           
       2.544008             0.00872395345            0.000321843391           
       2.546648              0.0078373406            0.000305397276           
       2.549288             0.00802823373            0.000309138656           
       2.551929              0.0072043355             0.00029381398           
       2.554569             0.00697853104            0.000286530313           
       2.557209             0.00692096323            0.000288570091           
       2.559850             0.00704816486            0.000287861191           
       2.562490             0.00719406983             0.00029294301           
       2.565131             0.00689446458            0.000287277129           
       2.567771             0.00698795987            0.000287685576           
       2.570411             0.00710251751            0.000293563492           
       2.573052             0.00712576585            0.000290611211           
       2.575692             0.00755839966             0.00030009728           
       2.578332             0.00695185026             0.00028695415           
       2.580973             0.00711379144            0.000292630737           
       2.583613             0.00683848488            0.000284297817           
       2.586254             0.00718235832            0.000293935732           
       2.588894             0.00671323309            0.000282658366           
       2.591534             0.00708767148            0.000290968428           
       2.594175             0.00707334405            0.000292361484           
       2.596815             0.00672485081            0.000282417978           
       2.599456             0.00687544332            0.000287899023           
       2.602096             0.00649483504            0.000278769729           
       2.604736             0.00673715484            0.000284667136           
       2.607377             0.00729314176            0.000295047824           
       2.610017             0.00637857606            0.000275832348           
       2.612657             0.00724335001             0.00029601254           
       2.615298             0.00686203593            0.000285297392           
       2.617938             0.00764238621            0.000303716606           
       2.620579              0.0068220652            0.000284609778           
       2.623219             0.00675764352            0.000287793817           
       2.625859             0.00705547572            0.000289111308           
       2.628500             0.00693451014            0.000291203019           
       2.631140             0.00687540736            0.000284846104           
       2.633780             0.00733836054            0.000298059643           
       2.636421             0.00752091456            0.000298998459           
       2.639061             0.00689862848            0.000289785601           
       2.641702             0.00723917544            0.000293678648           
       2.644342             0.00714632122            0.000294182689           
       2.646982             0.00695328654            0.000289935936           
       2.649623             0.00729058861            0.000298664801           
       2.652263             0.00712378105            0.000292879112           
       2.654904             0.00691283898             0.00029007685           
       2.657544             0.00708069627            0.000291512045           
       2.660184             0.00713460863            0.000292994019           
       2.662825             0.00743208317             0.00029975655           
       2.665465             0.00691616755            0.000289700096           
       2.668105             0.00700338327            0.000291636421           
       2.670746             0.00697957551            0.000288676846           
       2.673386             0.00688571574            0.000290204278           
       2.676027             0.00717021028            0.000293621246           
       2.678667             0.00711664802            0.000294043237           
       2.681307              0.0072533505            0.000294519613           
       2.683948             0.00842298633            0.000320530794           
       2.686588             0.00743341299            0.000298350723           
       2.689229              0.0076666884            0.000305715321           
       2.691869             0.00741586343            0.000297671637           
       2.694509             0.00778487355            0.000309170287           
       2.697150             0.00751160785             0.00029884845           
       2.699790             0.00717793011            0.000298203695           
       2.702430             0.00685991659            0.000285933656           
       2.705071             0.00654058387            0.000283020269           
       2.707711             0.00697682191            0.000289407658           
       2.710352             0.00667571983            0.000284705056           
       2.712992              0.0065004474            0.000281856123           
       2.715632             0.00656930866            0.000281733338           
       2.718273             0.00687174497            0.000289102141           
       2.720913             0.00651232591            0.000281909903           
       2.723553              0.0067600965            0.000286224609           
       2.726194             0.00672375389             0.00028683089           
       2.728834                0.00703633            0.000290813979           
       2.731475             0.00694372037            0.000291418698           
       2.734115             0.00691752513            0.000289135279           
       2.736755             0.00695743319            0.000291884929           
       2.739396             0.00678600078            0.000286742103           
       2.742036             0.00629959644            0.000278160273           
       2.744677             0.00716946047            0.000297177875           
       2.747317             0.00697554264            0.000291707237           
       2.749957             0.00698529973            0.000294028863           
       2.752598             0.00714475088            0.000298261262           
       2.755238             0.00737961297            0.000302987228           
       2.757878             0.00706076032            0.000295525507           
       2.760519             0.00720191895            0.000295313603           
       2.763159             0.00701188009            0.000296129273           
       2.765800             0.00631068694            0.000276173847           
       2.768440             0.00699401585            0.000294571917           
       2.771080             0.00696120284            0.000291403564           
       2.773721              0.0071563315            0.000299084155           
       2.776361             0.00663686159            0.000284931105           
       2.779001             0.00658681435            0.000286838535           
       2.781642             0.00613046419             0.00027483555           
       2.784282             0.00707815723            0.000295418584           
       2.786923             0.00671247308             0.00028549822           
       2.789563             0.00637146921            0.000278710586           
       2.792203             0.00672203051            0.000288097596           
       2.794844             0.00629557346            0.000277540532           
       2.797484             0.00677837034            0.000288391798           
       2.800125             0.00671064831             0.00028657672           
       2.802765             0.00665293669            0.000290631465           
       2.805405             0.00702983206            0.000294437877           
       2.808046             0.00672178385            0.000292329202           
       2.810686             0.00697454879            0.000294601895           
       2.813326             0.00667699279            0.000291815352           
       2.815967             0.00639370511            0.000283758178           
       2.818607             0.00666335634            0.000292575805           
       2.821248             0.00658311696            0.000287182815           
       2.823888             0.00663841254             0.00029303138           
       2.826528             0.00664476939            0.000291422525           
       2.829169             0.00661185768            0.000289416512           
       2.831809             0.00678611164            0.000293462356           
       2.834449             0.00685047096            0.000289704095           
       2.837090             0.00684290205            0.000291286479           
       2.839730             0.00692106439            0.000290865004           
       2.842371             0.00663968021            0.000286875881           
       2.845011             0.00677011014            0.000289033805           
       2.847651             0.00626834075            0.000278627456           
       2.850292               0.006486634            0.000281827048           
       2.852932             0.00686479198             0.00029044557           
       2.855573             0.00672976897            0.000290100661           
       2.858213             0.00689667533            0.000290380927           
       2.860853              0.0060820225            0.000274732955           
       2.863494             0.00627696424            0.000279773157           
       2.866134             0.00689508369            0.000297337963           
       2.868774             0.00704102843            0.000295868848           
       2.871415             0.00702635448            0.000298485675           
       2.874055             0.00659420757            0.000290593381           
       2.876696             0.00655545556            0.000287129282           
       2.879336             0.00633288808            0.000284086301           
       2.881976             0.00670053311            0.000291975546           
       2.884617             0.00730275888            0.000303120969           
       2.887257             0.00640745806            0.000281952958           
       2.889897             0.00641160423            0.000285276982           
       2.892538              0.0066287055            0.000288055441           
       2.895178               0.006586765            0.000284214514           
       2.897819             0.00670563395             0.00028971699           
       2.900459             0.00690302306            0.000291516387           
       2.903099             0.00662162355            0.000287003556           
       2.905740             0.00711822295            0.000294249544           
       2.908380             0.00708937293             0.00029756727           
       2.911021             0.00678332148            0.000291626683           
       2.913661             0.00727837015            0.000298756462           
       2.916301             0.00707681215            0.000298781552           
       2.918942             0.00676577192            0.000287734405           
       2.921582             0.00706272445            0.000297065352           
       2.924222             0.00693555547             0.00029267133           
       2.926863             0.00700379035            0.000294888727           
       2.929503             0.00672902989            0.000292255265           
       2.932144             0.00644621037            0.000281356166           
       2.934784             0.00813109809            0.000317336877           
       2.937424             0.00681050443            0.000290963233           
       2.940065               0.006902164            0.000293153059           
       2.942705             0.00669765405            0.000289654828           
       2.945346             0.00684151606            0.000291020005           
       2.947986             0.00731621181            0.000301999264           
       2.950626             0.00696853247            0.000295642391           
       2.953267               0.008933992            0.000331192474           
       2.955907             0.00987008545            0.000352713663           
       2.958547             0.00909137862            0.000335042997           
       2.961188              0.0078664882            0.000314377152           
       2.963828              0.0077331201            0.000309934366           
       2.966469             0.00731163405            0.000301444756           
       2.969109             0.00685837925            0.000293444999           
       2.971749             0.00720737591            0.000299933704           
       2.974390             0.00758342499            0.000308503048           
       2.977030             0.00984002164            0.000350749835           
       2.979670              0.0100961858            0.000352995432           
       2.982311             0.00910143933            0.000337573588           
       2.984951             0.00755505001            0.000308356827           
       2.987592             0.00799763527            0.000316189444           
       2.990232             0.00691449598            0.000294750398           
       2.992872             0.00691763351            0.000292510697           
       2.995513             0.00791366567             0.00031531884           
       2.998153             0.00786689757             0.00031641401           
       3.000794              0.0104624095            0.000359586799           
       3.003434              0.0278086964             0.00059245997           
       3.006074              0.0620122415            0.000887574494           
       3.008715              0.0346091838             0.00066812277           
       3.011355              0.0248665409            0.000572217951           
       3.013995               0.021139254            0.000525012465           
       3.016636              0.0304391224            0.000631181667           
       3.019276               0.145603161             0.00141344909           
       3.021917               0.239220338             0.00178100456           
       3.024557               0.144464971             0.00139508499           
       3.027197               0.120041432             0.00129304493           
       3.029838               0.116546633             0.00126799095           
       3.032478              0.0590069719            0.000907622681           
       3.035118              0.0396618657            0.000747945572           
       3.037759              0.0971144286             0.00117243702           
       3.040399               0.168495411             0.00156200693           
       3.043040              0.0666576202             0.00099199981           
       3.045680               0.055532613            0.000891497459           
       3.048320               0.124568725             0.00135663888           
       3.050961               0.305523573             0.00214592868           
       3.053601               0.087744733             0.00114492909           
       3.056242              0.0498829283             0.00086880991           
       3.058882               0.199920083             0.00176518366           
       3.061522               0.165784152             0.00159629713           
       3.064163              0.0251299206            0.000622626092           
       3.066803              0.0218027417            0.000591160124           
       3.069443              0.0347507386            0.000741360497           
       3.072084              0.0817009721             0.00114685869           
       3.074724              0.0298810814            0.000697672168           
       3.077365              0.0108862551            0.000420805541           
       3.080005             0.00968483853            0.000401308072           
       3.082645              0.0092652617            0.000394517451           
       3.085286             0.00922134624            0.000393653158           
       3.087926             0.00791217264            0.000366960145           
       3.090566             0.00754430109            0.000362018827           
       3.093207             0.00760362565            0.000359512753           
       3.095847             0.00785869907            0.000373154329           
       3.098488             0.00815306463            0.000379389589           
       3.101128             0.00745595496            0.000364784144           
       3.103768             0.00905996985            0.000404378017           
       3.106409              0.0102955869            0.000433959199           
       3.109049              0.0101300499            0.000433802682           
       3.111690              0.0120710021            0.000471677037           
       3.114330              0.0105922874            0.000445774371           
       3.116970              0.0126904841            0.000494719849           
       3.119611              0.0151662019            0.000537308288           
       3.122251              0.0140134207            0.000520714205           
       3.124891              0.0108396769            0.000460191742           
       3.127532             0.00789979914            0.000399937701           
       3.130172             0.00792240655            0.000392270426           
       3.132813             0.00771036793            0.000394861465           
       3.135453              0.0091995829            0.000440409957           
       3.138093             0.00726154144            0.000381995847           
       3.140734             0.00621768277            0.000360053371           
       3.143374             0.00694811378            0.000386433493           
       3.146014              0.0064895163            0.000370751929           
       3.148655             0.00622144016            0.000365871521           
       3.151295             0.00592005737            0.000359724575           
       3.153936             0.00626363718            0.000375478343           
       3.156576             0.00648075293            0.000377546138           
       3.159216             0.00682755533            0.000390685663           
       3.161857             0.00658212327            0.000388305078           
       3.164497             0.00652207405            0.000394679854           
       3.167138             0.00580647666            0.000363464493           
       3.169778             0.00541264501            0.000357258415           
       3.172418             0.00621246567            0.000384981674           
       3.175059             0.00610043541            0.000386487225           
       3.177699             0.00698262944            0.000411856052           
       3.180339             0.00629446138            0.000394529915           
       3.182980             0.00599051992            0.000390082609           
       3.185620             0.00578750068            0.000387605514           
       3.188261             0.00540692699            0.000369736407           
       3.190901             0.00577641952            0.000388049671           
       3.193541             0.00573362219            0.000387883427           
       3.196182             0.00601122523            0.000405426014           
       3.198822             0.00641627883            0.000413785084           
       3.201463             0.00554406549            0.000389607721           
       3.204103             0.00587448224            0.000406390145           
       3.206743             0.00602593274            0.000415075296           
       3.209384             0.00558133774            0.000397689002           
       3.212024             0.00529417905            0.000388699347           
       3.214664             0.00645272446            0.000437306522           
       3.217305             0.00574241245            0.000422160386           
       3.219945             0.00641067314            0.000442318647           
       3.222586              0.0054858426            0.000411486855           
       3.225226             0.00580161942            0.000432697387           
       3.227866             0.00503910253            0.000406380741           
       3.230507             0.00560228246             0.00043360142           
       3.233147             0.00582333882            0.000435534485           
       3.235787             0.00563265382             0.00042846079           
       3.238428             0.00617578343            0.000456566235           
       3.241068             0.00534353675            0.000433301849           
       3.243709             0.00579632063            0.000448781666           
       3.246349             0.00520459793            0.000422878668           
       3.248989             0.00574435959            0.000454420493           
       3.251630             0.00575240974            0.000456750637           
       3.254270             0.00521788652            0.000448384052           
       3.256911             0.00520520453            0.000436617818           
       3.259551             0.00580879904            0.000471430818           
       3.262191             0.00509582361            0.000445614344           
       3.264832             0.00512349756            0.000451015266           
       3.267472             0.00531412296            0.000465842867           
       3.270112             0.00557874599            0.000478659315           
       3.272753             0.00584809071            0.000496100707           
       3.275393             0.00552316262            0.000484603347           
       3.278034             0.00558395277            0.000497188967           
       3.280674             0.00571308351            0.000504364503           
       3.283314              0.0061709943            0.000527084065           
       3.285955             0.00501400925            0.000484034819           
       3.288595             0.00507898531            0.000492595808           
       3.291235             0.00580367853             0.00052966054           
       3.293876             0.00580768796            0.000532980739           
       3.296516             0.00682353133            0.000589499435           
       3.299157             0.00568844927            0.000546374901           
       3.301797             0.00473534243            0.000498716813           
       3.304437             0.00454656821            0.000497835069           
       3.307078             0.00479639463            0.000516297127           
       3.309718              0.0053371622            0.000550061409           
       3.312359             0.00538935894            0.000563913195           
       3.314999             0.00645903075            0.000623820453           
       3.317639             0.00581302814            0.000598175501           
       3.320280             0.00497720328            0.000561585997           
       3.322920             0.00570407755            0.000610191285           
       3.325560             0.00518988173            0.000593277915           
       3.328201             0.00528057078            0.000600968739           
       3.330841             0.00578548994            0.000644343593           
       3.333482             0.00534187222            0.000627008966           
       3.336122             0.00617001569            0.000688506787           
       3.338762             0.00550867413            0.000656512182           
       3.341403             0.00601699583            0.000692499486           
       3.344043             0.00553061266            0.000689260758           
       3.346683             0.00591221028            0.000719870725           
       3.349324             0.00445238172            0.000634376614           
       3.351964             0.00659166893            0.000796692678           
       3.354605              0.0063628332            0.000791605223           
       3.357245             0.00563357664            0.000771043046           
       3.359885             0.00471427762            0.000705586348           
       3.362526              0.0057574607            0.000819624617           
       3.365166             0.00696960752            0.000890652717           
       3.367807             0.00617652863            0.000897529807           
       3.370447             0.00464969248            0.000779035256           
       3.373087             0.00574093794            0.000913593196           
       3.375728              0.0062462376             0.00094574762           
       3.378368             0.00577538801            0.000982678475           
       3.381008             0.00439231404            0.000849501476           
       3.383649             0.00434443434            0.000914329321           
       3.386289             0.00665080828             0.00113175472           
       3.388930             0.00390942453            0.000952953107           
       3.391570             0.00523470305             0.00110317193           
       3.394210             0.00552587574             0.00121445395           
       3.396851             0.00457229389             0.00119665964           
       3.399491             0.00473405694              0.0012397432           
       3.402131              0.0039724895             0.00134429375           
       3.404772             0.00440927035             0.00141687733           
       3.407412             0.00410327857             0.00169606344           
       3.410053             0.00504381766             0.00195804681           
       3.412693             0.00282040937             0.00207155508           
       3.415333             0.00204903581             0.00216340289           
