################################################################################
# EDF_DataBlockID                     0.Image.Psd
# EDF_BinarySize                      2105344
# EDF_HeaderSize                      2560
# ByteOrder                           LowByteFirst
# DataType                            FloatValue
# Dim_1                               512
# Dim_2                               1028
# Image                               0
# HeaderID                            EH:000000:000000:000000
# Size                                2105344
# Center_1                            304.9000
# Center_2                            588.7000
# Comment                             Xenocs_Cell_Window - front_window_open_only
# DDummy                              0.6
# Date                                2025-10-18T19:06:36
# Delta                               21.910000
# Dummy                               -1.5
# ExposureTime                        360
# Gamma                               15.360000
# Intensity1                          8.9791e-10
# PSize_1                             7.5e-05
# PSize_2                             7.5e-05
# Pressure                            0.0333195
# SampleDistance                      0.115750
# SampleEnvKind                       large
# SampleEnvPN                         ElectroChemical cell
# SampleEnvSN                         1141
# Thickness                           0
# Wavelength                          1.541891e-10
# Wavelength                          1.54189e-10
# aux                                 0
# aux_dial                            0.002375
# beamx                               588.429
# beamx_dial                          588.429
# beamz                               657.855
# beamz_dial                          657.855
# det0x                               -0.000396875
# det0x_dial                          6.36905
# det0xvd                             -0.0005
# det0xvd_dial                        -0.0005
# det0y                               450.002
# det0y_dial                          481.635
# det0z                               0
# det0z_dial                          1.2295
# det0zvd                             0
# det0zvd_dial                        0
# mag                                 1.818
# mag_dial                            1.818
# om                                  0.2499
# om_dial                             -0.610199
# phi                                 -0.0120535
# phi_dial                            0
# ry                                  0.599993
# ry_dial                             0.599993
# s1bot                               0.8
# s1bot_dial                          -1.66094
# s1hl                                0.8
# s1hl_dial                           -0.608437
# s1hr                                0.8
# s1hr_dial                           0.970938
# s1top                               0.8
# s1top_dial                          -0.461562
# s2bot                               0.45
# s2bot_dial                          1.36109
# s2hl                                0.45
# s2hl_dial                           -0.83375
# s2hr                                0.45
# s2hr_dial                           -0.118594
# s2top                               0.45
# s2top_dial                          1.44734
# w2theta                             32
# w2theta_dial                        32
# waxsch                              19.2605
# waxsch_dial                         -32.7238
# waxsh                               137.085
# waxsh_dial                          -43.5335
# waxsth                              26.0607
# waxsth_dial                         -19.4068
# waxsz                               67.0407
# waxsz_dial                          -23.7962
# wind                                65.9854
# wind_dial                           66.0041
# wpsi                                124
# wpsi_dial                           124
# wstod                               115
# wstod_dial                          115
# x                                   0
# x_dial                              1.00969
# z                                   0
# z_dial                              13.3172
# CountCutoff                         6807993
# DetectorModel                       Dectris EIGER2 Si 500K, S/N E-01-0554
# ThresholdSetting                    4023.88989258
# Saturation                          0
# FlatField                           Corrected
# BackgroundReductionExtra            0.02
# BackgroundCorrectionConstant        0.0026712
# Detector                            0
# Monitor                             0
# Pil_Roi0                            0
# SumForIntensity1                    3.23248e+08
# TransmittedFlux                     897910
# det                                 0
# mon                                 0
# pilai0                              3.23248e+08
# pilai1                              707493
# pilct0                              5.5957e+08
# pilct1                              707493
# pilroi0                             0
# pilroi1                             0
# sec                                 1
# title                               20251017__1_00227.edf
# usaxs0                              0
# Operation                           Azimuthal average I(q)
# Error_model                         ErrorModel.poisson
# Geometrical_correction              True
# Transmission_correction             True
# Thickness_correction                False
# Binning mode                        Uniform
# Binning factor                      1.0
# Psi                                 0.0
# Omega                               0.2499
# MaskInvalidPixels                   True
# DetectorEdge                        3
# MaskFiles                           ['20251017__1_00233_mask.edf']
################################################################################
    q(A⁻¹)                Intensity(a.u.)            Sigma_I(a.u.)            
       0.690460           -2.26195211e-05                         0           
       0.693100             0.00789696233             0.00365600072           
       0.695741             0.00574169968             0.00263367752           
       0.698381             0.00809041667             0.00292397713           
       0.701021             0.00821578519             0.00240479428           
       0.703662              0.0046780773             0.00167969113           
       0.706302             0.00939813238             0.00229928265           
       0.708942             0.00602353793             0.00163508877           
       0.711583             0.00568860158             0.00158868839           
       0.714223             0.00427067661             0.00119952287           
       0.716864             0.00549363284             0.00138829484           
       0.719504             0.00558799952             0.00129585659           
       0.722144             0.00747026985             0.00144704687           
       0.724785             0.00799760113             0.00147270998           
       0.727425             0.00620485971             0.00120320938           
       0.730065             0.00655301234             0.00127229341           
       0.732706             0.00809954759             0.00127196456           
       0.735346             0.00508146348             0.00108825676           
       0.737987             0.00693808673             0.00110063869           
       0.740627             0.00625280014             0.00114464282           
       0.743267             0.00797516341             0.00111195711           
       0.745908             0.00651291103              0.0010769337           
       0.748548             0.00658746802             0.00101016161           
       0.751189             0.00753114455             0.00106991953           
       0.753829             0.00567283297            0.000936959298           
       0.756469             0.00596204167            0.000903437809           
       0.759110              0.0057997664            0.000921657587           
       0.761750             0.00705658188             0.00093042147           
       0.764390             0.00671711224            0.000974436631           
       0.767031             0.00597182149            0.000831397205           
       0.769671             0.00685235323             0.00094449395           
       0.772312             0.00688047188            0.000862451425           
       0.774952              0.0072474103            0.000948928017           
       0.777592             0.00673817725            0.000836889541           
       0.780233             0.00735972415             0.00092205015           
       0.782873             0.00593427821            0.000757123106           
       0.785513             0.00847872373              0.0009627027           
       0.788154             0.00558250233            0.000717507482           
       0.790794             0.00666259734            0.000811263726           
       0.793435             0.00543138881            0.000703539772           
       0.796075             0.00584552052            0.000733724954           
       0.798715             0.00685984972            0.000790301104           
       0.801356             0.00640455733            0.000743188558           
       0.803996             0.00821331495            0.000855064896           
       0.806637             0.00592107868            0.000686267407           
       0.809277             0.00605035207             0.00072574269           
       0.811917             0.00556609388            0.000658706805           
       0.814558             0.00789447583            0.000803643228           
       0.817198             0.00627230868            0.000683024733           
       0.819838             0.00739515374            0.000773615576           
       0.822479             0.00644067351            0.000665331428           
       0.825119             0.00765750143            0.000779334812           
       0.827760             0.00644691215            0.000662597752           
       0.830400             0.00758820298            0.000757408703           
       0.833040             0.00713444523            0.000685417464           
       0.835681             0.00595404894            0.000655716895           
       0.838321             0.00925713453            0.000765271765           
       0.840961             0.00749136675            0.000719573987           
       0.843602             0.00731020519            0.000669564352           
       0.846242             0.00685812141            0.000671427399           
       0.848883             0.00668077181            0.000644647599           
       0.851523             0.00716144197            0.000672437433           
       0.854163             0.00649003836            0.000632703522           
       0.856804             0.00627732385            0.000606327039           
       0.859444             0.00691868912            0.000641125293           
       0.862085             0.00683488077            0.000627960982           
       0.864725             0.00670707004            0.000619778101           
       0.867365             0.00656516287            0.000608795147           
       0.870006             0.00697847747            0.000636423531           
       0.872646              0.0056467805            0.000547572817           
       0.875286             0.00767208127            0.000660008143           
       0.877927             0.00739465623            0.000620400025           
       0.880567             0.00733116002            0.000629798493           
       0.883208             0.00715022438            0.000604015351           
       0.885848             0.00759213074            0.000638541439           
       0.888488             0.00608140925            0.000543385261           
       0.891129             0.00666042265            0.000597768769           
       0.893769             0.00590792445            0.000532164352           
       0.896410             0.00654054753            0.000577179906           
       0.899050             0.00697918697            0.000574872902           
       0.901690             0.00607773463            0.000547661599           
       0.904331             0.00695406063            0.000565362734           
       0.906971             0.00594870321             0.00053994485           
       0.909611             0.00673478189            0.000551436099           
       0.912252             0.00719421304            0.000579810554           
       0.914892             0.00670378896            0.000545522627           
       0.917533             0.00705740022            0.000572355006           
       0.920173             0.00676578835             0.00053756814           
       0.922813             0.00656683052            0.000553446863           
       0.925454             0.00668760716            0.000530062222           
       0.928094             0.00679389926            0.000545725707           
       0.930734             0.00626885348            0.000511703632           
       0.933375             0.00715065494             0.00055815917           
       0.936015              0.0077066597            0.000554430338           
       0.938656             0.00768128651            0.000576734485           
       0.941296              0.0068226295            0.000523974958           
       0.943936             0.00771745318            0.000567314098           
       0.946577             0.00743196773             0.00053615782           
       0.949217             0.00709802434            0.000542478457           
       0.951858             0.00798053906            0.000543797769           
       0.954498              0.0070225277            0.000536663075           
       0.957138             0.00724044719             0.00052375491           
       0.959779             0.00645512696            0.000505352788           
       0.962419             0.00832388145            0.000552451574           
       0.965059             0.00781281641            0.000550426104           
       0.967700             0.00772414721            0.000529595418           
       0.970340             0.00767502361            0.000542742752           
       0.972981             0.00659321092            0.000485699735           
       0.975621             0.00698451198            0.000510372049           
       0.978261             0.00683394772            0.000481681678           
       0.980902             0.00792392542            0.000543370763           
       0.983542             0.00811107733            0.000533742965           
       0.986182             0.00801854521            0.000537678522           
       0.988823             0.00790111091            0.000516505752           
       0.991463             0.00778898278            0.000525076555           
       0.994104             0.00677764187            0.000473293169           
       0.996744             0.00630686225            0.000471365413           
       0.999384             0.00744508399            0.000494754523           
       1.002025             0.00736742169            0.000505870639           
       1.004665             0.00786538813            0.000501276785           
       1.007306             0.00739920217            0.000502485834           
       1.009946              0.0067578299            0.000461741096           
       1.012586             0.00658364715            0.000468861487           
       1.015227             0.00797046948            0.000500269832           
       1.017867             0.00774327121            0.000507218451           
       1.020507             0.00828265985            0.000504838828           
       1.023148             0.00722911476            0.000477336432           
       1.025788              0.0077892173            0.000490409576           
       1.028429             0.00777566726            0.000500694228           
       1.031069             0.00784642301            0.000484583927           
       1.033709             0.00742571126            0.000480466191           
       1.036350              0.0070266902            0.000455123419           
       1.038990             0.00855902342            0.000514703896           
       1.041630              0.0077531291            0.000480448957           
       1.044271             0.00825009932            0.000495663682           
       1.046911             0.00815879437            0.000483755024           
       1.049552             0.00802006516            0.000496909127           
       1.052192             0.00726920402             0.00045180302           
       1.054832             0.00786573429            0.000479115276           
       1.057473             0.00779424491             0.00047089522           
       1.060113             0.00817204636            0.000487394059           
       1.062754             0.00754095302             0.00046301797           
       1.065394             0.00854871578            0.000487799789           
       1.068034             0.00829371071            0.000478609121           
       1.070675             0.00829807569            0.000487155439           
       1.073315             0.00860062657            0.000480797087           
       1.075955             0.00820337879            0.000477437445           
       1.078596             0.00788851224            0.000467259741           
       1.081236             0.00819030931            0.000469052245           
       1.083877             0.00857666274            0.000494982075           
       1.086517             0.00736891578            0.000448430298           
       1.089157              0.0083023014            0.000479473834           
       1.091798             0.00774502515            0.000453290569           
       1.094438             0.00860061368            0.000485263894           
       1.097078             0.00897338357            0.000482931112           
       1.099719             0.00858432871             0.00048445174           
       1.102359             0.00872183266            0.000462591477           
       1.105000             0.00815579512            0.000464946301           
       1.107640             0.00853052378            0.000460007244           
       1.110280             0.00768440493            0.000445340428           
       1.112921             0.00789552601            0.000443248534           
       1.115561             0.00784391084            0.000447404038           
       1.118202             0.00762563057            0.000428259625           
       1.120842             0.00844018778             0.00046474827           
       1.123482             0.00837245857            0.000449895245           
       1.126123              0.0082407207            0.000449127289           
       1.128763             0.00855615411            0.000455372405           
       1.131403             0.00813797484            0.000443414541           
       1.134044             0.00910476244            0.000468200224           
       1.136684             0.00788525866            0.000438992269           
       1.139325             0.00892699621            0.000453930572           
       1.141965             0.00849087731             0.00044849346           
       1.144605             0.00874889452            0.000457930891           
       1.147246             0.00815677689            0.000433789197           
       1.149886             0.00842147743            0.000443906297           
       1.152527             0.00857879747            0.000448482316           
       1.155167             0.00869544681            0.000445172724           
       1.157807             0.00829674454             0.00043514655           
       1.160448             0.00777818774            0.000427093305           
       1.163088             0.00791369806            0.000414815157           
       1.165728             0.00980269155            0.000480705686           
       1.168369             0.00917733582            0.000448515343           
       1.171009             0.00857462493            0.000437131788           
       1.173650             0.00949041983            0.000456566914           
       1.176290             0.00847242538            0.000436447303           
       1.178930             0.00857217395            0.000426667957           
       1.181571             0.00818697306            0.000430590288           
       1.184211             0.00914460999            0.000441333217           
       1.186851              0.0087362341            0.000435343673           
       1.189492              0.0093481299            0.000452832347           
       1.192132             0.00912353731            0.000440734037           
       1.194773             0.00895260864             0.00043395201           
       1.197413             0.00928729563             0.00044559456           
       1.200053             0.00891018383            0.000433708043           
       1.202694             0.00877420161            0.000427142548           
       1.205334             0.00895062818            0.000436131573           
       1.207975             0.00947252734            0.000439875546           
       1.210615             0.00957546128            0.000451611138           
       1.213255             0.00999907186            0.000449283576           
       1.215896             0.00923230706            0.000439896853           
       1.218536             0.00879862414            0.000417071698           
       1.221176             0.00874282264            0.000425670428           
       1.223817             0.00940139298            0.000432213658           
       1.226457               0.008647449             0.00041978596           
       1.229098              0.0098497092            0.000441221338           
       1.231738             0.00996856893             0.00045012599           
       1.234378             0.00965736626            0.000434435672           
       1.237019              0.0101972951            0.000450015584           
       1.239659             0.00979347689            0.000440776538           
       1.242299             0.00973954268            0.000437313968           
       1.244940             0.00917626081            0.000419897759           
       1.247580             0.00941200396            0.000427134958           
       1.250221             0.00931578265            0.000431882561           
       1.252861              0.0101362345            0.000433715481           
       1.255501             0.00954764172            0.000432819357           
       1.258142             0.00952666928            0.000423796324           
       1.260782              0.0092969901            0.000423385494           
       1.263423             0.00967288759            0.000423303961           
       1.266063             0.00959975061            0.000429560547           
       1.268703             0.00987937181            0.000424792479           
       1.271344              0.0107459346            0.000452680361           
       1.273984              0.0104750968            0.000439962276           
       1.276624              0.0098601147            0.000424247662           
       1.279265             0.00997777109            0.000427703115           
       1.281905             0.00972415818            0.000424835054           
       1.284546             0.00989870026            0.000423948304           
       1.287186              0.0100804375            0.000428233393           
       1.289826             0.00928374326            0.000413093815           
       1.292467             0.00995215452            0.000420072595           
       1.295107             0.00994020038            0.000427220163           
       1.297747              0.0103309124            0.000424111565           
       1.300388              0.0106011862            0.000440655877           
       1.303028               0.010343568            0.000424200252           
       1.305669             0.00992811013            0.000420963231           
       1.308309              0.0104320464             0.00042502646           
       1.310949             0.00997534777            0.000420799108           
       1.313590               0.010127361            0.000417431606           
       1.316230              0.0105316123            0.000433343627           
       1.318871              0.0100132882            0.000413429558           
       1.321511              0.0101315739            0.000417948311           
       1.324151              0.0109537996            0.000436293981           
       1.326792               0.010449679            0.000422684136           
       1.329432               0.011114508            0.000438196713           
       1.332072              0.0100402387            0.000409340138           
       1.334713             0.00986040294            0.000410688543           
       1.337353              0.0101664853            0.000410599386           
       1.339994             0.00935325706            0.000399444615           
       1.342634              0.0108381397            0.000420304217           
       1.345274               0.011424937            0.000437173818           
       1.347915              0.0110475698            0.000431036136           
       1.350555              0.0114314176            0.000436747403           
       1.353195              0.0106346487             0.00041319317           
       1.355836              0.0110158508            0.000428468061           
       1.358476              0.0106542681            0.000420192289           
       1.361117             0.00974954535            0.000391872502           
       1.363757             0.00993414855            0.000408674379           
       1.366397              0.0109716492            0.000416110517           
       1.369038              0.0105226378            0.000416096072           
       1.371678              0.0104306479            0.000405908238           
       1.374319             0.00986497344            0.000397879013           
       1.376959              0.0107186911            0.000409028446           
       1.379599              0.0109770021            0.000421995986           
       1.382240             0.00985668328            0.000392286803           
       1.384880              0.0109210999            0.000417995174           
       1.387520              0.0100644464            0.000396575071           
       1.390161              0.0108267648             0.00041020204           
       1.392801              0.0106019219            0.000408339656           
       1.395442              0.0100481457            0.000393413127           
       1.398082              0.0106321308            0.000406068877           
       1.400722              0.0107839856            0.000407110954           
       1.403363              0.0106287941            0.000407921611           
       1.406003              0.0115580101             0.00041493395           
       1.408644              0.0108915642            0.000411249738           
       1.411284              0.0104037798            0.000399730953           
       1.413924              0.0105278996            0.000397148861           
       1.416565              0.0106770719             0.00039948245           
       1.419205              0.0101965946            0.000394236002           
       1.421845              0.0109828018            0.000404008803           
       1.424486              0.0104982832            0.000396740442           
       1.427126             0.00995139816            0.000386024867           
       1.429767              0.0107955881            0.000395869341           
       1.432407              0.0107478688            0.000404943894           
       1.435047              0.0100553812            0.000379911132           
       1.437688              0.0104392624            0.000395667259           
       1.440328             0.00987523652            0.000377372518           
       1.442968              0.0101442173            0.000387772024           
       1.445609              0.0106490996            0.000390769752           
       1.448249             0.00992336082            0.000379658333           
       1.450890              0.0102799439            0.000383662863           
       1.453530              0.0102568119            0.000386069598           
       1.456170              0.0101490518            0.000383171578           
       1.458811              0.0100712321            0.000378663009           
       1.461451             0.00994876575            0.000379120227           
       1.464092              0.0103910547            0.000384078482           
       1.466732              0.0103618902            0.000381186649           
       1.469372             0.00989668277            0.000371386386           
       1.472013              0.0102298066            0.000384340457           
       1.474653             0.00983572438            0.000367559341           
       1.477293              0.0102223469            0.000381021016           
       1.479934               0.010030506            0.000373478463           
       1.482574             0.00996598785             0.00037135662           
       1.485215             0.00996040698            0.000372208599           
       1.487855              0.0102836921            0.000378122628           
       1.490495              0.0106196383            0.000383422183           
       1.493136              0.0100138006            0.000367441981           
       1.495776              0.0100742631            0.000374975127           
       1.498416             0.00973062107            0.000361364891           
       1.501057                0.01018674            0.000372917543           
       1.503697              0.0100484646             0.00036681682           
       1.506338              0.0104770028            0.000377311524           
       1.508978             0.00933382029            0.000354029486           
       1.511618              0.0102622582            0.000371032242           
       1.514259              0.0107709197            0.000380802883           
       1.516899              0.0101026738            0.000368972666           
       1.519540              0.0100034469            0.000365118703           
       1.522180             0.00973919216             0.00035576478           
       1.524820             0.00959458405            0.000360245725           
       1.527461             0.00947453846            0.000350065666           
       1.530101             0.00999291739            0.000363231818           
       1.532741              0.0100813927            0.000363107723           
       1.535382             0.00927532891            0.000349056109           
       1.538022             0.00990967231            0.000357602615           
       1.540663              0.0100393274            0.000363336134           
       1.543303              0.0105580498            0.000367967736           
       1.545943             0.00954342385            0.000351801052           
       1.548584              0.0099920015            0.000361890993           
       1.551224             0.00939558553            0.000341927625           
       1.553864             0.00991409189            0.000360411241           
       1.556505             0.00972911253            0.000351540852           
       1.559145             0.00932342285             0.00034492901           
       1.561786             0.00993901577            0.000354520851           
       1.564426              0.0100623821            0.000356392081           
       1.567066             0.00924342414            0.000338915211           
       1.569707             0.00967402893            0.000351739154           
       1.572347              0.0100670773            0.000354158137           
       1.574988             0.00928215003            0.000338725836           
       1.577628             0.00925452605            0.000345836416           
       1.580268             0.00913288176             0.00033169996           
       1.582909             0.00963028576            0.000346983744           
       1.585549             0.00947006857            0.000340869703           
       1.588189             0.00867248546             0.00032984308           
       1.590830             0.00950888847            0.000339453902           
       1.593470             0.00938226824            0.000339939805           
       1.596111             0.00933323423            0.000336120691           
       1.598751             0.00878176808            0.000329372466           
       1.601391             0.00866803738            0.000325140521           
       1.604032             0.00858293249            0.000320838592           
       1.606672              0.0086453268            0.000328483535           
       1.609312              0.0092571586            0.000329794255           
       1.611953             0.00874473289            0.000325181844           
       1.614593             0.00840971906            0.000316466693           
       1.617234             0.00880912495            0.000325730516           
       1.619874              0.0090194158            0.000325718056           
       1.622514             0.00843895418            0.000317849127           
       1.625155              0.0093245785            0.000333285143           
       1.627795             0.00881543143            0.000320783632           
       1.630436             0.00844216163            0.000317074072           
       1.633076             0.00837509505            0.000314207572           
       1.635716             0.00875322873            0.000320662295           
       1.638357             0.00879615687            0.000320081905           
       1.640997             0.00907433456            0.000327646224           
       1.643637             0.00847960287            0.000310846002           
       1.646278             0.00826481695            0.000311477485           
       1.648918             0.00893142768            0.000319620872           
       1.651559             0.00895148463            0.000324002721           
       1.654199             0.00901900665            0.000320764499           
       1.656839             0.00907538616            0.000321678882           
       1.659480             0.00875075206            0.000318655099           
       1.662120             0.00839913465            0.000308004036           
       1.664761             0.00861974082            0.000315401055           
       1.667401              0.0084450707            0.000309280747           
       1.670041             0.00807976362            0.000302863739           
       1.672682              0.0085541371            0.000308695334           
       1.675322             0.00817075971            0.000307032835           
       1.677962             0.00746127176            0.000287573021           
       1.680603             0.00859663347            0.000311417672           
       1.683243             0.00842345483            0.000305984512           
       1.685884             0.00804668183            0.000300201073           
       1.688524             0.00826263214            0.000303346808           
       1.691164             0.00803877676            0.000298440326           
       1.693805             0.00849586892             0.00030928886           
       1.696445              0.0083792245            0.000302895163           
       1.699085             0.00788419357            0.000294984696           
       1.701726             0.00849561273            0.000302226149           
       1.704366              0.0076971891            0.000294673857           
       1.707007             0.00815895713            0.000296910099           
       1.709647             0.00856764953            0.000308035929           
       1.712287             0.00823012663            0.000296861961           
       1.714928             0.00791961616            0.000294136232           
       1.717568             0.00871654103            0.000305742961           
       1.720209             0.00842837525            0.000302503136           
       1.722849             0.00825717648            0.000299895201           
       1.725489             0.00846592378            0.000298822295           
       1.728130             0.00835070378            0.000302823418           
       1.730770               0.008385382            0.000297037318           
       1.733410             0.00786554708            0.000291459509           
       1.736051             0.00810955364            0.000291352192           
       1.738691             0.00844558178            0.000300362035           
       1.741332             0.00831134706            0.000296131266           
       1.743972             0.00833338982            0.000296633678           
       1.746612             0.00792210693            0.000289287627           
       1.749253             0.00850583122            0.000301051431           
       1.751893             0.00808083277            0.000291673506           
       1.754533             0.00848932948             0.00029485176           
       1.757174             0.00860514536            0.000302406422           
       1.759814             0.00825536839            0.000291680965           
       1.762455             0.00835462532            0.000295927305           
       1.765095             0.00781674353             0.00028222296           
       1.767735             0.00828266401            0.000295448722           
       1.770376             0.00819109206            0.000289355252           
       1.773016             0.00836826893            0.000292929528           
       1.775657             0.00867263671            0.000298820077           
       1.778297             0.00844464228            0.000296308577           
       1.780937             0.00811909022            0.000289185105           
       1.783578             0.00842008679            0.000293113889           
       1.786218               0.008616775            0.000301249294           
       1.788858             0.00826266903            0.000287665235           
       1.791499             0.00805773281            0.000289310957           
       1.794139             0.00862493747            0.000293793236           
       1.796780             0.00913707992            0.000304186828           
       1.799420             0.00904771711            0.000302310284           
       1.802060             0.00903921151            0.000298451669           
       1.804701             0.00873516777            0.000297325424           
       1.807341             0.00954834191            0.000307853131           
       1.809981             0.00923367995            0.000304748606           
       1.812622             0.00936378572            0.000305216095           
       1.815262             0.00891455717             0.00029886657           
       1.817903              0.0086683725            0.000291069911           
       1.820543             0.00858258025            0.000293205741           
       1.823183             0.00854928131            0.000288127439           
       1.825824             0.00860252766            0.000293369724           
       1.828464             0.00838130249            0.000288684502           
       1.831105             0.00902803738            0.000300775527           
       1.833745             0.00829367716            0.000288103294           
       1.836385             0.00881147659            0.000295805742           
       1.839026             0.00902726909            0.000303906751           
       1.841666             0.00806131338            0.000283458143           
       1.844306             0.00847105787            0.000294241115           
       1.846947             0.00870859588            0.000294504142           
       1.849587              0.0082808809            0.000291075928           
       1.852228             0.00826781128            0.000287752746           
       1.854868             0.00904146589            0.000306433842           
       1.857508             0.00853693966            0.000292263291           
       1.860149             0.00866721603            0.000296845297           
       1.862789              0.0087305512            0.000299246222           
       1.865429             0.00864430514            0.000298662202           
       1.868070             0.00853156519            0.000295682962           
       1.870710             0.00849918609            0.000295925051           
       1.873351             0.00865094505            0.000300461341           
       1.875991             0.00903089478            0.000308649177           
       1.878631             0.00865118235            0.000299282968           
       1.881272             0.00906461437            0.000305633126           
       1.883912             0.00884793205             0.00030549938           
       1.886553             0.00840914623            0.000294255322           
       1.889193             0.00951458657            0.000316614929           
       1.891833             0.00942413913            0.000311520559           
       1.894474             0.00926770772             0.00031136925           
       1.897114             0.00924490882            0.000308573801           
       1.899754             0.00893253003            0.000306717402           
       1.902395             0.00913198378            0.000310188945           
       1.905035             0.00927035085            0.000311305309           
       1.907676             0.00922586527            0.000310918522           
       1.910316             0.00902590101            0.000309491455           
       1.912956             0.00887043387            0.000306802258           
       1.915597             0.00858169696            0.000298621622           
       1.918237             0.00919372652            0.000313778671           
       1.920878             0.00934682413              0.0003107813           
       1.923518             0.00855552763            0.000305234922           
       1.926158             0.00863055567            0.000299525701           
       1.928799             0.00840431844            0.000299501543           
       1.931439             0.00893517152            0.000306340793           
       1.934079             0.00896914349            0.000310030767           
       1.936720             0.00851287148            0.000300264264           
       1.939360             0.00789726779            0.000291991125           
       1.942001             0.00845780334            0.000301013563           
       1.944641             0.00841534935            0.000298963299           
       1.947281              0.0086809143            0.000305110891           
       1.949922             0.00813654494            0.000295759171           
       1.952562             0.00886105704            0.000311302146           
       1.955202              0.0084894262            0.000297048637           
       1.957843             0.00906422257            0.000316690612           
       1.960483             0.00850647805            0.000301898972           
       1.963124             0.00884873844            0.000307684236           
       1.965764             0.00849581205            0.000301593696           
       1.968404             0.00850458141            0.000307145233           
       1.971045             0.00875545285            0.000303830458           
       1.973685             0.00818018467            0.000299159885           
       1.976326             0.00823232212            0.000298803291           
       1.978966              0.0081151933            0.000298073839           
       1.981606             0.00840331123            0.000300111256           
       1.984247             0.00825535937            0.000300051325           
       1.986887             0.00819397054            0.000301729356           
       1.989527             0.00824025455            0.000296276543           
       1.992168             0.00810792051            0.000300978529           
       1.994808             0.00836173513            0.000302098007           
       1.997449              0.0086522386            0.000306850298           
       2.000089             0.00820659554            0.000297083811           
       2.002729             0.00853463571             0.00030990549           
       2.005370              0.0082225875             0.00029840483           
       2.008010             0.00821644836            0.000302253755           
       2.010650             0.00790638584             0.00029564768           
       2.013291             0.00843169126            0.000307049065           
       2.015931             0.00825517289             0.00030164355           
       2.018572             0.00756115394            0.000292519583           
       2.021212             0.00841602853            0.000305843491           
       2.023852             0.00767216645            0.000293548672           
       2.026493             0.00808966376            0.000300108946           
       2.029133              0.0079838435            0.000295865289           
       2.031774             0.00766358656            0.000292681583           
       2.034414              0.0075865504            0.000289468946           
       2.037054              0.0070790597            0.000283145378           
       2.039695             0.00755407306            0.000286729539           
       2.042335             0.00792143848            0.000298616612           
       2.044975             0.00802269655            0.000298117339           
       2.047616             0.00807523305            0.000300373481           
       2.050256             0.00823426987            0.000299748994           
       2.052897             0.00764375739            0.000297354395           
       2.055537             0.00757455609            0.000287935058           
       2.058177             0.00759467544            0.000290863991           
       2.060818             0.00770514811            0.000293851362           
       2.063458             0.00767553773            0.000293690145           
       2.066098             0.00803249851            0.000299108467           
       2.068739             0.00756662563            0.000293331908           
       2.071379              0.0071797206            0.000281514395           
       2.074020             0.00789549379            0.000299256296           
       2.076660             0.00754589259             0.00029057288           
       2.079300             0.00784601004            0.000296251989           
       2.081941             0.00745589672            0.000290548791           
       2.084581             0.00740134053            0.000289698272           
       2.087222               0.007918854            0.000299859378           
       2.089862             0.00750018201            0.000288187607           
       2.092502             0.00707137144            0.000284912499           
       2.095143             0.00766417179            0.000292375267           
       2.097783             0.00776613413            0.000298792201           
       2.100423             0.00766207632            0.000291092995           
       2.103064             0.00723205819            0.000287689424           
       2.105704             0.00722149803            0.000286379519           
       2.108345             0.00705180499            0.000284294024           
       2.110985             0.00764317941            0.000291817475           
       2.113625             0.00739927958            0.000291647502           
       2.116266             0.00762195445            0.000293812548           
       2.118906             0.00766761576            0.000294477044           
       2.121546             0.00820497342            0.000304379149           
       2.124187             0.00684071791            0.000281768859           
       2.126827             0.00732338885            0.000286967861           
       2.129468             0.00766323816            0.000296614272           
       2.132108             0.00792344799            0.000300983988           
       2.134748             0.00773356149            0.000296234922           
       2.137389             0.00735988788            0.000291409983           
       2.140029             0.00725602806            0.000288643883           
       2.142670             0.00777684205            0.000299311614           
       2.145310               0.007542874            0.000295900985           
       2.147950             0.00711055028            0.000288406647           
       2.150591             0.00733092448            0.000290156153           
       2.153231             0.00725458105            0.000292908728           
       2.155871             0.00734276228            0.000290427654           
       2.158512             0.00734830069            0.000295772426           
       2.161152             0.00722084088            0.000285872062           
       2.163793             0.00747294706            0.000295551709           
       2.166433             0.00717091466            0.000284496977           
       2.169073             0.00782648805            0.000304156463           
       2.171714             0.00777339076            0.000296951805           
       2.174354             0.00740401715            0.000294239303           
       2.176995             0.00693606633             0.00028242688           
       2.179635             0.00801486704            0.000309342695           
       2.182275             0.00701388529            0.000283637211           
       2.184916             0.00712161762            0.000291847722           
       2.187556             0.00723613608            0.000289448764           
       2.190196             0.00750741606            0.000299458527           
       2.192837             0.00722991224            0.000290653766           
       2.195477             0.00705761016            0.000289939566           
       2.198118             0.00811626458             0.00030518555           
       2.200758             0.00718807958            0.000291665297           
       2.203398             0.00744621366             0.00029193326           
       2.206039             0.00727012036            0.000292869766           
       2.208679             0.00733289047            0.000291252128           
       2.211319             0.00766618413            0.000299199281           
       2.213960               0.006909166            0.000281022706           
       2.216600             0.00742956356             0.00029828006           
       2.219241              0.0071946473             0.00028925911           
       2.221881             0.00731023399            0.000293093243           
       2.224521             0.00730379709            0.000291948034           
       2.227162             0.00702485947            0.000290816085           
       2.229802             0.00716887811            0.000289013229           
       2.232443              0.0072693355            0.000292175306           
       2.235083             0.00764452147            0.000297823732           
       2.237723             0.00685708945            0.000284229774           
       2.240364             0.00771706671            0.000299993024           
       2.243004             0.00707223169            0.000288053617           
       2.245644             0.00707990769            0.000287544352           
       2.248285             0.00748614979            0.000297598299           
       2.250925             0.00684034041            0.000283142094           
       2.253566             0.00759058202            0.000298994887           
       2.256206             0.00722183997            0.000290768456           
       2.258846             0.00774825903            0.000301182197           
       2.261487             0.00739491447            0.000294743632           
       2.264127             0.00784515472            0.000306456247           
       2.266767             0.00739506533            0.000292726403           
       2.269408             0.00746519284            0.000297604194           
       2.272048             0.00736263806            0.000293734871           
       2.274689             0.00730353099            0.000293703848           
       2.277329             0.00725076624            0.000292252125           
       2.279969             0.00676682921            0.000283186579           
       2.282610             0.00696038472            0.000284407233           
       2.285250              0.0069576243            0.000288822971           
       2.287891             0.00719062674            0.000290656372           
       2.290531             0.00677419503            0.000283505642           
       2.293171             0.00714139364            0.000291073677           
       2.295812              0.0073988122            0.000294700763           
       2.298452             0.00722058766            0.000292994317           
       2.301092             0.00749868513            0.000300479942           
       2.303733               0.006947166            0.000283498364           
       2.306373             0.00743579228            0.000300472674           
       2.309014             0.00706537563            0.000287248897           
       2.311654              0.0073415816            0.000295588669           
       2.314294             0.00742024172            0.000296519209           
       2.316935             0.00737523419            0.000296786942           
       2.319575             0.00706955179            0.000289483293           
       2.322215             0.00763320697            0.000305088618           
       2.324856              0.0073395173            0.000291649202           
       2.327496              0.0077582987            0.000307203079           
       2.330137             0.00703093112            0.000287054583           
       2.332777             0.00743563727            0.000298429213           
       2.335417               0.007286768            0.000294539787           
       2.338058             0.00741280873            0.000298265214           
       2.340698             0.00698569109            0.000286694071           
       2.343339             0.00688847687            0.000290124948           
       2.345979             0.00695028806            0.000285608428           
       2.348619             0.00708245106            0.000293755808           
       2.351260             0.00716608219            0.000289203898           
       2.353900             0.00743602486            0.000300841013           
       2.356540             0.00712583917            0.000290449224           
       2.359181             0.00737984629            0.000299533109           
       2.361821             0.00710592408            0.000290340341           
       2.364462             0.00712782018            0.000295647206           
       2.367102             0.00719019734            0.000288351278           
       2.369742             0.00709320817            0.000296663548           
       2.372383             0.00670223555            0.000279965429           
       2.375023             0.00702599659            0.000294116117           
       2.377663             0.00714783631            0.000290351235           
       2.380304              0.0070106765            0.000291540808           
       2.382944             0.00697239588            0.000287899992           
       2.385585             0.00697040066            0.000290580119           
       2.388225             0.00760556079            0.000302159294           
       2.390865             0.00711022016             0.00029290214           
       2.393506             0.00708865527            0.000291109845           
       2.396146             0.00702786766            0.000290819713           
       2.398787             0.00672701188            0.000284775656           
       2.401427             0.00689846113            0.000286630771           
       2.404067             0.00707210015            0.000294645271           
       2.406708             0.00717535676             0.00029305813           
       2.409348             0.00700519559            0.000291740691           
       2.411988             0.00712380925            0.000293260631           
       2.414629             0.00702185265            0.000292107121           
       2.417269             0.00677699268            0.000284362789           
       2.419910             0.00662026917            0.000284599823           
       2.422550             0.00669294898            0.000281813966           
       2.425190              0.0069725569            0.000296696666           
       2.427831             0.00730087046            0.000292183461           
       2.430471             0.00693205496            0.000293030174           
       2.433112             0.00681520902            0.000283694161           
       2.435752             0.00694418716            0.000293615728           
       2.438392             0.00756367915            0.000301282174           
       2.441033             0.00726004374            0.000296525511           
       2.443673             0.00751284261            0.000302449433           
       2.446313             0.00651401415             0.00028012695           
       2.448954             0.00666619183            0.000285866731           
       2.451594             0.00734666639            0.000298302011           
       2.454235             0.00755710828            0.000301602821           
       2.456875             0.00796396983            0.000311183581           
       2.459515             0.00719507464             0.00029623655           
       2.462156             0.00796094645            0.000309997943           
       2.464796             0.00760850107            0.000308403919           
       2.467436             0.00747874748             0.00029935153           
       2.470077             0.00800919687            0.000314057632           
       2.472717             0.00825028443            0.000314760988           
       2.475358             0.00798127617            0.000313094389           
       2.477998             0.00743703111            0.000300618498           
       2.480638             0.00737746146            0.000300139623           
       2.483279             0.00723315767             0.00029846647           
       2.485919             0.00719234512              0.0002955393           
       2.488560             0.00738995816            0.000300814431           
       2.491200             0.00734147216            0.000299414904           
       2.493840             0.00739603458             0.00029888925           
       2.496481              0.0068465369            0.000291332337           
       2.499121             0.00765711274            0.000303993618           
       2.501761              0.0074445117            0.000304833507           
       2.504402              0.0074685379            0.000299473751           
       2.507042             0.00729041259            0.000300799475           
       2.509683             0.00726487449            0.000297537626           
       2.512323              0.0067351614            0.000287606728           
       2.514963              0.0141052752            0.000417040934           
       2.517604              0.0304375743            0.000610224102           
       2.520244              0.0164806493            0.000449124185           
       2.522884             0.00904226402            0.000331945528           
       2.525525             0.00866052102            0.000327531439           
       2.528165              0.0147192401            0.000425045747           
       2.530806              0.0199565735            0.000493063295           
       2.533446              0.0160510567            0.000446122285           
       2.536086              0.0104788712            0.000357436628           
       2.538727             0.00988972112            0.000349469394           
       2.541367              0.0108653666              0.0003652546           
       2.544008             0.00816094482            0.000316819181           
       2.546648              0.0072497566            0.000298948124           
       2.549288             0.00712417724            0.000296390302           
       2.551929             0.00762228588            0.000307589446           
       2.554569             0.00706570239            0.000293440164           
       2.557209             0.00727591513            0.000301137734           
       2.559850             0.00695045843            0.000290941141           
       2.562490             0.00761767191             0.00030680347           
       2.565131             0.00682740008            0.000290958987           
       2.567771             0.00700079421            0.000293068987           
       2.570411             0.00713565597            0.000299478853           
       2.573052             0.00669435176            0.000286684476           
       2.575692             0.00733805813              0.0003009477           
       2.578332             0.00648721198            0.000282127013           
       2.580973             0.00716073326            0.000298814347           
       2.583613             0.00677728242            0.000288054519           
       2.586254             0.00710007411            0.000297442904           
       2.588894             0.00725428557            0.000299051941           
       2.591534             0.00739505714            0.000302494976           
       2.594175             0.00721226392            0.000300467078           
       2.596815             0.00724842926            0.000298418873           
       2.599456              0.0072987988            0.000301903991           
       2.602096             0.00709104635            0.000296462682           
       2.604736             0.00700231984            0.000295374745           
       2.607377             0.00703358175            0.000294901294           
       2.610017             0.00684509045            0.000290821322           
       2.612657             0.00686589049            0.000293320307           
       2.615298             0.00699718875            0.000293215162           
       2.617938             0.00642154328            0.000283352517           
       2.620579             0.00715182465             0.00029658804           
       2.623219             0.00693460057            0.000296720714           
       2.625859             0.00722569174            0.000297779615           
       2.628500             0.00677760866            0.000293008045           
       2.631140             0.00708654417            0.000294328038           
       2.633780              0.0064523532            0.000284456618           
       2.636421             0.00779228062             0.00030975565           
       2.639061              0.0071388266            0.000300028259           
       2.641702             0.00698933753            0.000293696756           
       2.644342             0.00760394928             0.00030885083           
       2.646982             0.00688055704            0.000293543254           
       2.649623             0.00704874784            0.000298890461           
       2.652263             0.00711528774            0.000297908348           
       2.654904             0.00704375562            0.000298016501           
       2.657544             0.00671161232            0.000288858581           
       2.660184              0.0069527826             0.00029437866           
       2.662825             0.00689227402            0.000293797428           
       2.665465             0.00699115263            0.000296444638           
       2.668105             0.00666525593            0.000289567321           
       2.670746             0.00703291562            0.000294929674           
       2.673386             0.00697814806            0.000297339547           
       2.676027             0.00744305126            0.000304474101           
       2.678667             0.00690639573            0.000294816986           
       2.681307             0.00743884003            0.000303564386           
       2.683948             0.00762647137            0.000310421543           
       2.686588              0.0075017444            0.000305047462           
       2.689229               0.007283058            0.000303265846           
       2.691869             0.00771107908             0.00030893527           
       2.694509             0.00754703434            0.000309822855           
       2.697150             0.00727867186            0.000299408376           
       2.699790             0.00700261266            0.000299775945           
       2.702430             0.00696327297              0.0002932013           
       2.705071             0.00751277567            0.000308718611           
       2.707711              0.0066302456            0.000287143724           
       2.710352              0.0068263731            0.000293018108           
       2.712992             0.00644093445            0.000285550951           
       2.715632             0.00690528586            0.000293983231           
       2.718273             0.00643371207            0.000284709476           
       2.720913             0.00652175481            0.000287129505           
       2.723553             0.00651088662            0.000285893256           
       2.726194             0.00667973205            0.000290973111           
       2.728834             0.00658283884            0.000286287319           
       2.731475             0.00705004884            0.000298861991           
       2.734115             0.00702577082            0.000296569184           
       2.736755             0.00738583547            0.000306083757           
       2.739396              0.0068207395            0.000292586016           
       2.742036             0.00674401035            0.000292921449           
       2.744677             0.00726899762            0.000304553658           
       2.747317             0.00783231799            0.000314598524           
       2.749957             0.00657764015            0.000290392782           
       2.752598             0.00704896985            0.000301522311           
       2.755238             0.00683397399            0.000296754635           
       2.757878             0.00776045682             0.00031533066           
       2.760519             0.00788495775            0.000314493985           
       2.763159              0.0072341736            0.000306134224           
       2.765800             0.00682625358            0.000292340348           
       2.768440             0.00693421571            0.000298524535           
       2.771080             0.00727762123            0.000303249966           
       2.773721              0.0068815135            0.000298499415           
       2.776361             0.00685308586            0.000294682869           
       2.779001             0.00681936562            0.000297046947           
       2.781642             0.00660624218            0.000290373376           
       2.784282             0.00650357662            0.000288208749           
       2.786923             0.00682339323            0.000292964938           
       2.789563             0.00705507392            0.000298495491           
       2.792203             0.00621247417            0.000281886978           
       2.794844             0.00660734541            0.000289384719           
       2.797484              0.0066618621            0.000290985533           
       2.800125              0.0070153629            0.000298220201           
       2.802765             0.00660976191            0.000294837123           
       2.805405              0.0069585081            0.000298148475           
       2.808046             0.00664317708            0.000295781608           
       2.810686             0.00662500134            0.000292229318           
       2.813326             0.00708623229            0.000305969893           
       2.815967             0.00623000229            0.000285081811           
       2.818607             0.00715972261            0.000308669208           
       2.821248             0.00670518565            0.000294985988           
       2.823888             0.00651110864            0.000295367565           
       2.826528             0.00600645728            0.000281997772           
       2.829169             0.00672332876            0.000297034607           
       2.831809             0.00629646405            0.000287702466           
       2.834449             0.00649895238            0.000287190069           
       2.837090             0.00668742296            0.000293077772           
       2.839730             0.00672434608            0.000291798715           
       2.842371             0.00713564276            0.000302684601           
       2.845011             0.00683636348            0.000295608329           
       2.847651             0.00693835875            0.000298352244           
       2.850292             0.00669355459            0.000291376619           
       2.852932             0.00671617846             0.00029239201           
       2.855573             0.00704569655            0.000302109185           
       2.858213             0.00687295635            0.000295034844           
       2.860853             0.00640262226            0.000286892375           
       2.863494             0.00657199934            0.000291362257           
       2.866134              0.0070319759            0.000305613545           
       2.868774             0.00746801896            0.000310125315           
       2.871415             0.00634880315            0.000288773753           
       2.874055             0.00668859417            0.000297868895           
       2.876696             0.00686333696             0.00029901779           
       2.879336             0.00621511368            0.000286435765           
       2.881976             0.00678532769            0.000299040861           
       2.884617             0.00664264682            0.000294236402           
       2.887257             0.00678179289            0.000295229229           
       2.889897             0.00689189213            0.000301027335           
       2.892538             0.00710035631            0.000303427622           
       2.895178             0.00702038214            0.000298637172           
       2.897819             0.00713942817            0.000304255949           
       2.900459             0.00638683679            0.000285390518           
       2.903099             0.00715331452            0.000303607164           
       2.905740             0.00657471136            0.000287820466           
       2.908380             0.00731224544            0.000307581315           
       2.911021             0.00707926307            0.000303216901           
       2.913661             0.00689490547            0.000295949573           
       2.916301             0.00661172068            0.000293931083           
       2.918942             0.00702080722            0.000298318346           
       2.921582             0.00696242213            0.000300192174           
       2.924222             0.00650352922            0.000288447929           
       2.926863             0.00697957438             0.00029961213           
       2.929503             0.00735739664            0.000311029456           
       2.932144             0.00762544274            0.000311451231           
       2.934784             0.00676579529            0.000294617602           
       2.937424             0.00695714809            0.000299307375           
       2.940065             0.00689066658            0.000298116307           
       2.942705             0.00676573785            0.000296299092           
       2.945346             0.00766618147            0.000313537533           
       2.947986             0.00799646827            0.000321340289           
       2.950626             0.00876123775            0.000337389914           
       2.953267              0.0100840586            0.000358120086           
       2.955907             0.00876444372            0.000338280782           
       2.958547             0.00811555602            0.000322179671           
       2.961188             0.00672581807            0.000295860104           
       2.963828             0.00667898333            0.000293157397           
       2.966469             0.00676052076            0.000295014869           
       2.969109             0.00791359819            0.000320816194           
       2.971749             0.00798118059             0.00032123553           
       2.974390             0.00918550161            0.000345566411           
       2.977030             0.00965002131            0.000353522374           
       2.979670             0.00807644849            0.000321331982           
       2.982311             0.00722516088            0.000306119152           
       2.984951             0.00718182641            0.000305988897           
       2.987592             0.00738487645             0.00030923704           
       2.990232             0.00720512682            0.000306230379           
       2.992872             0.00777980381            0.000315718929           
       2.995513              0.0101130422            0.000362789996           
       2.998153              0.0118510346            0.000395262316           
       3.000794               0.022878025             0.00054119088           
       3.003434              0.0355527607            0.000681802646           
       3.006074              0.0233016823            0.000553749132           
       3.008715              0.0165714005            0.000470536721           
       3.011355               0.018798879            0.000506375968           
       3.013995              0.0163774692            0.000470328724           
       3.016636              0.0264686075            0.000599041872           
       3.019276               0.161064502             0.00151303163           
       3.021917               0.439392584             0.00245666344           
       3.024557               0.157506283               0.001482592           
       3.027197              0.0779888644             0.00106076126           
       3.029838               0.124297306             0.00133275545           
       3.032478              0.0935252681             0.00116297794           
       3.035118              0.0597903721            0.000934657241           
       3.037759              0.0874870268             0.00113259018           
       3.040399              0.0720519709             0.00103959737           
       3.043040              0.0622126033            0.000975392013           
       3.045680              0.0517851924             0.00087619783           
       3.048320              0.0779206573             0.00109204209           
       3.050961                0.17170513             0.00163733626           
       3.053601               0.130162989             0.00141927038           
       3.056242              0.0561186237            0.000937898028           
       3.058882               0.173337903              0.0016728684           
       3.061522               0.263697978             0.00204903297           
       3.064163              0.0403834074            0.000803316263           
       3.066803              0.0181075144            0.000548317767           
       3.069443              0.0332776566            0.000738375215           
       3.072084               0.096042369             0.00126555508           
       3.074724              0.0480204672            0.000900160091           
       3.077365              0.0108781654            0.000428127719           
       3.080005             0.00894539108            0.000392540697           
       3.082645             0.00914541089            0.000398925966           
       3.085286             0.00807803696            0.000374992701           
       3.087926             0.00739540012            0.000361081451           
       3.090566              0.0072618944            0.000361493037           
       3.093207              0.0072934217            0.000358362799           
       3.095847             0.00790062057            0.000380800121           
       3.098488             0.00843783988            0.000392820304           
       3.101128             0.00750922638            0.000372593465           
       3.103768             0.00880772112              0.0004057974           
       3.106409             0.00958851256            0.000426238119           
       3.109049             0.00957984523            0.000429357454           
       3.111690              0.0131418939            0.000500905004           
       3.114330              0.0179598042            0.000590778033           
       3.116970              0.0181130779            0.000601547172           
       3.119611              0.0139626682            0.000524714001           
       3.122251              0.0107770297            0.000464761564           
       3.124891             0.00907623447            0.000428584861           
       3.127532              0.0083964588            0.000419648546           
       3.130172             0.00925085312            0.000431420937           
       3.132813             0.00812432133            0.000412528605           
       3.135453             0.00725790406            0.000398136499           
       3.138093             0.00693608988            0.000379974899           
       3.140734             0.00601649939            0.000360477249           
       3.143374             0.00653350172            0.000381388528           
       3.146014              0.0059659907            0.000361802749           
       3.148655             0.00531333476            0.000344128033           
       3.151295              0.0060790502            0.000371003782           
       3.153936              0.0067881215            0.000397832006           
       3.156576             0.00731143899            0.000408142716           
       3.159216             0.00600366946            0.000372869249           
       3.161857             0.00615224304            0.000382085122           
       3.164497             0.00640847374            0.000398183007           
       3.167138             0.00583632791            0.000370876069           
       3.169778             0.00634425594            0.000393660068           
       3.172418             0.00584343175            0.000380010297           
       3.175059             0.00628465354            0.000399253487           
       3.177699             0.00698397613            0.000419218702           
       3.180339             0.00583285611            0.000386540144           
       3.182980             0.00637984439            0.000409715783           
       3.185620             0.00679150823            0.000427347193           
       3.188261             0.00640673072            0.000409626949           
       3.190901             0.00602840612            0.000403471189           
       3.193541             0.00627054079            0.000412850208           
       3.196182             0.00600224356            0.000412325543           
       3.198822              0.0062902016            0.000416983451           
       3.201463             0.00583719574            0.000406882328           
       3.204103             0.00615334364            0.000423318526           
       3.206743             0.00634133529            0.000433369583           
       3.209384             0.00516502548            0.000389371342           
       3.212024             0.00616301248            0.000426839245           
       3.214664             0.00637783891            0.000442491047           
       3.217305             0.00491602126            0.000397548834           
       3.219945             0.00604701586            0.000437227335           
       3.222586             0.00603175583            0.000439146567           
       3.225226             0.00564611911            0.000434448191           
       3.227866             0.00580098434            0.000443772808           
       3.230507             0.00591713939              0.0004535419           
       3.233147             0.00525767343            0.000421198332           
       3.235787             0.00610726927            0.000454078991           
       3.238428             0.00639370497            0.000472810789           
       3.241068             0.00571612646            0.000456121325           
       3.243709             0.00637238028            0.000478920105           
       3.246349             0.00520858672             0.00043056176           
       3.248989             0.00547342396            0.000451460714           
       3.251630             0.00596631682            0.000473435403           
       3.254270             0.00621255029            0.000497956175           
       3.256911                0.00620304            0.000485107699           
       3.259551             0.00551317243             0.00046744326           
       3.262191             0.00553252468            0.000472570895           
       3.264832             0.00575899203            0.000486669955           
       3.267472             0.00669261674            0.000532077567           
       3.270112             0.00603700112            0.000506783154           
       3.272753             0.00571952122            0.000499339537           
       3.275393              0.0060391729             0.00051574443           
       3.278034             0.00545414291            0.000500111905           
       3.280674             0.00581292558            0.000517797476           
       3.283314             0.00550513359            0.000506686771           
       3.285955             0.00581572745            0.000530565959           
       3.288595             0.00555409588            0.000524278732           
       3.291235             0.00617193731            0.000555917081           
       3.293876             0.00628915355            0.000564493958           
       3.296516             0.00681277183              0.0005995067           
       3.299157             0.00586011641            0.000564417198           
       3.301797             0.00546331918            0.000545205116           
       3.304437             0.00497803464            0.000530183135           
       3.307078             0.00426959908            0.000495780136           
       3.309718             0.00656832041            0.000621064152           
       3.312359             0.00568924918            0.000589691001           
       3.314999             0.00551063487             0.00058644876           
       3.317639             0.00570023604            0.000602874827           
       3.320280              0.0057920274            0.000616583936           
       3.322920             0.00640197176            0.000657935754           
       3.325560             0.00528090972            0.000609097958           
       3.328201             0.00603202399            0.000653726814           
       3.330841              0.0053143948            0.000628532402           
       3.333482             0.00588065772            0.000669565819           
       3.336122             0.00526917141            0.000647574257           
       3.338762             0.00499582667            0.000636320991           
       3.341403             0.00475255171            0.000626392208           
       3.344043             0.00474602341            0.000649853093           
       3.346683             0.00601496248            0.000739008372           
       3.349324             0.00500479348            0.000684537698           
       3.351964             0.00621001753            0.000787032863           
       3.354605             0.00506036566            0.000718501457           
       3.357245              0.0057289322            0.000791364716           
       3.359885             0.00630891598            0.000830755614           
       3.362526             0.00584265621            0.000840345715           
       3.365166             0.00514601981            0.000778920768           
       3.367807             0.00548721032            0.000861005201           
       3.370447             0.00615823676            0.000912486628           
       3.373087             0.00522998915            0.000887493427           
       3.375728              0.0043955915            0.000807472965           
       3.378368             0.00493287646             0.00092432415           
       3.381008             0.00435017242            0.000860446757           
       3.383649             0.00454011919            0.000951312003           
       3.386289              0.0060891575             0.00110216604           
       3.388930             0.00425658537             0.00101204333           
       3.391570             0.00502425079             0.00109998346           
       3.394210             0.00704699362             0.00139584037           
       3.396851             0.00505142775             0.00128015916           
       3.399491             0.00492774306             0.00128733728           
       3.402131              0.0046069126              0.0014734015           
       3.404772             0.00590782244             0.00166922902           
       3.407412             0.00557743598             0.00201255246           
       3.410053             0.00443569669             0.00186886368           
       3.412693             0.00590328933             0.00305028743           
       3.415333           -2.52812369e-05                         0           
