################################################################################
# EDF_DataBlockID                     0.Image.Psd
# EDF_BinarySize                      2105344
# EDF_HeaderSize                      2560
# ByteOrder                           LowByteFirst
# DataType                            FloatValue
# Dim_1                               512
# Dim_2                               1028
# Image                               0
# HeaderID                            EH:000000:000000:000000
# Size                                2105344
# Center_1                            304.9000
# Center_2                            588.7000
# Comment                             Xenocs_Cell_Window - front_window_open_only
# DDummy                              0.6
# Date                                2025-10-19T09:11:48
# Delta                               21.910000
# Dummy                               -1.5
# ExposureTime                        360
# Gamma                               15.360000
# Intensity1                          8.99626e-10
# PSize_1                             7.5e-05
# PSize_2                             7.5e-05
# Pressure                            0.0330772
# SampleDistance                      0.115750
# SampleEnvKind                       large
# SampleEnvPN                         ElectroChemical cell
# SampleEnvSN                         1141
# Thickness                           0
# Wavelength                          1.541891e-10
# Wavelength                          1.54189e-10
# aux                                 0
# aux_dial                            0.002375
# beamx                               588.429
# beamx_dial                          588.429
# beamz                               657.855
# beamz_dial                          657.855
# det0x                               -0.000396875
# det0x_dial                          6.36905
# det0xvd                             -0.0005
# det0xvd_dial                        -0.0005
# det0y                               450.002
# det0y_dial                          481.635
# det0z                               0
# det0z_dial                          1.2295
# det0zvd                             0
# det0zvd_dial                        0
# mag                                 1.818
# mag_dial                            1.818
# om                                  0.2499
# om_dial                             -0.610199
# phi                                 -0.0120535
# phi_dial                            0
# ry                                  0.599993
# ry_dial                             0.599993
# s1bot                               0.8
# s1bot_dial                          -1.66094
# s1hl                                0.8
# s1hl_dial                           -0.608437
# s1hr                                0.8
# s1hr_dial                           0.970938
# s1top                               0.8
# s1top_dial                          -0.461562
# s2bot                               0.45
# s2bot_dial                          1.36109
# s2hl                                0.45
# s2hl_dial                           -0.83375
# s2hr                                0.45
# s2hr_dial                           -0.118594
# s2top                               0.45
# s2top_dial                          1.44734
# w2theta                             32
# w2theta_dial                        32
# waxsch                              19.2605
# waxsch_dial                         -32.7238
# waxsh                               137.085
# waxsh_dial                          -43.5335
# waxsth                              26.0607
# waxsth_dial                         -19.4068
# waxsz                               67.0407
# waxsz_dial                          -23.7962
# wind                                65.9854
# wind_dial                           66.0041
# wpsi                                124
# wpsi_dial                           124
# wstod                               115
# wstod_dial                          115
# x                                   0
# x_dial                              1.00969
# z                                   0
# z_dial                              13.3172
# CountCutoff                         6807993
# DetectorModel                       Dectris EIGER2 Si 500K, S/N E-01-0554
# ThresholdSetting                    4023.88989258
# Saturation                          0
# FlatField                           Corrected
# BackgroundReductionExtra            0.02
# BackgroundCorrectionConstant        0.0026712
# Detector                            0
# Monitor                             0
# Pil_Roi0                            0
# SumForIntensity1                    3.23865e+08
# TransmittedFlux                     899626
# det                                 0
# mon                                 0
# pilai0                              3.23865e+08
# pilai1                              699914
# pilct0                              5.60269e+08
# pilct1                              699914
# pilroi0                             0
# pilroi1                             0
# sec                                 1
# title                               20251017__1_00355.edf
# usaxs0                              0
# Operation                           Azimuthal average I(q)
# Error_model                         ErrorModel.poisson
# Geometrical_correction              True
# Transmission_correction             True
# Thickness_correction                False
# Binning mode                        Uniform
# Binning factor                      1.0
# Psi                                 0.0
# Omega                               0.2499
# MaskInvalidPixels                   True
# DetectorEdge                        3
# MaskFiles                           ['20251017__1_00233_mask.edf']
################################################################################
    q(A⁻¹)                Intensity(a.u.)            Sigma_I(a.u.)            
       0.690460             0.00766607251             0.00804934161           
       0.693100             0.00627843445             0.00325677178           
       0.695741             0.00457614249             0.00234897035           
       0.698381              0.0070659286             0.00272997427           
       0.701021             0.00685809362             0.00219503021           
       0.703662             0.00812144212             0.00221104567           
       0.706302             0.00717826582             0.00200755178           
       0.708942             0.00473010223             0.00144755868           
       0.711583             0.00612040259             0.00164630904           
       0.714223             0.00526743271             0.00133089897           
       0.716864             0.00410963094             0.00119960623           
       0.719504             0.00624459846             0.00136856814           
       0.722144             0.00495192931             0.00117702877           
       0.724785             0.00642742778             0.00131898959           
       0.727425             0.00619279815             0.00120089239           
       0.730065             0.00455958924             0.00106026653           
       0.732706              0.0056813001              0.0010642751           
       0.735346             0.00506536246             0.00108549453           
       0.737987              0.0086177989              0.0012254864           
       0.740627             0.00770677078             0.00126956324           
       0.743267             0.00886915579             0.00117150673           
       0.745908             0.00668768003              0.0010902461           
       0.748548             0.00765035875             0.00108757172           
       0.751189             0.00569068698            0.000929155446           
       0.753829             0.00521469767            0.000897471569           
       0.756469             0.00759112922             0.00101844916           
       0.759110             0.00621178996            0.000952923721           
       0.761750             0.00558693208            0.000827093545           
       0.764390             0.00573308456            0.000899377208           
       0.767031             0.00584375931             0.00082164973           
       0.769671             0.00552953232            0.000847635066           
       0.772312             0.00609471411            0.000810937915           
       0.774952             0.00613815435            0.000872461261           
       0.777592             0.00649156043            0.000820647937           
       0.780233             0.00492477144            0.000753532901           
       0.782873             0.00651379068            0.000792473691           
       0.785513              0.0067304318            0.000856907248           
       0.788154             0.00583535834            0.000732877094           
       0.790794             0.00713300291            0.000838613559           
       0.793435             0.00705347373            0.000800977172           
       0.796075              0.0072155751             0.00081440902           
       0.798715             0.00637970653            0.000761414325           
       0.801356             0.00648651763            0.000747215139           
       0.803996             0.00671332373            0.000772314234           
       0.806637             0.00622927851            0.000703229752           
       0.809277              0.0063856784            0.000744871355           
       0.811917              0.0066515687            0.000719389893           
       0.814558             0.00582714691            0.000689787037           
       0.817198             0.00642419796              0.0006905857           
       0.819838              0.0077873423            0.000793106737           
       0.822479              0.0060679317            0.000645175909           
       0.825119             0.00764485312            0.000777947896           
       0.827760             0.00567170477             0.00062089233           
       0.830400             0.00502433676            0.000615723312           
       0.833040             0.00639311642            0.000648211562           
       0.835681             0.00815021962            0.000766443657           
       0.838321              0.0071645675            0.000672601447           
       0.840961             0.00596403658            0.000641431789           
       0.843602             0.00607842395            0.000609969947           
       0.846242             0.00664476658            0.000660270273           
       0.848883             0.00679608226            0.000649566724           
       0.851523             0.00777480209            0.000699973694           
       0.854163             0.00606050065            0.000610824258           
       0.856804             0.00633958372            0.000608745052           
       0.859444             0.00547789183             0.00056993212           
       0.862085             0.00617504181            0.000596310621           
       0.864725             0.00629894179            0.000600052167           
       0.867365             0.00700198624            0.000628122659           
       0.870006             0.00778774786            0.000671671984           
       0.872646             0.00689868599            0.000604658303           
       0.875286             0.00635564832             0.00060014754           
       0.877927             0.00665741889            0.000588099972           
       0.880567             0.00647140964              0.0005911533           
       0.883208             0.00734930702            0.000611782065           
       0.885848             0.00724258325            0.000623073672           
       0.888488             0.00660646768            0.000565816752           
       0.891129             0.00620373763             0.00057636081           
       0.893769             0.00685418519            0.000572653124           
       0.896410             0.00617562612            0.000560312166           
       0.899050             0.00629954624            0.000545644096           
       0.901690             0.00640966135            0.000561881031           
       0.904331             0.00739439601            0.000582431292           
       0.906971             0.00646826186             0.00056249343           
       0.909611             0.00716110806            0.000568079273           
       0.912252             0.00615326134            0.000535713456           
       0.914892             0.00832915992            0.000607489264           
       0.917533             0.00690490503            0.000565597358           
       0.920173             0.00703724078            0.000547722936           
       0.922813             0.00746914412             0.00058968333           
       0.925454               0.006917629            0.000538586563           
       0.928094             0.00685760046            0.000547755006           
       0.930734             0.00717727715            0.000547002993           
       0.933375             0.00587353949            0.000505382855           
       0.936015             0.00783334485            0.000558435377           
       0.938656             0.00709944555            0.000553932134           
       0.941296             0.00745175635            0.000547078145           
       0.943936             0.00736385205            0.000553636235           
       0.946577             0.00709470211            0.000523351201           
       0.949217             0.00692624689            0.000535362741           
       0.951858             0.00755238647            0.000528504653           
       0.954498             0.00717519587            0.000541947565           
       0.957138             0.00696714384            0.000513284566           
       0.959779             0.00683826423            0.000519637657           
       0.962419             0.00709329207            0.000509495788           
       0.965059             0.00635772372            0.000496056841           
       0.967700             0.00605102873            0.000468294395           
       0.970340              0.0063271956            0.000492317426           
       0.972981             0.00814262484            0.000539246084           
       0.975621              0.0080412906            0.000547100525           
       0.978261             0.00719675363             0.00049383063           
       0.980902             0.00791130211            0.000542419716           
       0.983542             0.00720078143             0.00050242138           
       0.986182             0.00706603048            0.000504252495           
       0.988823             0.00865169857            0.000539966949           
       0.991463             0.00781522192            0.000525458374           
       0.994104             0.00736008153            0.000492739803           
       0.996744             0.00695815373            0.000494633418           
       0.999384             0.00684644966            0.000473994265           
       1.002025             0.00627751534            0.000466510051           
       1.004665             0.00790785627            0.000502148652           
       1.007306             0.00940860705            0.000566082131           
       1.009946             0.00759406307            0.000489009624           
       1.012586             0.00646368905            0.000464127092           
       1.015227             0.00784442815             0.00049582499           
       1.017867             0.00859311188            0.000533818285           
       1.020507             0.00675916287            0.000455616766           
       1.023148             0.00699179255            0.000468987961           
       1.025788             0.00810518711              0.0004997801           
       1.028429             0.00790235909            0.000504275114           
       1.031069             0.00759599151            0.000476333127           
       1.033709             0.00774947879            0.000490360474           
       1.036350             0.00789252262              0.0004818891           
       1.038990             0.00753780744            0.000482562169           
       1.041630             0.00668431882            0.000445679574           
       1.044271             0.00782409039             0.00048223624           
       1.046911             0.00734033507            0.000458411856           
       1.049552             0.00720391689            0.000470497995           
       1.052192             0.00779075335            0.000467283917           
       1.054832             0.00804391011            0.000484049072           
       1.057473              0.0067151708            0.000436667826           
       1.060113             0.00830732651            0.000490942767           
       1.062754             0.00789419139            0.000473286329           
       1.065394             0.00805148536            0.000472949289           
       1.068034              0.0079462568            0.000468029505           
       1.070675             0.00899340462            0.000506671331           
       1.073315             0.00707801113            0.000435750413           
       1.075955             0.00809675207             0.00047387186           
       1.078596             0.00720481892            0.000446126224           
       1.081236             0.00755597974            0.000450092592           
       1.083877             0.00724784436            0.000454590275           
       1.086517             0.00868463054            0.000486355947           
       1.089157             0.00815044244            0.000474615221           
       1.091798             0.00933551979            0.000497187183           
       1.094438             0.00793310251            0.000465607746           
       1.097078             0.00805443531            0.000457098739           
       1.099719             0.00766587684            0.000457365787           
       1.102359             0.00912361466            0.000472674991           
       1.105000             0.00832914985            0.000469413295           
       1.107640             0.00819284673            0.000450380565           
       1.110280             0.00838823134            0.000464844403           
       1.112921             0.00802251489            0.000446372514           
       1.115561             0.00782650701            0.000446480987           
       1.118202             0.00886357547            0.000461274164           
       1.120842             0.00898438685            0.000479039532           
       1.123482             0.00855004903            0.000454207819           
       1.126123              0.0085710377            0.000457603096           
       1.128763             0.00808079376            0.000442119659           
       1.131403             0.00877261323            0.000459940503           
       1.134044             0.00824488306            0.000445117802           
       1.136684             0.00863155572            0.000458858566           
       1.139325             0.00835544649             0.00043873976           
       1.141965             0.00830929545            0.000443248564           
       1.144605             0.00787386047            0.000434012875           
       1.147246             0.00894094368            0.000453728987           
       1.149886             0.00882369702            0.000453949832           
       1.152527             0.00828636003            0.000440351439           
       1.155167             0.00816276415            0.000430910051           
       1.157807             0.00905629445            0.000454195009           
       1.160448             0.00789169133             0.00042978772           
       1.163088             0.00954796517            0.000455203609           
       1.165728             0.00867009725            0.000451652044           
       1.168369             0.00812720261            0.000421672172           
       1.171009             0.00947333564            0.000459030656           
       1.173650             0.00873384441            0.000437572333           
       1.176290             0.00839839124            0.000434121599           
       1.178930             0.00919521925            0.000441479956           
       1.181571             0.00846459603            0.000437412382           
       1.184211             0.00885466189              0.0004338658           
       1.186851             0.00843765154            0.000427431282           
       1.189492             0.00890127291            0.000441455097           
       1.192132             0.00954774791            0.000450433666           
       1.194773             0.00958179624            0.000448513763           
       1.197413             0.00896700954            0.000437425871           
       1.200053             0.00970808589            0.000452278928           
       1.202694              0.0118589661            0.000496109848           
       1.205334             0.00934183879             0.00044513563           
       1.207975             0.00866820393            0.000420384651           
       1.210615             0.00900260389            0.000437476035           
       1.213255             0.00892907118            0.000424159546           
       1.215896             0.00923461392            0.000439532012           
       1.218536             0.00903551686            0.000422245706           
       1.221176              0.0102804591            0.000461146912           
       1.223817              0.0102730989            0.000451376062           
       1.226457             0.00926361406            0.000434069765           
       1.229098             0.00943870588            0.000431505598           
       1.231738               0.010131194            0.000453349772           
       1.234378             0.00967200333            0.000434349925           
       1.237019             0.00910745141             0.00042488255           
       1.239659             0.00943563588            0.000432236074           
       1.242299             0.00948912734            0.000431243546           
       1.244940              0.0100285604            0.000438546233           
       1.247580               0.009882987            0.000437273927           
       1.250221             0.00962728761            0.000438624991           
       1.252861             0.00941682087            0.000417641993           
       1.255501              0.0101316949            0.000445435757           
       1.258142             0.00991973224            0.000432038073           
       1.260782             0.00970383528            0.000432137448           
       1.263423             0.00945021476            0.000418004065           
       1.266063              0.0102851802            0.000444207379           
       1.268703             0.00950104522             0.00041618196           
       1.271344             0.00986015068             0.00043320827           
       1.273984             0.00964220902            0.000421706304           
       1.276624             0.00907411219            0.000406598668           
       1.279265              0.0102510604            0.000433107242           
       1.281905              0.0104301118            0.000439566132           
       1.284546              0.0102793018            0.000431609533           
       1.287186              0.0106086913            0.000438891478           
       1.289826              0.0104860415            0.000438609791           
       1.292467             0.00965924428            0.000413449788           
       1.295107             0.00936162934            0.000414204963           
       1.297747              0.0101553503            0.000420091248           
       1.300388              0.0102190583             0.00043222828           
       1.303028               0.010039008            0.000417509672           
       1.305669              0.0100825055            0.000423819086           
       1.308309              0.0103525525            0.000422999974           
       1.310949             0.00970284191             0.00041461563           
       1.313590              0.0103520379            0.000421633895           
       1.316230              0.0108798625            0.000440029802           
       1.318871              0.0102250561            0.000417379795           
       1.321511              0.0103254815            0.000421526301           
       1.324151              0.0102466471            0.000421573324           
       1.326792             0.00976038934            0.000408115839           
       1.329432              0.0112824807            0.000441074245           
       1.332072             0.00999743606            0.000408076923           
       1.334713              0.0114176403            0.000441508267           
       1.337353              0.0108551269            0.000423872982           
       1.339994             0.00970062131            0.000406406192           
       1.342634              0.0096357824             0.00039592714           
       1.345274              0.0112110355            0.000432648803           
       1.347915              0.0104923365            0.000419664095           
       1.350555              0.0100636941            0.000409396762           
       1.353195              0.0106845039            0.000413765375           
       1.355836              0.0111871181            0.000431373983           
       1.358476              0.0102757036            0.000412265941           
       1.361117             0.00984590039            0.000393428423           
       1.363757              0.0112844638            0.000435148965           
       1.366397              0.0107779987            0.000412028451           
       1.369038              0.0111778891            0.000428446508           
       1.371678              0.0107567534            0.000411811276           
       1.374319              0.0107124909            0.000414222522           
       1.376959              0.0103630541             0.00040180184           
       1.379599              0.0106272451            0.000414822399           
       1.382240              0.0104056446            0.000402678273           
       1.384880              0.0105800732            0.000411024603           
       1.387520              0.0102983813            0.000400774752           
       1.390161              0.0106063077            0.000405616842           
       1.392801              0.0105428154            0.000406811259           
       1.395442              0.0108711633            0.000408817333           
       1.398082              0.0107124208             0.00040721031           
       1.400722              0.0106296544            0.000403801676           
       1.403363              0.0108758942            0.000412242355           
       1.406003              0.0107656656             0.00040007672           
       1.408644              0.0106480606            0.000406238582           
       1.411284                0.01034845            0.000398286201           
       1.413924               0.011380388            0.000412521315           
       1.416565              0.0106002563            0.000397663023           
       1.419205              0.0105675678            0.000400960539           
       1.421845              0.0113002277            0.000409414535           
       1.424486              0.0106935796             0.00040003159           
       1.427126              0.0101133186              0.0003887814           
       1.429767              0.0101319974            0.000383143669           
       1.432407             0.00964325769            0.000383204823           
       1.435047              0.0106857553             0.00039126479           
       1.437688              0.0104910287            0.000396268591           
       1.440328              0.0098602078            0.000376725445           
       1.442968              0.0109359534            0.000402235995           
       1.445609              0.0107456643            0.000392162926           
       1.448249              0.0099369214             0.00037955514           
       1.450890              0.0103741893             0.00038504978           
       1.453530               0.010441061            0.000389150084           
       1.456170              0.0104929426            0.000389237439           
       1.458811              0.0100836371            0.000378534604           
       1.461451              0.0103366769            0.000386071932           
       1.464092             0.00977539238            0.000372171117           
       1.466732              0.0105681433            0.000384594385           
       1.469372              0.0101219612            0.000375231158           
       1.472013              0.0106839138              0.0003924036           
       1.474653              0.0106277283            0.000381706817           
       1.477293              0.0111111336            0.000396860808           
       1.479934              0.0111758019            0.000393848227           
       1.482574              0.0102763546            0.000376734974           
       1.485215              0.0101802801            0.000375935319           
       1.487855              0.0105794943            0.000383156322           
       1.490495              0.0106815443            0.000384171198           
       1.493136              0.0107066175            0.000379577842           
       1.495776              0.0111385491            0.000393908665           
       1.498416              0.0103758658            0.000372797724           
       1.501057              0.0105722604            0.000379546101           
       1.503697              0.0104175168            0.000373135783           
       1.506338              0.0106108155            0.000379351083           
       1.508978             0.00968636644            0.000360309381           
       1.511618               0.010208346            0.000369703257           
       1.514259              0.0103724187            0.000373335473           
       1.516899              0.0101693591            0.000369835185           
       1.519540              0.0106875395            0.000377036605           
       1.522180               0.010223681             0.00036415857           
       1.524820             0.00988091031            0.000365232691           
       1.527461              0.0098779183            0.000357098977           
       1.530101             0.00952922199             0.00035436585           
       1.532741             0.00993825055            0.000360176684           
       1.535382             0.00987204223            0.000359765481           
       1.538022              0.0109447844            0.000375456866           
       1.540663              0.0106395411            0.000373682824           
       1.543303              0.0101648518            0.000360706376           
       1.545943              0.0110543026            0.000378264955           
       1.548584              0.0103504479            0.000367973468           
       1.551224             0.00949555006            0.000343413792           
       1.553864              0.0100504169            0.000362534466           
       1.556505               0.010155001            0.000358810032           
       1.559145             0.00942295101            0.000346434315           
       1.561786             0.00978497609            0.000351427209           
       1.564426             0.00957308723            0.000347287422           
       1.567066             0.00969473813             0.00034675926           
       1.569707             0.00974973667             0.00035277587           
       1.572347              0.0101524591            0.000355317463           
       1.574988              0.0101566229            0.000353984382           
       1.577628             0.00974627974             0.00035456713           
       1.580268             0.00995801228            0.000346029588           
       1.582909             0.00934528458             0.00034148467           
       1.585549             0.00970322386            0.000344711102           
       1.588189             0.00979148126            0.000350142792           
       1.590830             0.00874055747            0.000325140373           
       1.593470             0.00900068206            0.000332637505           
       1.596111              0.0094038405            0.000337067746           
       1.598751             0.00903945163            0.000333851058           
       1.601391             0.00942389955             0.00033869707           
       1.604032             0.00923622255             0.00033250743           
       1.606672             0.00886534413            0.000332319712           
       1.609312             0.00884970247            0.000322146913           
       1.611953             0.00901815068            0.000329911279           
       1.614593              0.0088797242            0.000324879575           
       1.617234             0.00905066824            0.000329850988           
       1.619874             0.00906028941            0.000326143757           
       1.622514             0.00870356056            0.000322485797           
       1.625155             0.00904401984              0.0003279197           
       1.627795             0.00896973911             0.00032327024           
       1.630436             0.00849607875            0.000317781469           
       1.633076             0.00932732388            0.000331272746           
       1.635716             0.00779806123            0.000302372634           
       1.638357             0.00910222276            0.000325292294           
       1.640997             0.00859490876            0.000318569221           
       1.643637             0.00829903196            0.000307225071           
       1.646278             0.00864872239            0.000318325495           
       1.648918             0.00841777086            0.000309997823           
       1.651559             0.00888612327            0.000322509635           
       1.654199             0.00813581032             0.00030436363           
       1.656839             0.00870594589            0.000314762786           
       1.659480             0.00808210699            0.000305946779           
       1.662120             0.00795446792            0.000299453992           
       1.664761             0.00858363389            0.000314439456           
       1.667401             0.00874389062            0.000314404682           
       1.670041             0.00908626437             0.00032086773           
       1.672682             0.00845891296            0.000306679428           
       1.675322             0.00865158652            0.000315636257           
       1.677962             0.00855444157            0.000307625935           
       1.680603             0.00869375003            0.000312872958           
       1.683243             0.00908765174             0.00031751596           
       1.685884             0.00822073304            0.000303140877           
       1.688524              0.0079585131            0.000297427824           
       1.691164             0.00808011628             0.00029892121           
       1.693805             0.00882100967            0.000314850893           
       1.696445             0.00852631678            0.000305250625           
       1.699085             0.00862924845            0.000308313639           
       1.701726              0.0083218553            0.000298834111           
       1.704366             0.00769394572            0.000294330653           
       1.707007             0.00835775086            0.000300218713           
       1.709647             0.00831807161            0.000303226576           
       1.712287             0.00868005618            0.000304577604           
       1.714928             0.00814798425            0.000298062234           
       1.717568              0.0085319652            0.000302199903           
       1.720209             0.00825492343            0.000299088613           
       1.722849             0.00875990876            0.000308595031           
       1.725489             0.00835216777            0.000296524669           
       1.728130             0.00877924663             0.00031020011           
       1.730770             0.00821040671            0.000293641429           
       1.733410             0.00804745029            0.000294529173           
       1.736051             0.00811676704            0.000291203613           
       1.738691             0.00840647856             0.00029937995           
       1.741332             0.00828432955            0.000295367456           
       1.743972             0.00833082117            0.000296304958           
       1.746612             0.00814875318            0.000293116655           
       1.749253             0.00819559261            0.000295228242           
       1.751893             0.00876071981             0.00030340604           
       1.754533             0.00859439327            0.000296387611           
       1.757174             0.00778388864            0.000287339688           
       1.759814             0.00798962338            0.000286674073           
       1.762455             0.00798331865            0.000289000562           
       1.765095             0.00849791503            0.000293982181           
       1.767735             0.00916736131            0.000310530794           
       1.770376             0.00881340568            0.000299859458           
       1.773016             0.00856441334            0.000296059875           
       1.775657             0.00838056778            0.000293465006           
       1.778297             0.00877205965            0.000301710057           
       1.780937             0.00839512587            0.000293779338           
       1.783578             0.00889268815            0.000300940092           
       1.786218             0.00822292933            0.000294003394           
       1.788858             0.00826199635             0.00028737905           
       1.791499             0.00846445062             0.00029623969           
       1.794139             0.00893479407            0.000298738705           
       1.796780              0.0094749934            0.000309465012           
       1.799420             0.00868223494            0.000295858865           
       1.802060             0.00911501753            0.000299414547           
       1.804701             0.00856851651            0.000294194566           
       1.807341             0.00877899484            0.000294908571           
       1.809981             0.00879581699            0.000297151424           
       1.812622             0.00906555411            0.000300029723           
       1.815262             0.00882052989            0.000297002562           
       1.817903             0.00859021859             0.00028947832           
       1.820543             0.00894691941            0.000299078849           
       1.823183             0.00852346272             0.00028741753           
       1.825824             0.00887073959            0.000297623742           
       1.828464             0.00849972335            0.000290439387           
       1.831105             0.00886170198            0.000297707515           
       1.833745             0.00807997903            0.000284096041           
       1.836385             0.00813229752            0.000283905815           
       1.839026             0.00820711173            0.000289496109           
       1.841666             0.00844372326            0.000289826729           
       1.844306             0.00839249136            0.000292593982           
       1.846947             0.00857073951            0.000291885076           
       1.849587             0.00872737387            0.000298534974           
       1.852228             0.00834423931            0.000288803851           
       1.854868             0.00859906665            0.000298557761           
       1.857508             0.00874036836            0.000295442819           
       1.860149             0.00841048752            0.000292136857           
       1.862789             0.00840681332             0.00029336544           
       1.865429             0.00836069862            0.000293441753           
       1.868070             0.00824758286            0.000290442851           
       1.870710             0.00862864377            0.000297885756           
       1.873351             0.00853711508            0.000298193243           
       1.875991             0.00802614373            0.000290695697           
       1.878631             0.00819371709            0.000290984701           
       1.881272             0.00829840273            0.000292151698           
       1.883912              0.0081856703            0.000293563443           
       1.886553             0.00831383356            0.000292303787           
       1.889193             0.00839524977            0.000297124622           
       1.891833             0.00867820028            0.000298652469           
       1.894474             0.00801447846            0.000289276127           
       1.897114             0.00844196545            0.000294587913           
       1.899754             0.00814050773            0.000292524554           
       1.902395             0.00834828888            0.000296297433           
       1.905035             0.00813994271            0.000291430177           
       1.907676             0.00820796126            0.000292985478           
       1.910316             0.00820094419            0.000294727536           
       1.912956             0.00830048958              0.0002964991           
       1.915597             0.00833033164             0.00029393494           
       1.918237              0.0080616959            0.000293546049           
       1.920878             0.00854525809            0.000296873096           
       1.923518             0.00838316443            0.000301856282           
       1.926158             0.00809077817              0.0002897312           
       1.928799             0.00805081584            0.000292855352           
       1.931439             0.00830750728            0.000295103361           
       1.934079             0.00783764035            0.000289539206           
       1.936720             0.00779587432            0.000287067105           
       1.939360             0.00857671706            0.000304002507           
       1.942001             0.00789491129             0.00029054694           
       1.944641             0.00834636023             0.00029745123           
       1.947281             0.00822619533            0.000296728929           
       1.949922             0.00801922047             0.00029333892           
       1.952562             0.00790696361            0.000293785004           
       1.955202             0.00808568351            0.000289622414           
       1.957843             0.00772359137             0.00029205521           
       1.960483             0.00783246054            0.000289415145           
       1.963124             0.00844995854            0.000300384322           
       1.965764             0.00811448639            0.000294466391           
       1.968404             0.00768397341            0.000291672605           
       1.971045             0.00789686784             0.00028827358           
       1.973685             0.00771658419            0.000290281767           
       1.976326             0.00791935912            0.000292788909           
       1.978966             0.00777684358            0.000291515408           
       1.981606             0.00820315278            0.000296232611           
       1.984247             0.00806992162            0.000296379131           
       1.986887              0.0076822817             0.00029187768           
       1.989527             0.00773198756            0.000286719963           
       1.992168             0.00742161379            0.000287683766           
       1.994808             0.00804594471            0.000296055807           
       1.997449             0.00778958155            0.000290873914           
       2.000089              0.0080826046            0.000294549672           
       2.002729             0.00818054927            0.000303119177           
       2.005370             0.00750951627             0.00028490035           
       2.008010             0.00769165402            0.000292162798           
       2.010650             0.00766922193            0.000290901882           
       2.013291             0.00762417949            0.000291697289           
       2.015931             0.00736445018            0.000284633836           
       2.018572             0.00762063725            0.000293387736           
       2.021212             0.00744313971            0.000287348632           
       2.023852             0.00743620105            0.000288723463           
       2.026493             0.00782167461            0.000294814597           
       2.029133             0.00807634814             0.00029729043           
       2.031774             0.00788984069            0.000296687251           
       2.034414             0.00701067872            0.000278000286           
       2.037054             0.00730975683            0.000287447515           
       2.039695             0.00744310658            0.000284344197           
       2.042335             0.00844475483            0.000308028474           
       2.044975             0.00773198026            0.000292386843           
       2.047616             0.00772964498            0.000293595391           
       2.050256             0.00747501176            0.000285322835           
       2.052897             0.00748116275            0.000293894102           
       2.055537             0.00734623467            0.000283291639           
       2.058177             0.00844102567            0.000306350339           
       2.060818             0.00744527106            0.000288577771           
       2.063458             0.00738081542            0.000287721652           
       2.066098             0.00757545616            0.000290197175           
       2.068739             0.00754913452            0.000292713108           
       2.071379             0.00758159556            0.000289009785           
       2.074020             0.00735709885            0.000288597356           
       2.076660             0.00756668254            0.000290695247           
       2.079300             0.00736211694            0.000286697301           
       2.081941             0.00774781153            0.000295899383           
       2.084581             0.00803129405            0.000301487201           
       2.087222             0.00757411456            0.000292979887           
       2.089862             0.00828409139            0.000302584896           
       2.092502             0.00669364581            0.000276934106           
       2.095143             0.00693455001            0.000277844986           
       2.097783             0.00761734934            0.000295633848           
       2.100423             0.00734834161            0.000284799086           
       2.103064             0.00759157455            0.000294472183           
       2.105704             0.00740887747            0.000289794352           
       2.108345             0.00751986348            0.000293297234           
       2.110985             0.00731491788            0.000285209772           
       2.113625             0.00757736163            0.000294854632           
       2.116266             0.00731946975            0.000287648677           
       2.118906             0.00724771462            0.000286027126           
       2.121546             0.00745487389            0.000289855713           
       2.124187             0.00751844437            0.000295115183           
       2.126827             0.00734094692            0.000287037514           
       2.129468             0.00742613693            0.000291710971           
       2.132108              0.0073055782            0.000288734705           
       2.134748             0.00723775371            0.000286308201           
       2.137389             0.00780336272            0.000299774804           
       2.140029             0.00705732925            0.000284392721           
       2.142670               0.007729261            0.000298109847           
       2.145310             0.00755823294             0.00029591946           
       2.147950             0.00757193436             0.00029733257           
       2.150591             0.00750657614            0.000293331541           
       2.153231             0.00737548995            0.000295057723           
       2.155871             0.00715040289            0.000286324753           
       2.158512             0.00716255101            0.000291731613           
       2.161152              0.0077355652            0.000295603285           
       2.163793             0.00725989248            0.000291030176           
       2.166433             0.00709919571             0.00028280062           
       2.169073             0.00705308939            0.000288462049           
       2.171714             0.00753481169             0.00029208034           
       2.174354             0.00779608019            0.000301641109           
       2.176995             0.00747214612             0.00029285827           
       2.179635              0.0072032294             0.00029298186           
       2.182275             0.00753114326            0.000293629534           
       2.184916             0.00744219197            0.000298059399           
       2.187556             0.00692543465            0.000282896295           
       2.190196             0.00742313762            0.000297488788           
       2.192837             0.00757050658            0.000297137399           
       2.195477             0.00759839588            0.000300555732           
       2.198118             0.00754741341            0.000294015579           
       2.200758             0.00790276249            0.000305529529           
       2.203398             0.00734371211            0.000289640345           
       2.206039              0.0074982437            0.000297145338           
       2.208679             0.00765237785            0.000297245381           
       2.211319             0.00766411994            0.000298873544           
       2.213960              0.0069482383            0.000281547292           
       2.216600             0.00730445912            0.000295475861           
       2.219241             0.00732922921            0.000291673416           
       2.221881              0.0069844689            0.000286214918           
       2.224521             0.00732616722            0.000292115784           
       2.227162             0.00690105691             0.00028796706           
       2.229802             0.00752386793            0.000295799959           
       2.232443             0.00739367241            0.000294382276           
       2.235083             0.00694530503             0.00028360587           
       2.237723             0.00732438888            0.000293474766           
       2.240364             0.00660759693            0.000277327032           
       2.243004             0.00698961115            0.000286092851           
       2.245644             0.00734841964            0.000292666776           
       2.248285             0.00706995432            0.000288931503           
       2.250925             0.00756693582             0.00029751647           
       2.253566             0.00720765489            0.000291077489           
       2.256206             0.00782149568            0.000302310805           
       2.258846             0.00738444469            0.000293745727           
       2.261487             0.00713636376            0.000289268903           
       2.264127             0.00722051172            0.000293722432           
       2.266767             0.00687114117            0.000281897179           
       2.269408             0.00728006707             0.00029361053           
       2.272048             0.00714727898             0.00028913093           
       2.274689             0.00708237056            0.000288946825           
       2.277329             0.00745533753            0.000296063443           
       2.279969             0.00688991001            0.000285477733           
       2.282610              0.0070358666            0.000285672357           
       2.285250             0.00712891304            0.000292077637           
       2.287891             0.00717799806            0.000290123928           
       2.290531             0.00704511529            0.000288843311           
       2.293171             0.00721538431            0.000292298499           
       2.295812             0.00694899589             0.00028532951           
       2.298452             0.00784115481            0.000305034066           
       2.301092             0.00720062032            0.000294166551           
       2.303733             0.00730375633            0.000290405784           
       2.306373             0.00762445109            0.000303970231           
       2.309014             0.00732923757             0.00029228434           
       2.311654             0.00703675201            0.000289110919           
       2.314294             0.00747522845            0.000297331859           
       2.316935               0.006978579            0.000288420275           
       2.319575             0.00693025582             0.00028634368           
       2.322215             0.00748070999            0.000301737509           
       2.324856             0.00688580198            0.000282221251           
       2.327496             0.00687809272            0.000288975972           
       2.330137             0.00749561147             0.00029610586           
       2.332777             0.00679147311            0.000284937515           
       2.335417             0.00743260355            0.000297188764           
       2.338058             0.00709689594             0.00029156194           
       2.340698             0.00712254067            0.000289212392           
       2.343339             0.00730437229            0.000298469755           
       2.345979             0.00761189928            0.000298608068           
       2.348619             0.00695580039            0.000290839662           
       2.351260             0.00680038212            0.000281459112           
       2.353900             0.00693553558            0.000290263236           
       2.356540             0.00741501615            0.000296001334           
       2.359181             0.00706610131            0.000292817151           
       2.361821             0.00673990929            0.000282494198           
       2.364462              0.0065890919            0.000283983821           
       2.367102             0.00712277052            0.000286722224           
       2.369742             0.00743003593            0.000303335818           
       2.372383             0.00710753609            0.000288031181           
       2.375023             0.00748319927            0.000303245187           
       2.377663             0.00725327538            0.000292205824           
       2.380304             0.00700871777            0.000291221933           
       2.382944             0.00663825077            0.000280648591           
       2.385585             0.00761511669            0.000303431534           
       2.388225             0.00695792214            0.000288732402           
       2.390865             0.00695307824            0.000289370985           
       2.393506             0.00732138295            0.000295567672           
       2.396146             0.00731759575            0.000296470623           
       2.398787             0.00735461686            0.000297479605           
       2.401427             0.00754229306             0.00029942207           
       2.404067             0.00687863716            0.000290309923           
       2.406708             0.00726836272            0.000294669865           
       2.409348             0.00690823563            0.000289438201           
       2.411988             0.00722633686              0.0002950816           
       2.414629              0.0071774534            0.000295044065           
       2.417269             0.00722345165            0.000293299989           
       2.419910             0.00745757577            0.000301773462           
       2.422550             0.00685995747            0.000285036103           
       2.425190             0.00694069578            0.000295735555           
       2.427831             0.00724202795            0.000290725959           
       2.430471             0.00712014087            0.000296695556           
       2.433112             0.00686021371            0.000284357728           
       2.435752             0.00691681007            0.000292756763           
       2.438392             0.00689351384            0.000287350938           
       2.441033             0.00685520796            0.000287864537           
       2.443673               0.007370856            0.000299291923           
       2.446313             0.00748772867            0.000300048181           
       2.448954             0.00710383596            0.000294819754           
       2.451594             0.00648751363            0.000280049994           
       2.454235             0.00751301873            0.000300434787           
       2.456875             0.00739249694            0.000299524846           
       2.459515             0.00784811385            0.000309092909           
       2.462156             0.00835488225             0.00031727221           
       2.464796             0.00756591104            0.000307246084           
       2.467436             0.00783527101            0.000306111371           
       2.470077             0.00701284212            0.000293594086           
       2.472717             0.00785817551            0.000306897045           
       2.475358             0.00791779747            0.000311549254           
       2.477998             0.00754179331            0.000302439575           
       2.480638             0.00714769495            0.000295146928           
       2.483279             0.00712864723            0.000296019656           
       2.485919             0.00788017968            0.000309053343           
       2.488560             0.00728687714             0.00029842404           
       2.491200              0.0072849932            0.000297976364           
       2.493840             0.00729860332            0.000296630712           
       2.496481             0.00722487621            0.000298988046           
       2.499121             0.00726259706            0.000295776268           
       2.501761             0.00709696752            0.000297348949           
       2.504402             0.00687694019             0.00028709392           
       2.507042             0.00730501434             0.00030081325           
       2.509683             0.00724977357             0.00029694462           
       2.512323             0.00691671446            0.000291179212           
       2.514963              0.0149332387            0.000428696869           
       2.517604              0.0316404728            0.000621571689           
       2.520244               0.026095295            0.000564606395           
       2.522884             0.00819594097            0.000315727962           
       2.525525              0.0089828943            0.000333253357           
       2.528165              0.0178510064             0.00046763794           
       2.530806              0.0179151341            0.000466718615           
       2.533446             0.00999797104            0.000351757565           
       2.536086              0.0102249655            0.000352742781           
       2.538727             0.00993471086            0.000349929168           
       2.541367             0.00979628516            0.000346489131           
       2.544008             0.00735078121            0.000300395484           
       2.546648             0.00705273121            0.000294576563           
       2.549288             0.00686981941            0.000290773414           
       2.551929              0.0071737572            0.000298117558           
       2.554569             0.00774346214            0.000306898582           
       2.557209             0.00722243422            0.000299742668           
       2.559850             0.00765196521            0.000304979263           
       2.562490             0.00671672676            0.000287814971           
       2.565131             0.00692967041            0.000292850382           
       2.567771             0.00711964829            0.000295264261           
       2.570411             0.00714304031            0.000299347865           
       2.573052             0.00719481423            0.000296923868           
       2.575692             0.00699129105            0.000293470566           
       2.578332             0.00694289006            0.000291589026           
       2.580973             0.00675218828            0.000289888091           
       2.583613             0.00728649004            0.000298394967           
       2.586254             0.00717472304            0.000298717143           
       2.588894             0.00716344507            0.000296890071           
       2.591534             0.00682608634            0.000290347902           
       2.594175             0.00682107804            0.000291926151           
       2.596815             0.00718359468             0.00029679778           
       2.599456             0.00669944027            0.000288966717           
       2.602096             0.00693958563            0.000292999612           
       2.604736              0.0069267542            0.000293496335           
       2.607377             0.00739188004            0.000302030825           
       2.610017             0.00670870489            0.000287634779           
       2.612657             0.00658981655            0.000287088477           
       2.615298             0.00713417327            0.000295788892           
       2.617938              0.0063285011            0.000281023865           
       2.620579             0.00673186898            0.000287473911           
       2.623219             0.00761889877            0.000310719598           
       2.625859             0.00719542295            0.000296871712           
       2.628500             0.00688425653            0.000295022561           
       2.631140             0.00708504592            0.000294016109           
       2.633780             0.00686630636            0.000293159497           
       2.636421             0.00722316983             0.00029794511           
       2.639061             0.00717555274            0.000300512008           
       2.641702             0.00747293552            0.000303397617           
       2.644342             0.00739795134            0.000304347898           
       2.646982             0.00711980353            0.000298318176           
       2.649623             0.00719272081            0.000301639404           
       2.652263             0.00690819896            0.000293260967           
       2.654904             0.00727577847            0.000302596089           
       2.657544             0.00760198205            0.000307128887           
       2.660184              0.0071574024            0.000298394024           
       2.662825             0.00769902581            0.000310220158           
       2.665465             0.00686006957            0.000293372143           
       2.668105             0.00695302347            0.000295469995           
       2.670746             0.00739443105            0.000302126316           
       2.673386              0.0075688194            0.000309372753           
       2.676027             0.00740403948             0.00030338536           
       2.678667             0.00696463167            0.000295774857           
       2.681307             0.00731405845            0.000300720357           
       2.683948             0.00783983382             0.00031443354           
       2.686588             0.00762750594            0.000307300287           
       2.689229             0.00754826861            0.000308443553           
       2.691869             0.00734859492             0.00030129885           
       2.694509             0.00718113813            0.000301930742           
       2.697150              0.0071685536            0.000296851364           
       2.699790             0.00745282206            0.000308967295           
       2.702430             0.00700420598            0.000293781227           
       2.705071             0.00759676934            0.000310143351           
       2.707711             0.00724148316            0.000299801422           
       2.710352             0.00726921672            0.000302084653           
       2.712992             0.00706218503            0.000298719877           
       2.715632             0.00744873846            0.000305041197           
       2.718273              0.0065126085            0.000286176523           
       2.720913             0.00747042337            0.000307010764           
       2.723553             0.00715125861            0.000299337061           
       2.726194             0.00663598558            0.000289742003           
       2.728834             0.00734043314            0.000302024204           
       2.731475             0.00644688504            0.000285518985           
       2.734115             0.00729388549             0.00030188665           
       2.736755             0.00697989232             0.00029726942           
       2.739396             0.00738049393            0.000304064664           
       2.742036             0.00671532958            0.000292019015           
       2.744677              0.0075630845            0.000310356924           
       2.747317             0.00699028203              0.0002969233           
       2.749957             0.00705721321             0.00030050575           
       2.752598             0.00717707828            0.000303959606           
       2.755238             0.00690076464            0.000297916709           
       2.757878              0.0071979583            0.000303397938           
       2.760519             0.00746462789             0.00030570472           
       2.763159             0.00725330611            0.000306246285           
       2.765800             0.00730373992            0.000302103395           
       2.768440             0.00652207188            0.000289240798           
       2.771080             0.00717851971            0.000300890786           
       2.773721             0.00739557595            0.000309152602           
       2.776361             0.00658780788            0.000288647414           
       2.779001             0.00692365442            0.000299024106           
       2.781642             0.00655825992            0.000289040877           
       2.784282              0.0066356053            0.000290841722           
       2.786923             0.00661185518            0.000288112776           
       2.789563             0.00705338484            0.000298174971           
       2.792203             0.00676855311            0.000293951744           
       2.794844             0.00662202292            0.000289429526           
       2.797484             0.00737063884            0.000305781741           
       2.800125             0.00658613938            0.000288677444           
       2.802765             0.00583531602             0.00027676225           
       2.805405             0.00628155716             0.00028300466           
       2.808046             0.00665519972             0.00029576665           
       2.810686             0.00634580073            0.000285732354           
       2.813326              0.0066919375            0.000297051908           
       2.815967             0.00668171992            0.000294954444           
       2.818607             0.00644663634            0.000292615415           
       2.821248             0.00678804204            0.000296519767           
       2.823888             0.00622924336            0.000288627951           
       2.826528              0.0071191547            0.000306715766           
       2.829169             0.00625276227            0.000286177998           
       2.831809             0.00651680893            0.000292413972           
       2.834449             0.00675552614            0.000292524829           
       2.837090             0.00668781658            0.000292806738           
       2.839730             0.00664020505            0.000289690663           
       2.842371              0.0071613798            0.000302940637           
       2.845011             0.00667954636            0.000291919417           
       2.847651             0.00640293222            0.000286335892           
       2.850292             0.00703504128             0.00029843175           
       2.852932             0.00692308272            0.000296578423           
       2.855573             0.00670183974             0.00029436379           
       2.858213             0.00681382874            0.000293482715           
       2.860853             0.00691012164            0.000297761345           
       2.863494              0.0064005503            0.000287262278           
       2.866134             0.00658090356            0.000295367073           
       2.868774             0.00664980981            0.000292364427           
       2.871415             0.00714575442            0.000306070332           
       2.874055             0.00680083357            0.000300071128           
       2.876696             0.00693942965            0.000300383906           
       2.879336             0.00675955883            0.000298433304           
       2.881976             0.00688514096             0.00030094487           
       2.884617             0.00672308454            0.000295730087           
       2.887257             0.00667732223            0.000292666937           
       2.889897             0.00700206863            0.000303134443           
       2.892538             0.00688253761            0.000298452171           
       2.895178             0.00721667877            0.000302494568           
       2.897819             0.00687054771            0.000298186824           
       2.900459             0.00656773887            0.000289127882           
       2.903099             0.00652727067            0.000289740744           
       2.905740             0.00693564593            0.000295333143           
       2.908380             0.00635275397            0.000286418452           
       2.911021             0.00726381799            0.000306850801           
       2.913661             0.00646126581            0.000286218544           
       2.916301             0.00685980057            0.000299108955           
       2.918942             0.00637604923            0.000284019183           
       2.921582             0.00698848463            0.000300466531           
       2.924222             0.00726793845            0.000304637879           
       2.926863             0.00719410857            0.000303891688           
       2.929503             0.00633636843            0.000288366663           
       2.932144             0.00727711345            0.000303964243           
       2.934784             0.00720229759            0.000303682803           
       2.937424             0.00756830635              0.0003118793           
       2.940065             0.00686175552            0.000297206388           
       2.942705             0.00692148178            0.000299404058           
       2.945346             0.00757222279            0.000311312878           
       2.947986             0.00733119751            0.000307389434           
       2.950626             0.00849189001            0.000331846276           
       2.953267              0.0103220104            0.000361974979           
       2.955907             0.00867098257            0.000336151233           
       2.958547             0.00848975054            0.000329209124           
       2.961188             0.00724371437            0.000306746709           
       2.963828             0.00659961573             0.00029113231           
       2.966469             0.00727959648            0.000305839016           
       2.969109             0.00667235389            0.000294302686           
       2.971749             0.00747315329            0.000310547012           
       2.974390             0.00903937641            0.000342479613           
       2.977030             0.00962951701            0.000352809627           
       2.979670             0.00828295321            0.000325103578           
       2.982311              0.0067585338            0.000295786529           
       2.984951             0.00776801273             0.00031792786           
       2.987592             0.00746299486            0.000310571691           
       2.990232             0.00742714862            0.000310616069           
       2.992872             0.00865331943            0.000332654246           
       2.995513               0.008778728            0.000337687973           
       2.998153              0.0101162558            0.000364840115           
       3.000794              0.0193082326            0.000496704244           
       3.003434              0.0376279291            0.000700749152           
       3.006074              0.0308834357            0.000636894691           
       3.008715              0.0189994301            0.000503349461           
       3.011355               0.019814743            0.000519381812           
       3.013995              0.0174588834            0.000485145205           
       3.016636               0.029060698            0.000627090264           
       3.019276               0.139158548             0.00140503919           
       3.021917               0.417351853             0.00239197083           
       3.024557               0.147071474             0.00143127253           
       3.027197              0.0860158401             0.00111295082           
       3.029838              0.0968018444             0.00117502426           
       3.032478              0.0851097224             0.00110836292           
       3.035118              0.0517572085            0.000868775518           
       3.037759              0.0957829695             0.00118394225           
       3.040399              0.0807472368             0.00109949049           
       3.043040              0.0526077832            0.000896087488           
       3.045680              0.0557391039            0.000908165024           
       3.048320              0.0752827042             0.00107237352           
       3.050961                0.13800924             0.00146651237           
       3.053601               0.124055735             0.00138425216           
       3.056242              0.0556566949            0.000933138758           
       3.058882               0.162400674             0.00161768637           
       3.061522               0.275769608             0.00209340931           
       3.064163              0.0450997807             0.00084812077           
       3.066803               0.019474473            0.000568095252           
       3.069443              0.0301800516            0.000702499688           
       3.072084              0.0950698512             0.00125792987           
       3.074724              0.0495997541            0.000913969557           
       3.077365              0.0111225618            0.000432497235           
       3.080005             0.00930182012            0.000399902756           
       3.082645             0.00828625412             0.00037936322           
       3.085286             0.00855032113            0.000385430887           
       3.087926             0.00764332678            0.000366733818           
       3.090566             0.00710243808            0.000357161061           
       3.093207             0.00745526975            0.000361971472           
       3.095847             0.00803445081            0.000383645385           
       3.098488             0.00790459071            0.000379842352           
       3.101128             0.00739893448            0.000369494205           
       3.103768             0.00873438701             0.00040371892           
       3.106409             0.00929013766            0.000419153546           
       3.109049             0.00892741397            0.000414083574           
       3.111690              0.0127259044            0.000492443178           
       3.114330              0.0140231047            0.000521532085           
       3.116970              0.0177926967            0.000595634513           
       3.119611              0.0158331548             0.00055822281           
       3.122251              0.0103170929            0.000454302096           
       3.124891             0.00849455548            0.000414228243           
       3.127532             0.00687467914            0.000379358015           
       3.130172             0.00860277748            0.000415637836           
       3.132813             0.00841584292            0.000419464042           
       3.135453             0.00727766456            0.000398297705           
       3.138093             0.00700707731             0.00038154996           
       3.140734             0.00621314954            0.000365971469           
       3.143374             0.00703191887            0.000395291022           
       3.146014             0.00570518503            0.000353468607           
       3.148655             0.00622919363            0.000372252637           
       3.151295             0.00600513988            0.000368389667           
       3.153936             0.00695940754            0.000402435659           
       3.156576             0.00656286847             0.00038631616           
       3.159216             0.00611127509            0.000375836974           
       3.161857             0.00675076157            0.000399857434           
       3.164497             0.00656808275            0.000402726428           
       3.167138             0.00613118608            0.000379766474           
       3.169778             0.00589062143            0.000378963146           
       3.172418             0.00644477511            0.000398704066           
       3.175059             0.00527297152             0.00036536014           
       3.177699              0.0055395521            0.000373002726           
       3.180339             0.00664037755            0.000412036571           
       3.182980             0.00592818266            0.000394569803           
       3.185620             0.00598058673            0.000400640677           
       3.188261             0.00670961846            0.000418798003           
       3.190901             0.00567577325            0.000391119258           
       3.193541             0.00615293316            0.000408570036           
       3.196182             0.00527532168            0.000386183141           
       3.198822             0.00600662922            0.000407087113           
       3.201463             0.00575980347            0.000403790351           
       3.204103             0.00643131127            0.000432361346           
       3.206743              0.0068998055             0.00045161868           
       3.209384             0.00509543554            0.000386370367           
       3.212024               0.005776322            0.000412837293           
       3.214664             0.00488086383            0.000386724303           
       3.217305             0.00675978139            0.000465731206           
       3.219945             0.00602658365            0.000436071548           
       3.222586             0.00573468422            0.000427787189           
       3.225226             0.00596919498            0.000446278807           
       3.227866              0.0057830012            0.000442661639           
       3.230507             0.00557529758            0.000439826048           
       3.233147             0.00575907698            0.000440404437           
       3.235787             0.00522323155              0.0004195299           
       3.238428              0.0058226471            0.000450771782           
       3.241068             0.00558858226            0.000450573548           
       3.243709             0.00595673125            0.000462595746           
       3.246349             0.00594021315            0.000459369255           
       3.248989             0.00604842307            0.000474129421           
       3.251630             0.00644551597            0.000491611264           
       3.254270             0.00583056977            0.000481944542           
       3.256911             0.00594906201            0.000474619447           
       3.259551             0.00590299638            0.000483225426           
       3.262191             0.00571601042            0.000479885028           
       3.264832              0.0058243974            0.000488958726           
       3.267472             0.00608920416            0.000507040493           
       3.270112              0.0055299663            0.000484571859           
       3.272753             0.00531527655            0.000480910715           
       3.275393             0.00555746094            0.000494275893           
       3.278034             0.00563993133            0.000508073155           
       3.280674             0.00530285567             0.00049408635           
       3.283314             0.00600362619            0.000528625198           
       3.285955             0.00566860414            0.000523312163           
       3.288595             0.00569154108            0.000530219745           
       3.291235             0.00524844309             0.00051215323           
       3.293876             0.00642486682            0.000570007629           
       3.296516             0.00532393418            0.000529460863           
       3.299157             0.00543049253            0.000542815364           
       3.301797             0.00462503695            0.000501157973           
       3.304437             0.00587891639            0.000575613536           
       3.307078             0.00530151973            0.000551926403           
       3.309718             0.00593149167            0.000589626052           
       3.312359              0.0050182571            0.000553297721           
       3.314999             0.00492527962            0.000553898393           
       3.317639               0.005298114            0.000580666518           
       3.320280             0.00513069385            0.000579762815           
       3.322920              0.0060412518             0.00063852144           
       3.325560             0.00501228889             0.00059283826           
       3.328201             0.00461322499            0.000571153038           
       3.330841             0.00589838954            0.000661535103           
       3.333482             0.00512856597            0.000624688775           
       3.336122             0.00678587506            0.000734187096           
       3.338762             0.00399575827            0.000568535486           
       3.341403             0.00509118259            0.000647705616           
       3.344043             0.00493236755            0.000661855791           
       3.346683             0.00556134615            0.000709918128           
       3.349324             0.00527463153            0.000702078636           
       3.351964             0.00552296642            0.000741511789           
       3.354605             0.00574479084            0.000764819969           
       3.357245             0.00486191493            0.000728331217           
       3.359885             0.00378968007            0.000643254143           
       3.362526             0.00682034415             0.00090707119           
       3.365166             0.00452068496            0.000729365275           
       3.367807             0.00640125302            0.000929068795           
       3.370447             0.00643661282            0.000931992497           
       3.373087             0.00583119456            0.000936222173           
       3.375728             0.00336827235            0.000706168486           
       3.378368             0.00566472727             0.00098957585           
       3.381008             0.00621553581             0.00102753224           
       3.383649             0.00587202429             0.00108085808           
       3.386289             0.00510252103              0.0010079668           
       3.388930             0.00609200712             0.00120957845           
       3.391570              0.0056831497             0.00116877376           
       3.394210             0.00546446354             0.00122798479           
       3.396851             0.00569880609             0.00135842054           
       3.399491             0.00358065194             0.00109631354           
       3.402131             0.00598395342             0.00167762785           
       3.404772             0.00592674207             0.00167030441           
       3.407412             0.00844378784             0.00247391044           
       3.410053             0.00896071087             0.00265370926           
       3.412693             0.00749153918             0.00343292775           
       3.415333           -2.52330139e-05                         0           
