################################################################################
# EDF_DataBlockID                     0.Image.Psd
# EDF_BinarySize                      2105344
# EDF_HeaderSize                      2560
# ByteOrder                           LowByteFirst
# DataType                            FloatValue
# Dim_1                               512
# Dim_2                               1028
# Image                               0
# HeaderID                            EH:000000:000000:000000
# Size                                2105344
# Center_1                            304.9000
# Center_2                            588.7000
# Comment                             Xenocs_Cell_Window - front_window_open_only
# DDummy                              0.6
# Date                                2025-10-19T19:05:46
# Delta                               21.910000
# Dummy                               -1.5
# ExposureTime                        360
# Gamma                               15.360000
# Intensity1                          8.9443e-10
# PSize_1                             7.5e-05
# PSize_2                             7.5e-05
# Pressure                            0.0327597
# SampleDistance                      0.115750
# SampleEnvKind                       large
# SampleEnvPN                         ElectroChemical cell
# SampleEnvSN                         1141
# Thickness                           0
# Wavelength                          1.541891e-10
# Wavelength                          1.54189e-10
# aux                                 0
# aux_dial                            0.002375
# beamx                               588.429
# beamx_dial                          588.429
# beamz                               657.855
# beamz_dial                          657.855
# det0x                               -0.000396875
# det0x_dial                          6.36905
# det0xvd                             -0.0005
# det0xvd_dial                        -0.0005
# det0y                               450.002
# det0y_dial                          481.635
# det0z                               0
# det0z_dial                          1.2295
# det0zvd                             0
# det0zvd_dial                        0
# mag                                 1.818
# mag_dial                            1.818
# om                                  0.2499
# om_dial                             -0.610199
# phi                                 -0.0120535
# phi_dial                            0
# ry                                  0.599993
# ry_dial                             0.599993
# s1bot                               0.8
# s1bot_dial                          -1.66094
# s1hl                                0.8
# s1hl_dial                           -0.608437
# s1hr                                0.8
# s1hr_dial                           0.970938
# s1top                               0.8
# s1top_dial                          -0.461562
# s2bot                               0.45
# s2bot_dial                          1.36109
# s2hl                                0.45
# s2hl_dial                           -0.83375
# s2hr                                0.45
# s2hr_dial                           -0.118594
# s2top                               0.45
# s2top_dial                          1.44734
# w2theta                             32
# w2theta_dial                        32
# waxsch                              19.2605
# waxsch_dial                         -32.7238
# waxsh                               137.085
# waxsh_dial                          -43.5335
# waxsth                              26.0607
# waxsth_dial                         -19.4068
# waxsz                               67.0407
# waxsz_dial                          -23.7962
# wind                                65.9854
# wind_dial                           66.0041
# wpsi                                124
# wpsi_dial                           124
# wstod                               115
# wstod_dial                          115
# x                                   0
# x_dial                              1.00969
# z                                   0
# z_dial                              13.3172
# CountCutoff                         6807993
# DetectorModel                       Dectris EIGER2 Si 500K, S/N E-01-0554
# ThresholdSetting                    4023.88989258
# Saturation                          0
# FlatField                           Corrected
# BackgroundReductionExtra            0.02
# BackgroundCorrectionConstant        0.0026712
# Detector                            0
# Monitor                             0
# Pil_Roi0                            0
# SumForIntensity1                    3.21995e+08
# TransmittedFlux                     894430
# det                                 0
# mon                                 0
# pilai0                              3.21995e+08
# pilai1                              691012
# pilct0                              5.5653e+08
# pilct1                              691012
# pilroi0                             0
# pilroi1                             0
# sec                                 1
# title                               20251017__1_00445.edf
# usaxs0                              0
# Operation                           Azimuthal average I(q)
# Error_model                         ErrorModel.poisson
# Geometrical_correction              True
# Transmission_correction             True
# Thickness_correction                False
# Binning mode                        Uniform
# Binning factor                      1.0
# Psi                                 0.0
# Omega                               0.2499
# MaskInvalidPixels                   True
# DetectorEdge                        3
# MaskFiles                           ['20251017__1_00233_mask.edf']
################################################################################
    q(A⁻¹)                Intensity(a.u.)            Sigma_I(a.u.)            
       0.690460           -2.27075279e-05                         0           
       0.693100             0.00785441386             0.00365322445           
       0.695741             0.00457014758              0.0023542398           
       0.698381             0.00917544149             0.00311993278           
       0.701021             0.00689870915             0.00220790578           
       0.703662             0.00761466035             0.00214715909           
       0.706302             0.00219581616             0.00111355788           
       0.708942             0.00823162248              0.0019151441           
       0.711583             0.00918450695             0.00202258654           
       0.714223             0.00694800879             0.00153296978           
       0.716864             0.00626390348             0.00148531186           
       0.719504             0.00659136359             0.00141013152           
       0.722144             0.00552390805             0.00124675437           
       0.724785             0.00726196308             0.00140607214           
       0.727425             0.00626671356             0.00121154172           
       0.730065              0.0083151137             0.00143596583           
       0.732706             0.00672964054             0.00116167272           
       0.735346             0.00484681034             0.00106489848           
       0.737987             0.00591333299             0.00101808563           
       0.740627             0.00686776053               0.001201942           
       0.743267             0.00664910933             0.00101728632           
       0.745908             0.00604008596             0.00103912113           
       0.748548             0.00847473411             0.00114798937           
       0.751189             0.00697035815             0.00103131514           
       0.753829             0.00647740233             0.00100314656           
       0.756469              0.0061279359            0.000917700759           
       0.759110             0.00638300764            0.000968769058           
       0.761750             0.00762056679            0.000968767126           
       0.764390             0.00799420905             0.00106510709           
       0.767031             0.00677585269            0.000887320173           
       0.769671              0.0057154776            0.000864268727           
       0.772312              0.0080789525            0.000936367399           
       0.774952             0.00652210856            0.000901942979           
       0.777592             0.00571950725            0.000772537301           
       0.780233             0.00785902853             0.00095466595           
       0.782873             0.00637272382            0.000786119055           
       0.785513             0.00642355211            0.000839571715           
       0.788154             0.00641633874            0.000770723933           
       0.790794              0.0065996435            0.000808991089           
       0.793435             0.00598793524            0.000740141882           
       0.796075             0.00652449567            0.000776673332           
       0.798715             0.00704185704            0.000802272887           
       0.801356             0.00695358255            0.000775893277           
       0.803996             0.00657216202            0.000766367705           
       0.806637             0.00577973154            0.000679344425           
       0.809277             0.00722899511            0.000794830526           
       0.811917             0.00770625787            0.000776572274           
       0.814558              0.0066920222            0.000741350443           
       0.817198             0.00606658499            0.000673035678           
       0.819838             0.00751673846            0.000781465027           
       0.822479             0.00727642213            0.000708556627           
       0.825119             0.00720321317            0.000757333019           
       0.827760             0.00747845753            0.000715028452           
       0.830400             0.00595924489            0.000672511419           
       0.833040              0.0071513585            0.000687563102           
       0.835681             0.00720457854            0.000722699392           
       0.838321             0.00683089165            0.000658657022           
       0.840961             0.00682051453            0.000687933914           
       0.843602             0.00691671029            0.000652560163           
       0.846242             0.00728395079            0.000693303196           
       0.848883             0.00688350204            0.000655627254           
       0.851523             0.00649116567             0.00064144026           
       0.854163             0.00781738799            0.000695745937           
       0.856804              0.0062680167            0.000607054897           
       0.859444             0.00859785945            0.000716092951           
       0.862085             0.00703559592            0.000638352933           
       0.864725             0.00804377693            0.000680053438           
       0.867365             0.00647720058            0.000605878202           
       0.870006             0.00596112023            0.000589349683           
       0.872646             0.00715471879            0.000617562529           
       0.875286             0.00657407064            0.000612143306           
       0.877927             0.00617274289             0.00056793042           
       0.880567             0.00615816683            0.000578341315           
       0.883208              0.0068636549            0.000592937729           
       0.885848             0.00734294225            0.000629195386           
       0.888488             0.00688031752             0.00057909952           
       0.891129              0.0064734047            0.000590461971           
       0.893769             0.00669432427             0.00056757716           
       0.896410             0.00754688897            0.000621199869           
       0.899050             0.00695064757            0.000574811278           
       0.901690             0.00634500054            0.000560661172           
       0.904331             0.00697798346             0.00056743502           
       0.906971             0.00758320117             0.00061081229           
       0.909611             0.00761355842            0.000587449439           
       0.912252             0.00732481056            0.000586186609           
       0.914892               0.006586042            0.000541761421           
       0.917533             0.00657159674            0.000553377874           
       0.920173             0.00704343037            0.000549553091           
       0.922813             0.00771795422            0.000601163149           
       0.925454             0.00814701112            0.000586183859           
       0.928094              0.0078298889            0.000586997006           
       0.930734              0.0077961817            0.000571753249           
       0.933375              0.0078006973            0.000584110605           
       0.936015             0.00756133977            0.000550245498           
       0.938656             0.00692122811            0.000548521614           
       0.941296              0.0065212297            0.000513266136           
       0.943936             0.00741408253            0.000557132518           
       0.946577             0.00730888914            0.000532733061           
       0.949217             0.00667323365            0.000527017632           
       0.951858             0.00766977971            0.000534141077           
       0.954498             0.00749969355            0.000555673861           
       0.957138             0.00634879851             0.00049139916           
       0.959779               0.007205915            0.000534970785           
       0.962419             0.00751016534             0.00052577417           
       0.965059             0.00709962525            0.000525721999           
       0.967700             0.00789551355            0.000536478553           
       0.970340             0.00717139043            0.000525652921           
       0.972981              0.0068982811            0.000497774966           
       0.975621             0.00764734333            0.000535078336           
       0.978261             0.00811745786            0.000525990073           
       0.980902             0.00672374275            0.000501504515           
       0.983542             0.00821725499            0.000538269163           
       0.986182             0.00734768711            0.000515695628           
       0.988823             0.00773477982            0.000512033395           
       0.991463             0.00721584365            0.000506371248           
       0.994104             0.00746844578            0.000497793555           
       0.996744             0.00752944034            0.000516030788           
       0.999384             0.00720933555            0.000487804518           
       1.002025             0.00728771585            0.000504104588           
       1.004665             0.00779732921            0.000500073307           
       1.007306             0.00818761243            0.000529606418           
       1.009946             0.00801772273            0.000503922377           
       1.012586             0.00734564375            0.000496214492           
       1.015227             0.00769982344             0.00049265849           
       1.017867             0.00797507335            0.000515754916           
       1.020507             0.00738198902             0.00047752681           
       1.023148             0.00857716768            0.000520951386           
       1.025788             0.00788358454            0.000494330175           
       1.028429             0.00748599107            0.000492234023           
       1.031069             0.00713499333            0.000462991648           
       1.033709             0.00803464461            0.000500749317           
       1.036350             0.00805722057            0.000488303269           
       1.038990             0.00734908449            0.000477864968           
       1.041630             0.00738027725            0.000469665123           
       1.044271             0.00821885908            0.000495685828           
       1.046911             0.00729412851            0.000458292157           
       1.049552             0.00788261054            0.000493589924           
       1.052192             0.00769743534            0.000465824097           
       1.054832             0.00756255074            0.000470703859           
       1.057473             0.00762573815            0.000466682405           
       1.060113             0.00782508573            0.000477862112           
       1.062754             0.00800311183            0.000477922412           
       1.065394             0.00787552545             0.00046910943           
       1.068034             0.00710589176            0.000443873327           
       1.070675             0.00796259334            0.000478133698           
       1.073315             0.00782852411            0.000459599931           
       1.075955             0.00806275108            0.000474247386           
       1.078596             0.00777649244            0.000464831889           
       1.081236             0.00760652446            0.000452905324           
       1.083877             0.00646948541            0.000430733252           
       1.086517             0.00799204309            0.000467913188           
       1.089157             0.00791168717            0.000468968252           
       1.091798             0.00843494063            0.000473968531           
       1.094438              0.0081426409            0.000473084942           
       1.097078             0.00867078845            0.000475641336           
       1.099719             0.00811897109            0.000472053338           
       1.102359             0.00892655943            0.000468898699           
       1.105000             0.00850645097            0.000475759063           
       1.107640             0.00839504936            0.000457226796           
       1.110280             0.00857097078            0.000471243349           
       1.112921             0.00899036111            0.000473902028           
       1.115561             0.00856611227            0.000468455866           
       1.118202             0.00835426656            0.000449124391           
       1.120842             0.00885948525            0.000477077788           
       1.123482              0.0084796058             0.00045364482           
       1.126123             0.00888366648            0.000467225131           
       1.128763             0.00836233452            0.000451060092           
       1.131403              0.0082205315            0.000446524131           
       1.134044              0.0086940355            0.000458406997           
       1.136684             0.00809185321            0.000445570185           
       1.139325             0.00831119771            0.000438845642           
       1.141965             0.00852199978            0.000450187898           
       1.144605             0.00777432862            0.000432511863           
       1.147246             0.00898410404            0.000456141989           
       1.149886             0.00808667454            0.000435838277           
       1.152527             0.00828037678            0.000441469181           
       1.155167             0.00947583124            0.000465623059           
       1.157807             0.00855711452            0.000442780598           
       1.160448              0.0089456284            0.000458914949           
       1.163088             0.00876891816            0.000437503077           
       1.165728             0.00827391348            0.000442491879           
       1.168369             0.00892580567            0.000443185897           
       1.171009             0.00903166526            0.000449502348           
       1.173650             0.00938061818            0.000454800233           
       1.176290             0.00864020309            0.000441604142           
       1.178930             0.00851222355            0.000425999684           
       1.181571             0.00899316611            0.000452170351           
       1.184211             0.00804761011            0.000414820978           
       1.186851             0.00954838817            0.000456014197           
       1.189492             0.00962890245            0.000460475673           
       1.192132             0.00989722415            0.000459933342           
       1.194773             0.00907150774            0.000437673112           
       1.197413             0.00864412882            0.000430724014           
       1.200053             0.00940878667             0.00044654392           
       1.202694             0.00930426135            0.000440710305           
       1.205334             0.00933030338            0.000446151007           
       1.207975             0.00887873238            0.000426693074           
       1.210615             0.00956662111            0.000452279917           
       1.213255             0.00844198559            0.000413624473           
       1.215896             0.00940889944            0.000444947093           
       1.218536             0.00886006136            0.000419338683           
       1.221176             0.00998626845            0.000455819069           
       1.223817             0.00919077983            0.000428175477           
       1.226457              0.0094368568            0.000439380534           
       1.229098             0.00930693558            0.000429725754           
       1.231738             0.00971314875            0.000445185414           
       1.234378             0.00904538696            0.000421262624           
       1.237019             0.00895573333            0.000422550735           
       1.239659             0.00931337012            0.000430672037           
       1.242299             0.00968213834            0.000436870716           
       1.244940             0.00940635865            0.000425955936           
       1.247580             0.00949402207            0.000429825731           
       1.250221              0.0104124139             0.00045748297           
       1.252861              0.0098811283            0.000429055126           
       1.255501             0.00976312138            0.000438526849           
       1.258142             0.00946322224            0.000423203632           
       1.260782              0.0098764051            0.000437227493           
       1.263423              0.0101717226            0.000434925369           
       1.266063             0.00929063017            0.000423409134           
       1.268703               0.010044165            0.000429153145           
       1.271344             0.00984128917             0.00043404902           
       1.273984              0.0100265323            0.000431275734           
       1.276624              0.0104852179            0.000438339319           
       1.279265             0.00995561678            0.000428058333           
       1.281905              0.0100251273            0.000432197759           
       1.284546              0.0104473746            0.000436385815           
       1.287186              0.0100285895              0.0004279608           
       1.289826             0.00978305671            0.000424881325           
       1.292467              0.0105781051            0.000433923287           
       1.295107              0.0104651285            0.000439207432           
       1.297747              0.0100939669            0.000420034476           
       1.300388              0.0105596605            0.000440646716           
       1.303028              0.0106642348            0.000431562609           
       1.305669              0.0100570758            0.000424511988           
       1.308309              0.0103123667             0.00042340269           
       1.310949             0.00969151818            0.000415575485           
       1.313590              0.0103968347            0.000423770752           
       1.316230              0.0108238792            0.000440169226           
       1.318871               0.011129782             0.00043671662           
       1.321511              0.0103901869            0.000424071437           
       1.324151               0.010141759            0.000420626564           
       1.326792               0.010984856            0.000434215061           
       1.329432              0.0104525763            0.000425773761           
       1.332072              0.0105672806            0.000420762628           
       1.334713              0.0111167328            0.000436915111           
       1.337353              0.0107513514             0.00042306552           
       1.339994              0.0102599034            0.000419169812           
       1.342634               0.010314085            0.000410813735           
       1.345274              0.0111839551            0.000433379307           
       1.347915              0.0109278214            0.000429526857           
       1.350555              0.0110108431            0.000429470954           
       1.353195              0.0107183557            0.000415622324           
       1.355836              0.0105240608            0.000419608552           
       1.358476              0.0102404575            0.000412751988           
       1.361117              0.0103582749            0.000404705913           
       1.363757              0.0104220496            0.000419403335           
       1.366397              0.0100396026            0.000398817515           
       1.369038              0.0103817817            0.000414105003           
       1.371678              0.0110435191            0.000418474685           
       1.374319              0.0106612409            0.000414429035           
       1.376959              0.0114460696             0.00042350062           
       1.379599              0.0105165193            0.000413852596           
       1.382240              0.0109738032            0.000414724896           
       1.384880              0.0108161164            0.000416789701           
       1.387520              0.0108514102            0.000412588179           
       1.390161              0.0107210353            0.000408987517           
       1.392801              0.0105568562            0.000408262777           
       1.395442              0.0106210835            0.000405259797           
       1.398082              0.0104800566            0.000403937887           
       1.400722              0.0104408542             0.00040136027           
       1.403363              0.0102639278            0.000401637947           
       1.406003              0.0105104012            0.000396451721           
       1.408644              0.0113024193            0.000419748778           
       1.411284              0.0109334434            0.000410576329           
       1.413924              0.0104196785            0.000395870225           
       1.416565              0.0103902296            0.000394845706           
       1.419205              0.0103244956            0.000397471828           
       1.421845              0.0110482368            0.000405998069           
       1.424486              0.0106836273            0.000401005122           
       1.427126              0.0109925112            0.000406504086           
       1.429767              0.0106875827            0.000394649615           
       1.432407               0.010271823            0.000396643795           
       1.435047              0.0107590382            0.000393742868           
       1.437688              0.0102242189            0.000392331793           
       1.440328              0.0109561374             0.00039826164           
       1.442968              0.0109411013            0.000403497592           
       1.445609              0.0111629092            0.000400863411           
       1.448249              0.0105404388            0.000392045178           
       1.450890              0.0102870852            0.000384542002           
       1.453530              0.0102403659            0.000386509675           
       1.456170              0.0104996087            0.000390490376           
       1.458811              0.0100540151            0.000379074499           
       1.461451              0.0101214309            0.000383139153           
       1.464092              0.0108057035            0.000392427931           
       1.466732               0.010738647              0.0003888089           
       1.469372              0.0105786402            0.000384715162           
       1.472013              0.0111122063            0.000401352308           
       1.474653              0.0102426869            0.000375815306           
       1.477293              0.0100740398            0.000378982083           
       1.479934              0.0103243193            0.000379645347           
       1.482574              0.0103877467             0.00037986991           
       1.485215              0.0110042127            0.000391986016           
       1.487855              0.0103923748             0.00038085421           
       1.490495              0.0101552426            0.000375673664           
       1.493136              0.0106385667            0.000379467066           
       1.495776              0.0107707786            0.000388474567           
       1.498416              0.0100655106            0.000368244955           
       1.501057              0.0101180252            0.000372379966           
       1.503697              0.0109684927            0.000383986618           
       1.506338              0.0110869141            0.000388892982           
       1.508978             0.00996936695            0.000366595166           
       1.511618              0.0103985081            0.000374213045           
       1.514259             0.00982999028            0.000364496701           
       1.516899              0.0103621836            0.000374407807           
       1.519540             0.00992240527            0.000364343437           
       1.522180              0.0101184139            0.000363329725           
       1.524820              0.0104267243            0.000376272891           
       1.527461             0.00980139387            0.000356744784           
       1.530101               0.010322067            0.000369882938           
       1.532741             0.00955640972            0.000354214085           
       1.535382             0.00953631969            0.000354620805           
       1.538022              0.0104890794            0.000368623443           
       1.540663              0.0106402862            0.000374779789           
       1.543303               0.010165336            0.000361761197           
       1.545943              0.0104228823            0.000368368232           
       1.548584              0.0105047517            0.000371781393           
       1.551224              0.0103546747            0.000359653027           
       1.553864             0.00989151002            0.000360700199           
       1.556505              0.0103047182            0.000362493708           
       1.559145               0.010176909            0.000361071494           
       1.561786              0.0108638796            0.000371369122           
       1.564426             0.00979361868             0.00035228363           
       1.567066              0.0104614674            0.000361255235           
       1.569707              0.0101170605            0.000360402192           
       1.572347             0.00943410796             0.00034350983           
       1.574988             0.00944017593             0.00034226091           
       1.577628              0.0104132492            0.000367561476           
       1.580268             0.00983650598            0.000344909501           
       1.582909             0.00990164149            0.000352522114           
       1.585549             0.00951341607            0.000342312935           
       1.588189             0.00933155284            0.000342811808           
       1.590830             0.00927140874            0.000335839688           
       1.593470              0.0094783532            0.000342340096           
       1.596111             0.00866260917            0.000324449232           
       1.598751             0.00888411102            0.000331930014           
       1.601391              0.0093350511              0.0003380744           
       1.604032             0.00875925831            0.000324747373           
       1.606672             0.00905932043            0.000336910026           
       1.609312             0.00871016105            0.000320523999           
       1.611953             0.00939305899            0.000337675666           
       1.614593             0.00917044002            0.000331112501           
       1.617234             0.00884424328            0.000327013459           
       1.619874             0.00906538764            0.000327181731           
       1.622514             0.00839528292            0.000317641767           
       1.625155              0.0093162216            0.000333783205           
       1.627795             0.00911413851            0.000326807077           
       1.630436             0.00901305886            0.000328256419           
       1.633076             0.00914192216             0.00032891506           
       1.635716             0.00908305642            0.000327282655           
       1.638357             0.00900719772            0.000324528404           
       1.640997             0.00883982154            0.000324013233           
       1.643637             0.00947721694            0.000329261662           
       1.646278             0.00848623292            0.000316235586           
       1.648918             0.00868843988             0.00031585577           
       1.651559             0.00893937623            0.000324412781           
       1.654199             0.00846838689            0.000311422878           
       1.656839             0.00924081015            0.000325228235           
       1.659480             0.00873774014             0.00031903694           
       1.662120             0.00895080358            0.000318576234           
       1.664761             0.00831701637            0.000310415245           
       1.667401             0.00854092115            0.000311635427           
       1.670041             0.00884129158            0.000317430779           
       1.672682             0.00830052956            0.000304675889           
       1.675322              0.0082601447            0.000309307646           
       1.677962             0.00874743134            0.000311978889           
       1.680603             0.00900285498            0.000319309913           
       1.683243             0.00845065955            0.000307073859           
       1.685884             0.00851550297            0.000309422723           
       1.688524             0.00906540081            0.000318358868           
       1.691164             0.00886577429            0.000314024898           
       1.693805             0.00881523795            0.000315660777           
       1.696445             0.00824048151            0.000300960809           
       1.699085             0.00850571385            0.000306986626           
       1.701726              0.0083996461             0.00030109837           
       1.704366             0.00882072528            0.000316060996           
       1.707007             0.00858364279             0.00030513125           
       1.709647             0.00832910408             0.00030430767           
       1.712287             0.00835593673             0.00029970369           
       1.714928             0.00866372106            0.000308242071           
       1.717568             0.00841560766            0.000301002667           
       1.720209             0.00849472866            0.000304281767           
       1.722849             0.00866888642             0.00030787797           
       1.725489             0.00803595503            0.000291700917           
       1.728130             0.00821863755            0.000301003162           
       1.730770             0.00894789954            0.000307435039           
       1.733410             0.00811534852            0.000296626929           
       1.736051             0.00828590552            0.000295075416           
       1.738691             0.00861827501            0.000304007048           
       1.741332             0.00855056963            0.000300946505           
       1.743972             0.00847537081            0.000299731363           
       1.746612             0.00801400282            0.000291526125           
       1.749253             0.00799467336            0.000292432679           
       1.751893              0.0079537424            0.000289933173           
       1.754533             0.00788433948             0.00028470357           
       1.757174             0.00795895478            0.000291395707           
       1.759814             0.00823615344             0.00029190753           
       1.762455             0.00818507387            0.000293478356           
       1.765095             0.00810774001            0.000287986774           
       1.767735             0.00823984037            0.000295256671           
       1.770376             0.00811691554            0.000288601913           
       1.773016             0.00802154095            0.000287354144           
       1.775657             0.00779262781            0.000283804573           
       1.778297             0.00798410481            0.000288675505           
       1.780937             0.00838305211            0.000294419483           
       1.783578             0.00783076584            0.000283219699           
       1.786218             0.00820546183            0.000294542793           
       1.788858              0.0086230346            0.000294442496           
       1.791499             0.00853890067            0.000298402637           
       1.794139             0.00833474006            0.000289369711           
       1.796780             0.00869104246            0.000297245887           
       1.799420             0.00899096896            0.000301946423           
       1.802060             0.00875801856            0.000294343801           
       1.804701             0.00912116762            0.000304414171           
       1.807341             0.00896723289            0.000298917983           
       1.809981             0.00915186413             0.00030398512           
       1.812622             0.00871049731            0.000294948641           
       1.815262             0.00884181584             0.00029822319           
       1.817903             0.00812559769            0.000282357556           
       1.820543             0.00841555725            0.000290902999           
       1.823183             0.00841080093              0.0002863398           
       1.825824             0.00871867421            0.000295917537           
       1.828464             0.00838334678            0.000289280829           
       1.831105              0.0087702531             0.00029702644           
       1.833745             0.00886262872            0.000298400237           
       1.836385             0.00758657786             0.00027500997           
       1.839026             0.00800154251            0.000286676595           
       1.841666             0.00817209747            0.000285953903           
       1.844306             0.00834675604            0.000292641974           
       1.846947             0.00847722304            0.000291130273           
       1.849587             0.00783381812            0.000283659929           
       1.852228             0.00825292595            0.000288052334           
       1.854868             0.00829760614            0.000294128383           
       1.857508             0.00916267956            0.000303373499           
       1.860149             0.00847810452            0.000294159563           
       1.862789             0.00858184641            0.000297263398           
       1.865429             0.00833674652            0.000293871008           
       1.868070             0.00850535858            0.000295802256           
       1.870710             0.00844645678            0.000295578996           
       1.873351             0.00878074876            0.000303295402           
       1.875991             0.00876739575            0.000304704075           
       1.878631             0.00827990217             0.00029335946           
       1.881272             0.00827173589            0.000292527912           
       1.883912             0.00879660889            0.000305204063           
       1.886553              0.0085055315            0.000296512037           
       1.889193             0.00855811244            0.000300862907           
       1.891833             0.00865326014            0.000299087991           
       1.894474             0.00806615139            0.000291048903           
       1.897114             0.00799417233            0.000287499909           
       1.899754             0.00846936584            0.000299240138           
       1.902395             0.00817595449            0.000294073715           
       1.905035             0.00823317499            0.000293944501           
       1.907676             0.00867325392            0.000302048927           
       1.910316             0.00797319888            0.000291449224           
       1.912956              0.0085152633            0.000301181565           
       1.915597             0.00841032763            0.000296199517           
       1.918237             0.00870400817             0.00030590072           
       1.920878             0.00881370188            0.000302374559           
       1.923518             0.00883846759            0.000310844032           
       1.926158             0.00808603306            0.000290486327           
       1.928799             0.00758799438            0.000285137633           
       1.931439             0.00813165382            0.000292810099           
       1.934079              0.0084766914            0.000301985243           
       1.936720             0.00828888083            0.000296863486           
       1.939360             0.00844441561            0.000302523589           
       1.942001             0.00850262035            0.000302396592           
       1.944641             0.00782009517             0.00028875602           
       1.947281             0.00829471938             0.00029882646           
       1.949922             0.00818605621             0.00029723421           
       1.952562             0.00811678624            0.000298520822           
       1.955202             0.00772634486            0.000283934826           
       1.957843             0.00810435723            0.000300035347           
       1.960483             0.00781793462            0.000289985301           
       1.963124              0.0082147151            0.000297032551           
       1.965764             0.00818609804            0.000296620735           
       1.968404             0.00788739177            0.000296365223           
       1.971045             0.00755260152            0.000282737564           
       1.973685             0.00825159475            0.000301046772           
       1.976326             0.00854220167            0.000304966639           
       1.978966             0.00808803989            0.000298153076           
       1.981606             0.00883592006            0.000308337378           
       1.984247             0.00803810626            0.000296652255           
       1.986887             0.00838343491            0.000305790923           
       1.989527             0.00774579315            0.000287808176           
       1.992168             0.00828015938            0.000304749743           
       1.994808             0.00846297268            0.000304511958           
       1.997449             0.00808570061            0.000297210645           
       2.000089             0.00789355825             0.00029192891           
       2.002729             0.00790527472            0.000298839833           
       2.005370             0.00828522107            0.000300121337           
       2.008010              0.0081194021            0.000301047406           
       2.010650             0.00808152588            0.000299485212           
       2.013291             0.00791399496            0.000298051658           
       2.015931             0.00806720324            0.000298769102           
       2.018572             0.00780855041            0.000297844332           
       2.021212             0.00797041313            0.000298214863           
       2.023852             0.00804296807            0.000301142818           
       2.026493             0.00774475679            0.000294212299           
       2.029133             0.00739687349            0.000285335186           
       2.031774             0.00744312082            0.000289001517           
       2.034414             0.00707458213            0.000280074409           
       2.037054             0.00800487232            0.000301676943           
       2.039695             0.00805284993             0.00029661962           
       2.042335             0.00748771807            0.000290890745           
       2.044975             0.00726834233             0.00028430727           
       2.047616             0.00714649733            0.000283122183           
       2.050256             0.00783176197            0.000292899177           
       2.052897             0.00779348536            0.000300836136           
       2.055537             0.00735048797            0.000284195545           
       2.058177             0.00733135105            0.000286332459           
       2.060818             0.00754347361            0.000291317199           
       2.063458              0.0073004459             0.00028698083           
       2.066098             0.00830504935            0.000304731756           
       2.068739             0.00758043934            0.000294170147           
       2.071379             0.00740785773            0.000286507752           
       2.074020             0.00759479522            0.000294072834           
       2.076660             0.00776972837            0.000295424094           
       2.079300             0.00736673226            0.000287618961           
       2.081941             0.00755889745            0.000293117389           
       2.084581             0.00743046459             0.00029083182           
       2.087222             0.00738741157            0.000290185589           
       2.089862             0.00671710248            0.000273258457           
       2.092502             0.00771309227            0.000298137884           
       2.095143             0.00757811862             0.00029129427           
       2.097783             0.00762647248            0.000296668813           
       2.100423             0.00720183982             0.00028276358           
       2.103064             0.00761693652            0.000295819184           
       2.105704             0.00721385902             0.00028678429           
       2.108345             0.00771616154            0.000297962401           
       2.110985             0.00745725451            0.000288806509           
       2.113625             0.00740723617            0.000292371384           
       2.116266             0.00815398596            0.000304484627           
       2.118906             0.00739928965            0.000289840796           
       2.121546              0.0073402867            0.000288453655           
       2.124187             0.00710022375            0.000287621532           
       2.126827             0.00804154619            0.000301293817           
       2.129468             0.00755074547            0.000295001363           
       2.132108              0.0074411491            0.000292246632           
       2.134748             0.00771579579            0.000296469534           
       2.137389             0.00684545483            0.000281587392           
       2.140029             0.00709692231             0.00028601653           
       2.142670             0.00725125257            0.000289582072           
       2.145310              0.0069660682             0.00028491484           
       2.147950             0.00731155105            0.000293022955           
       2.150591             0.00806578073            0.000304943123           
       2.153231             0.00734860852             0.00029537377           
       2.155871              0.0074762345            0.000293624923           
       2.158512              0.0073334169            0.000296046981           
       2.161152             0.00733008624            0.000288586223           
       2.163793             0.00749598355            0.000296582185           
       2.166433             0.00735602747            0.000288705645           
       2.169073             0.00726374525            0.000293587197           
       2.171714             0.00761150984            0.000294414606           
       2.174354             0.00774682754            0.000301558896           
       2.176995             0.00774429045            0.000299008442           
       2.179635             0.00750173061            0.000299858015           
       2.182275             0.00711381254            0.000286205721           
       2.184916              0.0072159062            0.000294344311           
       2.187556             0.00744849375            0.000294235989           
       2.190196             0.00752144328            0.000300320695           
       2.192837             0.00803381467            0.000306982467           
       2.195477             0.00679141979            0.000284971983           
       2.198118             0.00723750751            0.000288751073           
       2.200758             0.00710915185            0.000290623308           
       2.203398             0.00744064429             0.00029239122           
       2.206039             0.00775872602            0.000303139251           
       2.208679             0.00735293813            0.000292216805           
       2.211319             0.00671628239            0.000280594156           
       2.213960             0.00724153074            0.000288261745           
       2.216600             0.00666673801            0.000283101709           
       2.219241             0.00729317475            0.000291799018           
       2.221881             0.00699711768            0.000287304866           
       2.224521             0.00741139214            0.000294662132           
       2.227162             0.00700234065            0.000290913882           
       2.229802              0.0072503199            0.000291215129           
       2.232443             0.00760418958            0.000299409685           
       2.235083               0.007574725            0.000297037177           
       2.237723              0.0070832603            0.000289440626           
       2.240364             0.00657762138            0.000277499809           
       2.243004             0.00697764042            0.000286676842           
       2.245644             0.00729250834            0.000292396881           
       2.248285              0.0071668569              0.0002917486           
       2.250925             0.00694517488            0.000285858033           
       2.253566              0.0072828969            0.000293441497           
       2.256206             0.00726046949             0.00029211169           
       2.258846             0.00729202101            0.000292748321           
       2.261487             0.00692104104            0.000285697731           
       2.264127             0.00741815218            0.000298578696           
       2.266767             0.00723642283              0.0002901323           
       2.269408             0.00781229836             0.00030503605           
       2.272048             0.00760784757            0.000299166464           
       2.274689             0.00672861802            0.000282455061           
       2.277329              0.0070224318            0.000288172621           
       2.279969             0.00703152633            0.000289233164           
       2.282610             0.00733552469            0.000292538366           
       2.285250             0.00741491948            0.000298742966           
       2.287891             0.00730060227            0.000293439819           
       2.290531             0.00715576411             0.00029194705           
       2.293171             0.00754333247            0.000299734198           
       2.295812             0.00725989607            0.000292488426           
       2.298452             0.00699776819            0.000288998725           
       2.301092              0.0071940796             0.00029488574           
       2.303733             0.00643944358            0.000273472787           
       2.306373             0.00737281141            0.000299778958           
       2.309014             0.00693010439            0.000285038718           
       2.311654             0.00740723848            0.000297484509           
       2.314294             0.00665367317            0.000281331113           
       2.316935              0.0073269939            0.000296389642           
       2.319575             0.00745182893            0.000297784595           
       2.322215             0.00746100815            0.000302213923           
       2.324856             0.00684553885            0.000282211098           
       2.327496             0.00718380921            0.000296184915           
       2.330137             0.00683476262            0.000283571779           
       2.332777             0.00718746961             0.00029397708           
       2.335417             0.00753176124            0.000300032288           
       2.338058             0.00740827756            0.000298753537           
       2.340698             0.00703455901            0.000288254229           
       2.343339             0.00689064636            0.000290734573           
       2.345979             0.00696259653            0.000286416779           
       2.348619             0.00710697203            0.000294835789           
       2.351260             0.00718722028            0.000290193014           
       2.353900             0.00685309036            0.000289369717           
       2.356540             0.00700992768            0.000288637136           
       2.359181             0.00682168716            0.000288542839           
       2.361821             0.00727249263            0.000294294382           
       2.364462             0.00689165062            0.000291273023           
       2.367102             0.00670854809            0.000279067312           
       2.369742             0.00681553262            0.000291364046           
       2.372383              0.0069182986            0.000284995131           
       2.375023             0.00704992028             0.00029518901           
       2.377663             0.00715275642            0.000291015635           
       2.380304             0.00708758914            0.000293705367           
       2.382944             0.00634542948            0.000275184755           
       2.385585             0.00725347121            0.000296997776           
       2.388225             0.00700194037            0.000290484367           
       2.390865             0.00764450704            0.000304297923           
       2.393506             0.00714600214            0.000292853056           
       2.396146             0.00647408787            0.000279669158           
       2.398787             0.00664239942            0.000283528998           
       2.401427              0.0068633376            0.000286455792           
       2.404067             0.00769846016            0.000308013983           
       2.406708             0.00691468059            0.000288244687           
       2.409348             0.00720147884            0.000296374575           
       2.411988             0.00689658328             0.00028910649           
       2.414629             0.00720143101            0.000296393664           
       2.417269             0.00705210887            0.000290641071           
       2.419910               0.007173344             0.00029682526           
       2.422550               0.007190868            0.000292676355           
       2.425190             0.00745593032            0.000307404894           
       2.427831             0.00674112838            0.000281305247           
       2.430471             0.00693728001            0.000293710303           
       2.433112             0.00714968941            0.000291137147           
       2.435752             0.00728661176            0.000301352395           
       2.438392             0.00772318245            0.000305034007           
       2.441033             0.00750878459            0.000302148535           
       2.443673              0.0070959467            0.000294509309           
       2.446313             0.00691804271            0.000289244686           
       2.448954             0.00699800401            0.000293464134           
       2.451594             0.00761082881            0.000304207715           
       2.454235             0.00718750896            0.000294706695           
       2.456875             0.00683703244            0.000288887611           
       2.459515             0.00720902144             0.00029709981           
       2.462156             0.00755651946            0.000302608128           
       2.464796             0.00723606332            0.000301345521           
       2.467436             0.00717221828            0.000293722368           
       2.470077             0.00797089573            0.000313914703           
       2.472717             0.00785539811            0.000307732783           
       2.475358             0.00763972457            0.000306917175           
       2.477998             0.00751635921            0.000302804894           
       2.480638             0.00774126234            0.000308048413           
       2.483279             0.00689548993             0.00029198287           
       2.485919              0.0072924544            0.000298167337           
       2.488560             0.00778350801             0.00030932042           
       2.491200             0.00706603352            0.000294315347           
       2.493840             0.00744874171            0.000300535315           
       2.496481             0.00754069501            0.000306338886           
       2.499121              0.0065821029            0.000282395326           
       2.501761             0.00732695724            0.000303004898           
       2.504402             0.00681988364            0.000286729697           
       2.507042             0.00761676208            0.000308055836           
       2.509683             0.00715546577            0.000295862563           
       2.512323             0.00777188716            0.000309550498           
       2.514963              0.0156670781            0.000440377511           
       2.517604              0.0293255824            0.000600137668           
       2.520244              0.0177661186            0.000467217162           
       2.522884             0.00879742531            0.000328056956           
       2.525525             0.00837311268            0.000322676752           
       2.528165               0.019153108            0.000485798126           
       2.530806              0.0311242774            0.000616953668           
       2.533446              0.0159131215            0.000445064567           
       2.536086             0.00957355482            0.000342311622           
       2.538727             0.00934540275            0.000340376337           
       2.541367             0.00993838869            0.000350005376           
       2.544008             0.00661424042            0.000285775149           
       2.546648             0.00701488613            0.000294637253           
       2.549288             0.00670770092            0.000288155359           
       2.551929             0.00720910709            0.000299717966           
       2.554569             0.00668930547            0.000286072181           
       2.557209             0.00713287202             0.00029874236           
       2.559850              0.0069157486            0.000290777794           
       2.562490             0.00737228757            0.000302408152           
       2.565131             0.00735380896            0.000302554417           
       2.567771             0.00747222279            0.000303364207           
       2.570411             0.00759530402            0.000309574383           
       2.573052             0.00689214396            0.000291454193           
       2.575692             0.00678769524            0.000290004573           
       2.578332               0.006746411            0.000288267213           
       2.580973             0.00671112798            0.000289843578           
       2.583613             0.00765695341            0.000306773702           
       2.586254             0.00725981457            0.000301354833           
       2.588894             0.00699662878            0.000294263871           
       2.591534             0.00691796594            0.000293143207           
       2.594175             0.00637116903            0.000282952722           
       2.596815             0.00681807498            0.000289986944           
       2.599456             0.00681482569            0.000292289867           
       2.602096             0.00671515849            0.000289058823           
       2.604736             0.00710443094            0.000298098824           
       2.607377             0.00760665036            0.000307275802           
       2.610017             0.00676953842            0.000289773991           
       2.612657             0.00710453738            0.000298954312           
       2.615298             0.00696457813            0.000293099625           
       2.617938             0.00676285976            0.000291350511           
       2.620579             0.00692288641            0.000292369479           
       2.623219             0.00682123359            0.000294857261           
       2.625859             0.00731995802            0.000300298228           
       2.628500             0.00704660881            0.000299346791           
       2.631140             0.00705187261            0.000294177763           
       2.633780             0.00712123987            0.000299418071           
       2.636421             0.00647614995            0.000282936266           
       2.639061             0.00679610419              0.0002933067           
       2.641702             0.00715439532            0.000297721936           
       2.644342             0.00767601827            0.000310914082           
       2.646982              0.0071696558            0.000300229031           
       2.649623             0.00691991443            0.000296721936           
       2.652263             0.00754385286            0.000307345083           
       2.654904             0.00680055877            0.000293395667           
       2.657544             0.00718210103            0.000299392435           
       2.660184             0.00707227096             0.00029747445           
       2.662825             0.00722643132            0.000301419876           
       2.665465             0.00662644632            0.000289169694           
       2.668105             0.00714967359             0.00030048823           
       2.670746             0.00652621303            0.000284658801           
       2.673386             0.00698311331            0.000298023394           
       2.676027             0.00686042849            0.000292882685           
       2.678667              0.0071446904            0.000300442733           
       2.681307             0.00700525382            0.000295157194           
       2.683948              0.0078859712            0.000316272077           
       2.686588             0.00739766953            0.000303512773           
       2.689229             0.00737968176            0.000305864209           
       2.691869             0.00713907034            0.000297833792           
       2.694509             0.00669254541            0.000292323802           
       2.697150             0.00776779594            0.000309906015           
       2.699790             0.00723640509            0.000305331344           
       2.702430             0.00675837303            0.000289416633           
       2.705071             0.00753065092            0.000309686365           
       2.707711             0.00679176416            0.000291185031           
       2.710352             0.00731043432            0.000303818534           
       2.712992             0.00698191972            0.000297878955           
       2.715632             0.00677196615            0.000291697255           
       2.718273             0.00662685899            0.000289513088           
       2.720913             0.00677364276            0.000293190544           
       2.723553             0.00618517654            0.000279192096           
       2.726194              0.0067651373             0.00029339646           
       2.728834             0.00697442735            0.000295252105           
       2.731475             0.00646835103            0.000286823439           
       2.734115             0.00705759478            0.000297817777           
       2.736755              0.0068679748             0.00029573181           
       2.739396             0.00653412754            0.000286929277           
       2.742036             0.00703412547            0.000299736989           
       2.744677             0.00730029194            0.000305801701           
       2.747317             0.00667323816             0.00029095315           
       2.749957             0.00807756534            0.000322429097           
       2.752598             0.00702718594            0.000301641141           
       2.755238              0.0070665461            0.000302348399           
       2.757878              0.0073439904             0.00030734902           
       2.760519             0.00704638171            0.000297878369           
       2.763159             0.00741245827            0.000310485824           
       2.765800             0.00739822493            0.000304933081           
       2.768440             0.00660917993            0.000292010434           
       2.771080             0.00668856017            0.000291283296           
       2.773721             0.00667407486            0.000294537274           
       2.776361             0.00604348933            0.000277267463           
       2.779001             0.00663836577            0.000293647913           
       2.781642             0.00683314287            0.000295891864           
       2.784282             0.00711423374             0.00030202182           
       2.786923             0.00704503105            0.000298263512           
       2.789563             0.00683809876             0.00029444074           
       2.792203             0.00660086409            0.000291129582           
       2.794844             0.00664372144            0.000290744174           
       2.797484             0.00670799681            0.000292558842           
       2.800125             0.00726137083            0.000303993657           
       2.802765             0.00625429889            0.000287357012           
       2.805405             0.00660327486             0.00029100298           
       2.808046             0.00659459789            0.000295270892           
       2.810686             0.00656459243            0.000291459294           
       2.813326             0.00661560121            0.000296209435           
       2.815967             0.00695638085            0.000301828543           
       2.818607             0.00730098497            0.000312305162           
       2.821248             0.00714370412            0.000305071009           
       2.823888             0.00708495497            0.000308707446           
       2.826528             0.00644147524            0.000292598689           
       2.829169             0.00634009811             0.00028900549           
       2.831809              0.0063703552            0.000289948102           
       2.834449             0.00652176948            0.000288252901           
       2.837090             0.00692166269            0.000298745881           
       2.839730             0.00689781032             0.00029611281           
       2.842371             0.00654634304            0.000290480098           
       2.845011             0.00700950084            0.000299909944           
       2.847651             0.00659213716            0.000291378347           
       2.850292             0.00717584805             0.00030227772           
       2.852932             0.00665055694            0.000291525548           
       2.855573             0.00665857899            0.000294263208           
       2.858213             0.00641677779             0.00028562962           
       2.860853             0.00753390642            0.000311812415           
       2.863494             0.00681506674            0.000297278033           
       2.866134             0.00739138269            0.000313935177           
       2.868774             0.00745438417            0.000310444252           
       2.871415             0.00716589531            0.000307390359           
       2.874055             0.00671503168            0.000299037044           
       2.876696              0.0073391488            0.000309810005           
       2.879336             0.00710459321             0.00030684252           
       2.881976             0.00667691315            0.000297218755           
       2.884617             0.00700219854            0.000302681764           
       2.887257             0.00661897332            0.000292230561           
       2.889897             0.00687514186             0.00030124563           
       2.892538             0.00681816563            0.000297914774           
       2.895178             0.00675307515            0.000293465806           
       2.897819             0.00697757034            0.000301371862           
       2.900459             0.00712669563            0.000302053562           
       2.903099             0.00670379412            0.000294484143           
       2.905740             0.00676425733            0.000292507234           
       2.908380             0.00695994604            0.000300663516           
       2.911021             0.00644057275            0.000289777626           
       2.913661             0.00616554022            0.000280402804           
       2.916301              0.0074729439             0.00031309588           
       2.918942             0.00713998176            0.000301424268           
       2.921582             0.00644642333            0.000289415527           
       2.924222             0.00686000845              0.0002968236           
       2.926863              0.0065637133            0.000291113904           
       2.929503             0.00726623998            0.000309697379           
       2.932144             0.00704247199            0.000299890916           
       2.934784             0.00731241852            0.000306883126           
       2.937424             0.00678325273            0.000296117463           
       2.940065             0.00688204483            0.000298508765           
       2.942705             0.00659622246            0.000293132255           
       2.945346             0.00644573814            0.000288057737           
       2.947986             0.00742530728            0.000310253372           
       2.950626             0.00913180336            0.000345120585           
       2.953267              0.0106541198            0.000368818768           
       2.955907             0.00851547815             0.00033408955           
       2.958547             0.00786026842            0.000317688071           
       2.961188             0.00699361414            0.000302278952           
       2.963828             0.00655537909            0.000290996529           
       2.966469             0.00637368333            0.000287006873           
       2.969109             0.00739353046             0.00031069799           
       2.971749             0.00773665446            0.000316890946           
       2.974390             0.00951323949            0.000352360748           
       2.977030             0.00967277264            0.000354626744           
       2.979670              0.0082298551            0.000324999774           
       2.982311              0.0075911765             0.00031438695           
       2.984951             0.00746381885            0.000312544591           
       2.987592             0.00766167317            0.000315591231           
       2.990232             0.00726992136            0.000308202061           
       2.992872             0.00846024814            0.000329876269           
       2.995513             0.00928189768            0.000348237877           
       2.998153              0.0119640715            0.000397914718           
       3.000794              0.0228543781            0.000541962371           
       3.003434              0.0354809659             0.00068243762           
       3.006074              0.0239165322            0.000562097624           
       3.008715              0.0169020023            0.000476130737           
       3.011355              0.0189805168            0.000509805307           
       3.013995              0.0159063024            0.000464414692           
       3.016636              0.0279295213            0.000616547589           
       3.019276               0.155873598             0.00149134319           
       3.021917               0.428244002             0.00243001062           
       3.024557               0.157351669             0.00148474411           
       3.027197              0.0793513554             0.00107206656           
       3.029838               0.120932558             0.00131714763           
       3.032478              0.0919779945             0.00115555917           
       3.035118               0.059238779            0.000932144028           
       3.037759               0.094232784             0.00117772854           
       3.040399              0.0718851753             0.00104041147           
       3.043040              0.0581757174            0.000945048521           
       3.045680              0.0530217577            0.000888320454           
       3.048320              0.0689057289             0.00102892558           
       3.050961              0.0510208339            0.000894258846           
       3.053601              0.0817717446             0.00112710984           
       3.056242              0.0881656306              0.0011778636           
       3.058882              0.0866315986              0.0011849401           
       3.061522               0.261100392             0.00204287848           
       3.064163              0.0773032702             0.00111359491           
       3.066803              0.0226989978            0.000615105295           
       3.069443              0.0234274919            0.000620735903           
       3.072084              0.0629070759             0.00102622501           
       3.074724               0.072690796              0.0011096589           
       3.077365              0.0134614978            0.000477183519           
       3.080005              0.0083783404            0.000380633711           
       3.082645             0.00904019326            0.000397395347           
       3.085286             0.00817764143            0.000378030772           
       3.087926             0.00740141442            0.000361930288           
       3.090566             0.00760701615            0.000370702373           
       3.093207             0.00762187035            0.000367055099           
       3.095847             0.00817123968            0.000388019611           
       3.098488             0.00813881002            0.000386546699           
       3.101128               0.008471105            0.000396507032           
       3.103768             0.00762787987            0.000378375171           
       3.106409             0.00922823119            0.000418966331           
       3.109049             0.00965716068            0.000431924377           
       3.111690              0.0125064942            0.000489595492           
       3.114330              0.0181540592            0.000595118756           
       3.116970              0.0193628064            0.000623161966           
       3.119611               0.014172288            0.000529665462           
       3.122251              0.0105351924            0.000460410401           
       3.124891              0.0102703884            0.000456794255           
       3.127532             0.00727312953            0.000391328545           
       3.130172             0.00915704043            0.000430062046           
       3.132813             0.00913268128            0.000438230801           
       3.135453             0.00809489179            0.000421284161           
       3.138093             0.00662767587              0.0003721529           
       3.140734             0.00646158764            0.000374299086           
       3.143374             0.00570394845            0.000357047208           
       3.146014             0.00694828391            0.000391212371           
       3.148655             0.00664623932            0.000385627215           
       3.151295             0.00612559622            0.000373145218           
       3.153936             0.00783590328            0.000428265091           
       3.156576              0.0064710374            0.000384716489           
       3.159216             0.00712129847            0.000406884364           
       3.161857             0.00624840149            0.000385807862           
       3.164497             0.00667805107            0.000407261645           
       3.167138             0.00624787066            0.000384475092           
       3.169778             0.00570463004            0.000374014107           
       3.172418             0.00580737518            0.000379572329           
       3.175059             0.00637716871            0.000402963051           
       3.177699             0.00605290137            0.000391033801           
       3.180339             0.00591128708            0.000389886524           
       3.182980             0.00609132547            0.000401122274           
       3.185620             0.00614538027            0.000407300878           
       3.188261             0.00601637125            0.000397723108           
       3.190901             0.00551127308            0.000386527562           
       3.193541             0.00512087782            0.000373813896           
       3.196182             0.00550948482            0.000395805799           
       3.198822             0.00524405891            0.000381472771           
       3.201463             0.00586065352            0.000408491428           
       3.204103              0.0049227455            0.000379366177           
       3.206743             0.00540656369            0.000400933139           
       3.209384              0.0062178939            0.000428048154           
       3.212024             0.00549157137            0.000403700568           
       3.214664             0.00553556861             0.00041303995           
       3.217305             0.00576219796             0.00043124187           
       3.219945             0.00545717305            0.000416163359           
       3.222586             0.00528722903            0.000411950375           
       3.225226             0.00642645727            0.000464399788           
       3.227866             0.00623619151            0.000461012593           
       3.230507             0.00626186859            0.000467473197           
       3.233147             0.00607336055             0.00045357342           
       3.235787             0.00583150739            0.000444571394           
       3.238428             0.00585187451            0.000453212427           
       3.241068              0.0052617875            0.000438469451           
       3.243709             0.00462674285            0.000408877425           
       3.246349             0.00590742928            0.000459428568           
       3.248989             0.00597283402            0.000472523996           
       3.251630             0.00561859115            0.000460324952           
       3.254270             0.00537642141            0.000464136838           
       3.256911             0.00571387974            0.000466492482           
       3.259551             0.00608618987            0.000492089488           
       3.262191             0.00457663489            0.000430647221           
       3.264832             0.00552624502            0.000477660787           
       3.267472             0.00552712587            0.000484473329           
       3.270112             0.00572262107            0.000494370175           
       3.272753             0.00635960431            0.000527563073           
       3.275393              0.0045256877            0.000447333406           
       3.278034             0.00529377273            0.000493662124           
       3.280674             0.00616603614            0.000534329075           
       3.283314             0.00677872324            0.000563342882           
       3.285955             0.00511584536            0.000498585092           
       3.288595             0.00489269449            0.000493029413           
       3.291235             0.00649039893            0.000571186831           
       3.293876             0.00661505444             0.00058006029           
       3.296516             0.00651450791            0.000587375939           
       3.299157             0.00503333409            0.000524104901           
       3.301797             0.00536591485            0.000541373196           
       3.304437             0.00590493146            0.000578558938           
       3.307078             0.00577620198            0.000577776649           
       3.309718              0.0063256558            0.000610668194           
       3.312359              0.0053474536             0.00057281418           
       3.314999              0.0059588313            0.000611016622           
       3.317639             0.00552838989            0.000594871672           
       3.320280             0.00580844884            0.000618657399           
       3.322920             0.00518632766            0.000593334788           
       3.325560             0.00530626322            0.000611744949           
       3.328201             0.00494122114            0.000592823129           
       3.330841             0.00519913382            0.000622887316           
       3.333482             0.00615482538            0.000686327527           
       3.336122             0.00450091556            0.000599669652           
       3.338762             0.00582274689            0.000688303139           
       3.341403             0.00436035308            0.000601155708           
       3.344043             0.00441470247            0.000627977664           
       3.346683             0.00550786542            0.000708545563           
       3.349324             0.00596048568            0.000748494027           
       3.351964             0.00445609862            0.000667985563           
       3.354605             0.00589633567            0.000777089477           
       3.357245             0.00576641869            0.000795492618           
       3.359885             0.00666526639            0.000855554922           
       3.362526             0.00467555258            0.000753203833           
       3.365166             0.00516681349            0.000782009762           
       3.367807             0.00671400177            0.000954253854           
       3.370447             0.00496500651            0.000820921168           
       3.373087             0.00420363675            0.000797206015           
       3.375728             0.00442561948            0.000811801012           
       3.378368             0.00375298747            0.000807803933           
       3.381008             0.00522873416            0.000945175102           
       3.383649             0.00630987343             0.00112368064           
       3.386289             0.00429734079            0.000927708517           
       3.388930             0.00500532083             0.00109958199           
       3.391570             0.00861539096             0.00144321562           
       3.394210             0.00630104379             0.00132246227           
       3.396851             0.00609233894             0.00140861448           
       3.399491              0.0056212788             0.00137761895           
       3.402131             0.00559280436             0.00162657525           
       3.404772             0.00551065138             0.00161527661           
       3.407412             0.00208144817             0.00123184464           
       3.410053             0.00526503262             0.00204004835           
       3.412693             0.00739900761             0.00342155632           
       3.415333           -2.53795997e-05                         0           
