################################################################################
# EDF_DataBlockID                     0.Image.Psd
# EDF_BinarySize                      2105344
# EDF_HeaderSize                      2560
# ByteOrder                           LowByteFirst
# DataType                            FloatValue
# Dim_1                               512
# Dim_2                               1028
# Image                               0
# HeaderID                            EH:000000:000000:000000
# Size                                2105344
# Center_1                            304.9000
# Center_2                            588.7000
# Comment                             Xenocs_Cell_Window - front_window_open_only
# DDummy                              0.6
# Date                                2025-10-19T05:20:39
# Delta                               21.910000
# Dummy                               -1.5
# ExposureTime                        360
# Gamma                               15.360000
# Intensity1                          9.01859e-10
# PSize_1                             7.5e-05
# PSize_2                             7.5e-05
# Pressure                            0.0331087
# SampleDistance                      0.115750
# SampleEnvKind                       large
# SampleEnvPN                         ElectroChemical cell
# SampleEnvSN                         1141
# Thickness                           0
# Wavelength                          1.541891e-10
# Wavelength                          1.54189e-10
# aux                                 0
# aux_dial                            0.002375
# beamx                               588.429
# beamx_dial                          588.429
# beamz                               657.855
# beamz_dial                          657.855
# det0x                               -0.000396875
# det0x_dial                          6.36905
# det0xvd                             -0.0005
# det0xvd_dial                        -0.0005
# det0y                               450.002
# det0y_dial                          481.635
# det0z                               0
# det0z_dial                          1.2295
# det0zvd                             0
# det0zvd_dial                        0
# mag                                 1.818
# mag_dial                            1.818
# om                                  0.2499
# om_dial                             -0.610199
# phi                                 -0.0120535
# phi_dial                            0
# ry                                  0.599993
# ry_dial                             0.599993
# s1bot                               0.8
# s1bot_dial                          -1.66094
# s1hl                                0.8
# s1hl_dial                           -0.608437
# s1hr                                0.8
# s1hr_dial                           0.970938
# s1top                               0.8
# s1top_dial                          -0.461562
# s2bot                               0.45
# s2bot_dial                          1.36109
# s2hl                                0.45
# s2hl_dial                           -0.83375
# s2hr                                0.45
# s2hr_dial                           -0.118594
# s2top                               0.45
# s2top_dial                          1.44734
# w2theta                             32
# w2theta_dial                        32
# waxsch                              19.2605
# waxsch_dial                         -32.7238
# waxsh                               137.085
# waxsh_dial                          -43.5335
# waxsth                              26.0607
# waxsth_dial                         -19.4068
# waxsz                               67.0407
# waxsz_dial                          -23.7962
# wind                                65.9854
# wind_dial                           66.0041
# wpsi                                124
# wpsi_dial                           124
# wstod                               115
# wstod_dial                          115
# x                                   0
# x_dial                              1.00969
# z                                   0
# z_dial                              13.3172
# CountCutoff                         6807993
# DetectorModel                       Dectris EIGER2 Si 500K, S/N E-01-0554
# ThresholdSetting                    4023.88989258
# Saturation                          0
# FlatField                           Corrected
# BackgroundReductionExtra            0.02
# BackgroundCorrectionConstant        0.0026712
# Detector                            0
# Monitor                             0
# Pil_Roi0                            0
# SumForIntensity1                    3.24669e+08
# TransmittedFlux                     901859
# det                                 0
# mon                                 0
# pilai0                              3.24669e+08
# pilai1                              694467
# pilct0                              5.6139e+08
# pilct1                              694467
# pilroi0                             0
# pilroi1                             0
# sec                                 1
# title                               20251017__1_00320.edf
# usaxs0                              0
# Operation                           Azimuthal average I(q)
# Error_model                         ErrorModel.poisson
# Geometrical_correction              True
# Transmission_correction             True
# Thickness_correction                False
# Binning mode                        Uniform
# Binning factor                      1.0
# Psi                                 0.0
# Omega                               0.2499
# MaskInvalidPixels                   True
# DetectorEdge                        3
# MaskFiles                           ['20251017__1_00233_mask.edf']
################################################################################
    q(A⁻¹)                Intensity(a.u.)            Sigma_I(a.u.)            
       0.690460           -2.25204762e-05                         0           
       0.693100             0.00619295864             0.00323051983           
       0.695741              0.0138621855             0.00408324366           
       0.698381             0.00808113449             0.00291589429           
       0.701021              0.0123318923             0.00293978343           
       0.703662             0.00761288411             0.00213804786           
       0.706302             0.00648833239              0.0019062735           
       0.708942             0.00687819395             0.00174341108           
       0.711583             0.00694245831             0.00175121588           
       0.714223             0.00559002608             0.00136934912           
       0.716864             0.00337876428              0.0010863704           
       0.719504             0.00742682796             0.00149065632           
       0.722144             0.00598593474             0.00129249099           
       0.724785             0.00879574426             0.00154106422           
       0.727425             0.00824981872             0.00138434555           
       0.730065             0.00798194741             0.00140109731           
       0.732706             0.00686520208             0.00116847218           
       0.735346             0.00644065517             0.00122250058           
       0.737987             0.00670617389             0.00107971567           
       0.740627             0.00595578777             0.00111467793           
       0.743267             0.00674307331             0.00102022101           
       0.745908             0.00633139184             0.00105949295           
       0.748548             0.00562950877            0.000931781173           
       0.751189             0.00658954075            0.000998608548           
       0.753829             0.00704341125             0.00104173998           
       0.756469             0.00512806333            0.000836035138           
       0.759110             0.00634469094            0.000961870643           
       0.761750             0.00841132836             0.00101358904           
       0.764390             0.00667109778            0.000968964875           
       0.767031             0.00526124494            0.000778657542           
       0.769671             0.00667251642            0.000929974879           
       0.772312             0.00780430551            0.000916515355           
       0.774952             0.00720585927            0.000944130039           
       0.777592             0.00742071156            0.000876328191           
       0.780233             0.00662677522            0.000873015545           
       0.782873             0.00650039582            0.000790677777           
       0.785513              0.0065052954            0.000841409752           
       0.788154              0.0053799407            0.000702825977           
       0.790794             0.00536699998            0.000726529333           
       0.793435             0.00611186858             0.00074467589           
       0.796075             0.00609710945             0.00074770584           
       0.798715             0.00698710642            0.000795849686           
       0.801356             0.00637483305            0.000739836828           
       0.803996             0.00544686292            0.000694800535           
       0.806637             0.00658996267            0.000722406287           
       0.809277             0.00846047595            0.000856321458           
       0.811917             0.00655684411            0.000713364344           
       0.814558             0.00793247609             0.00080380945           
       0.817198             0.00647496091            0.000692449931           
       0.819838             0.00625441409            0.000709891539           
       0.822479             0.00584687143            0.000632530178           
       0.825119             0.00715906291            0.000751892416           
       0.827760             0.00716823238            0.000697151558           
       0.830400               0.006116334            0.000678505699           
       0.833040             0.00794481402            0.000721712142           
       0.835681             0.00721932394            0.000720452779           
       0.838321             0.00758115878            0.000691022648           
       0.840961             0.00648872511            0.000668223425           
       0.843602             0.00680177563            0.000644444873           
       0.846242              0.0064889987            0.000651677011           
       0.848883             0.00645562216            0.000632302916           
       0.851523             0.00681301227            0.000654437702           
       0.854163             0.00665101558            0.000639098333           
       0.856804             0.00725489877            0.000650402841           
       0.859444             0.00688119111            0.000637984158           
       0.862085             0.00772112071            0.000665969656           
       0.864725             0.00590026267            0.000580032812           
       0.867365             0.00722271211            0.000637155834           
       0.870006             0.00724320168            0.000646961235           
       0.872646             0.00756192799            0.000632273207           
       0.875286             0.00695774155            0.000627153608           
       0.877927             0.00617178286            0.000565542456           
       0.880567             0.00654155014            0.000593612021           
       0.883208              0.0075772415            0.000620427141           
       0.885848             0.00824725617            0.000664062678           
       0.888488             0.00673870277            0.000570743497           
       0.891129             0.00605286677            0.000568604074           
       0.893769             0.00711553626            0.000582745881           
       0.896410               0.007462648             0.00061517363           
       0.899050             0.00610295405            0.000536397264           
       0.901690             0.00638724748            0.000560202932           
       0.904331             0.00810123582            0.000608878532           
       0.906971             0.00709142921            0.000588236841           
       0.909611             0.00683679756            0.000554379124           
       0.912252              0.0079134404            0.000606770167           
       0.914892             0.00746669328            0.000574465352           
       0.917533               0.006289421            0.000539132519           
       0.920173             0.00690419419            0.000541848529           
       0.922813             0.00644455893            0.000547068499           
       0.925454             0.00704151295            0.000542714655           
       0.928094             0.00746204982            0.000570677849           
       0.930734             0.00681709518            0.000532440645           
       0.933375             0.00729889863            0.000562679252           
       0.936015             0.00790359159            0.000560238852           
       0.938656             0.00668941182             0.00053703178           
       0.941296             0.00681940444            0.000522702941           
       0.943936             0.00802535566            0.000577252471           
       0.946577              0.0077651823            0.000546844247           
       0.949217             0.00715427238            0.000543429952           
       0.951858             0.00768049099            0.000532307863           
       0.954498             0.00687773101            0.000529937508           
       0.957138             0.00701738931            0.000514493959           
       0.959779             0.00740969948            0.000540243626           
       0.962419             0.00693241589            0.000503061011           
       0.965059             0.00698957623            0.000519478667           
       0.967700             0.00679653859            0.000495689733           
       0.970340             0.00723827658            0.000525918977           
       0.972981             0.00701592441            0.000499929673           
       0.975621             0.00646766266            0.000490049117           
       0.978261             0.00676408644            0.000478162989           
       0.980902             0.00638086565            0.000486533737           
       0.983542             0.00797312976            0.000528024886           
       0.986182             0.00761460747            0.000522812232           
       0.988823             0.00770074564            0.000508797015           
       0.991463              0.0072013163            0.000503773457           
       0.994104             0.00795959569            0.000511780241           
       0.996744             0.00764303341            0.000517762987           
       0.999384             0.00793997608            0.000509813876           
       1.002025             0.00709047226            0.000495183737           
       1.004665              0.0065888145            0.000457792038           
       1.007306             0.00757107112            0.000507174163           
       1.009946             0.00852250498            0.000517399037           
       1.012586             0.00675657041            0.000473937991           
       1.015227             0.00760518479            0.000487600711           
       1.017867             0.00774985121            0.000506321736           
       1.020507             0.00766600108            0.000484617795           
       1.023148             0.00837413638            0.000512624218           
       1.025788             0.00753917095            0.000481416432           
       1.028429             0.00706916289            0.000476359497           
       1.031069             0.00724370397             0.00046458007           
       1.033709             0.00765182884              0.0004866576           
       1.036350             0.00800235096            0.000484629291           
       1.038990             0.00763106502            0.000484936649           
       1.041630             0.00767516967            0.000476979619           
       1.044271             0.00720035916            0.000462042231           
       1.046911             0.00760562303            0.000466044058           
       1.049552             0.00768296319            0.000485287923           
       1.052192             0.00737623869            0.000454119618           
       1.054832             0.00762456913            0.000470679321           
       1.057473             0.00774127295             0.00046826374           
       1.060113             0.00799620608            0.000481065145           
       1.062754             0.00835889394            0.000486414171           
       1.065394             0.00867076921            0.000490192954           
       1.068034             0.00751387775            0.000454554199           
       1.070675             0.00726139275            0.000454711466           
       1.073315              0.0080309304            0.000463582247           
       1.075955             0.00824637893            0.000477637944           
       1.078596             0.00902805963             0.00049877549           
       1.081236             0.00754159375            0.000449106889           
       1.083877             0.00771634058              0.0004684714           
       1.086517             0.00836640545            0.000476770842           
       1.089157             0.00815941491             0.00047428813           
       1.091798              0.0080268215            0.000460451776           
       1.094438             0.00763406762            0.000456182207           
       1.097078             0.00897814629            0.000482000502           
       1.099719             0.00829777559            0.000475253447           
       1.102359             0.00828265685             0.00044980644           
       1.105000             0.00884493838            0.000483130139           
       1.107640             0.00858543792            0.000460474018           
       1.110280             0.00822058992            0.000459605879           
       1.112921             0.00837445402             0.00045549342           
       1.115561             0.00842265772            0.000462599579           
       1.118202             0.00864234813            0.000454917048           
       1.120842             0.00803239732            0.000452388338           
       1.123482             0.00869345986            0.000457433859           
       1.126123              0.0078726909            0.000438021602           
       1.128763             0.00816938902            0.000443986005           
       1.131403             0.00949722633            0.000477966255           
       1.134044             0.00818929155            0.000443065115           
       1.136684             0.00880427729            0.000462852739           
       1.139325             0.00856785056            0.000443731011           
       1.141965             0.00972983202            0.000479048611           
       1.144605             0.00814017173             0.00044074482           
       1.147246             0.00830653717            0.000436793864           
       1.149886             0.00852993045            0.000445776313           
       1.152527             0.00839886282            0.000442781474           
       1.155167             0.00905337601            0.000453247019           
       1.157807             0.00858255213            0.000441608062           
       1.160448             0.00799166349            0.000431965666           
       1.163088             0.00824021312            0.000422358445           
       1.165728             0.00858843542            0.000448963154           
       1.168369             0.00855073699            0.000431984186           
       1.171009             0.00872616388            0.000440011055           
       1.173650              0.0086496902            0.000434919703           
       1.176290             0.00922366982            0.000454388042           
       1.178930             0.00908018024            0.000438166184           
       1.181571             0.00873830391            0.000443877575           
       1.184211             0.00893838265            0.000435372081           
       1.186851             0.00947578602            0.000452402306           
       1.189492             0.00871869051            0.000436362866           
       1.192132             0.00926308556            0.000443118504           
       1.194773             0.00966580505            0.000449917621           
       1.197413             0.00810818007            0.000415435896           
       1.200053             0.00902112489            0.000435443261           
       1.202694             0.00907556991            0.000433464031           
       1.205334              0.0101111956            0.000462529149           
       1.207975             0.00896461109            0.000426982125           
       1.210615             0.00897447409            0.000436250942           
       1.213255             0.00973705922            0.000442386317           
       1.215896             0.00864537019              0.0004247512           
       1.218536             0.00893783503            0.000419436853           
       1.221176             0.00891956102            0.000429009065           
       1.223817              0.0103091549            0.000451607347           
       1.226457             0.00942096277            0.000437198467           
       1.229098              0.0101216171            0.000446289672           
       1.231738             0.00903193088            0.000427518651           
       1.234378             0.00910565692            0.000420919311           
       1.237019             0.00892961026            0.000420192594           
       1.239659             0.00966633634            0.000436946285           
       1.242299             0.00901509774             0.00041981347           
       1.244940             0.00913470388            0.000418027643           
       1.247580               0.009988858            0.000439065252           
       1.250221              0.0106373315            0.000460489173           
       1.252861             0.00998613495            0.000429548689           
       1.255501             0.00940740579            0.000428687322           
       1.258142             0.00993615308             0.00043185988           
       1.260782              0.0101590279            0.000441609033           
       1.263423             0.00976315072            0.000424342314           
       1.266063             0.00990277967            0.000435331458           
       1.268703              0.0107825538            0.000442812685           
       1.271344              0.0100765009            0.000437392683           
       1.273984              0.0103777577            0.000436953541           
       1.276624             0.00976866972            0.000421350263           
       1.279265               0.010225785            0.000432037114           
       1.281905             0.00922905663            0.000412971494           
       1.284546             0.00991160523            0.000423294764           
       1.287186             0.00985635459            0.000422518842           
       1.289826              0.0099370309            0.000426444516           
       1.292467             0.00995363791             0.00041918313           
       1.295107             0.00987818821            0.000424952024           
       1.297747             0.00976428347            0.000411413034           
       1.300388              0.0101401212            0.000430022312           
       1.303028               0.010042909            0.000417073484           
       1.305669              0.0100026156            0.000421613728           
       1.308309              0.0103487186            0.000422397739           
       1.310949              0.0101361781            0.000423248071           
       1.313590              0.0101225667            0.000416418093           
       1.316230              0.0109268309            0.000440432316           
       1.318871              0.0103477688            0.000419356721           
       1.321511              0.0102424532            0.000419308045           
       1.324151              0.0103052757            0.000422253947           
       1.326792              0.0103515966            0.000419773701           
       1.329432              0.0108147696            0.000431300253           
       1.332072              0.0101396692            0.000410460423           
       1.334713              0.0105051273            0.000422973344           
       1.337353              0.0112754333            0.000431466001           
       1.339994              0.0105947317            0.000424196615           
       1.342634              0.0105038418            0.000412864503           
       1.345274               0.011663722            0.000440750587           
       1.347915               0.011427925            0.000437432532           
       1.350555               0.010583341            0.000419313419           
       1.353195              0.0107585154            0.000414681647           
       1.355836              0.0101701442            0.000410790195           
       1.358476              0.0107303509            0.000420765685           
       1.361117              0.0104823269            0.000405441817           
       1.363757             0.00954202829            0.000399649725           
       1.366397              0.0111774794            0.000419075005           
       1.369038              0.0108040883            0.000420699941           
       1.371678              0.0111436413            0.000418632428           
       1.374319              0.0105773792            0.000411092157           
       1.376959              0.0100580338            0.000395354114           
       1.379599              0.0111895862            0.000425128814           
       1.382240              0.0108305534            0.000410308678           
       1.384880               0.010601702            0.000410934835           
       1.387520              0.0110503802             0.00041463519           
       1.390161               0.011228383             0.00041682538           
       1.392801              0.0112306532            0.000419352125           
       1.395442               0.010650758            0.000404150598           
       1.398082              0.0108486762            0.000409284224           
       1.400722             0.00955087759            0.000382289052           
       1.403363              0.0104268414            0.000403142128           
       1.406003              0.0102840478            0.000390540935           
       1.408644              0.0110370573            0.000413080065           
       1.411284               0.010317612            0.000397199671           
       1.413924              0.0116164737             0.00041626193           
       1.416565              0.0104444161            0.000394240091           
       1.419205              0.0104134507            0.000397532939           
       1.421845              0.0111824088            0.000406770097           
       1.424486              0.0109821997            0.000404891892           
       1.427126              0.0115690901            0.000415307634           
       1.429767             0.00998401099            0.000379864161           
       1.432407              0.0111094578            0.000410796931           
       1.435047              0.0111365108            0.000398937079           
       1.437688              0.0104916168              0.0003957888           
       1.440328              0.0103581331            0.000385642013           
       1.442968              0.0108087428            0.000399394313           
       1.445609              0.0106714411            0.000390322074           
       1.448249              0.0101969622            0.000384013093           
       1.450890              0.0104286235            0.000385580415           
       1.453530              0.0100866213            0.000382014061           
       1.456170              0.0105376345            0.000389582284           
       1.458811              0.0103548508            0.000383116258           
       1.461451                0.01105511            0.000398768615           
       1.464092               0.010429478             0.00038394457           
       1.466732             0.00985646294            0.000370958919           
       1.469372              0.0105651699            0.000382883349           
       1.472013             0.00991905756            0.000377628427           
       1.474653              0.0105571559            0.000379966088           
       1.477293               0.011278782             0.00039934827           
       1.479934              0.0110648549            0.000391402943           
       1.482574              0.0128007056            0.000419947529           
       1.485215               0.010608473            0.000383284608           
       1.487855               0.011076248            0.000391562916           
       1.490495              0.0104170207            0.000378914495           
       1.493136              0.0112864254            0.000389237428           
       1.495776              0.0105439923            0.000382776652           
       1.498416               0.010232417            0.000369753143           
       1.501057              0.0101087298            0.000370672682           
       1.503697              0.0107539432            0.000378643354           
       1.506338              0.0101560047            0.000370672246           
       1.508978              0.0105102056            0.000374854222           
       1.511618               0.010103019            0.000367335456           
       1.514259              0.0106564703            0.000377944131           
       1.516899              0.0102906206            0.000371572783           
       1.519540              0.0105627965             0.00037436547           
       1.522180             0.00970605187            0.000354380545           
       1.524820             0.00991948511            0.000365491606           
       1.527461              0.0103765491            0.000365547688           
       1.530101              0.0105413847            0.000372249093           
       1.532741               0.010026669            0.000361327188           
       1.535382             0.00978868851            0.000357799658           
       1.538022              0.0107169653            0.000371068453           
       1.540663              0.0103679822            0.000368426184           
       1.543303             0.00994369356            0.000356318881           
       1.545943             0.00965484525            0.000353073212           
       1.548584             0.00983856651            0.000358314616           
       1.551224              0.0102180611            0.000355798075           
       1.553864             0.00993033597            0.000359915799           
       1.556505             0.00965947056            0.000349512676           
       1.559145             0.00995212028            0.000355587857           
       1.561786             0.00992158806            0.000353433549           
       1.564426             0.00982264367            0.000351349159           
       1.567066             0.00956229688            0.000343955941           
       1.569707              0.0102032691             0.00036044066           
       1.572347              0.0101270116            0.000354432272           
       1.574988              0.0104724664            0.000359000953           
       1.577628              0.0102379535            0.000362950409           
       1.580268             0.00887491623            0.000326265171           
       1.582909             0.00963212923            0.000346256372           
       1.585549             0.00890401922            0.000329800999           
       1.588189             0.00978737712            0.000349635749           
       1.590830             0.00957630881            0.000339908545           
       1.593470             0.00980883981            0.000346819895           
       1.596111               0.010144844              0.0003496624           
       1.598751              0.0093673287            0.000339430819           
       1.601391             0.00995662819            0.000347707403           
       1.604032             0.00870929512            0.000322483382           
       1.606672             0.00965338537            0.000346345703           
       1.609312             0.00952860764            0.000333861268           
       1.611953             0.00926884315            0.000334051067           
       1.614593             0.00965136977            0.000338281949           
       1.617234             0.00911099085            0.000330538422           
       1.619874             0.00853466909            0.000316149905           
       1.622514             0.00861510588            0.000320445444           
       1.625155             0.00903842004            0.000327412075           
       1.627795             0.00909686548            0.000325149719           
       1.630436             0.00959898505            0.000337360039           
       1.633076             0.00866484372            0.000318896112           
       1.635716             0.00891369992            0.000322879034           
       1.638357              0.0088951609            0.000321172703           
       1.640997             0.00860109038            0.000318288986           
       1.643637              0.0087641684            0.000315326136           
       1.646278             0.00905096177            0.000325240401           
       1.648918             0.00905890228            0.000321188183           
       1.651559             0.00860251073             0.00031692815           
       1.654199              0.0087182668            0.000314679972           
       1.656839             0.00940613734            0.000326770418           
       1.659480             0.00893382531            0.000321265428           
       1.662120             0.00862350977            0.000311406912           
       1.664761             0.00871976233            0.000316530413           
       1.667401             0.00875108439            0.000314144355           
       1.670041             0.00845024007            0.000309050577           
       1.672682             0.00820713688             0.00030170665           
       1.675322             0.00866583175            0.000315504684           
       1.677962             0.00864249968            0.000308822176           
       1.680603              0.0084940613             0.00030887576           
       1.683243             0.00808133655            0.000299049443           
       1.685884             0.00801211092            0.000298898947           
       1.688524             0.00827736822            0.000302951733           
       1.691164             0.00840866753            0.000304560232           
       1.693805             0.00807270199            0.000300827073           
       1.696445             0.00846357972            0.000303748787           
       1.699085             0.00849722685            0.000305567059           
       1.701726             0.00875995784            0.000306219452           
       1.704366             0.00817825789            0.000303077023           
       1.707007             0.00862489434            0.000304601206           
       1.709647             0.00786970033            0.000294575558           
       1.712287             0.00848346318            0.000300735686           
       1.714928             0.00838647904             0.00030201838           
       1.717568             0.00859340279            0.000302910302           
       1.720209             0.00873182207            0.000307225649           
       1.722849             0.00847925078            0.000303235159           
       1.725489             0.00877864533            0.000303624389           
       1.728130              0.0077146036            0.000290423536           
       1.730770             0.00835939579            0.000295926675           
       1.733410             0.00864883413            0.000304957718           
       1.736051             0.00749807689            0.000279538636           
       1.738691             0.00823351814            0.000295917097           
       1.741332             0.00880674009            0.000304160789           
       1.743972             0.00854017318            0.000299633267           
       1.746612             0.00845068542            0.000298127858           
       1.749253             0.00836975094            0.000297979004           
       1.751893             0.00856918567            0.000299699336           
       1.754533             0.00802444192             0.00028603655           
       1.757174             0.00842176953            0.000298511223           
       1.759814             0.00849863792            0.000295298747           
       1.762455             0.00881485225            0.000303302612           
       1.765095             0.00902977924            0.000302666991           
       1.767735             0.00846607629             0.00029804735           
       1.770376             0.00827594356             0.00029021263           
       1.773016             0.00797668633            0.000285366952           
       1.775657             0.00833798224            0.000292355832           
       1.778297             0.00862400121            0.000298782447           
       1.780937             0.00877378858            0.000299959694           
       1.783578             0.00834614788            0.000291184486           
       1.786218             0.00863711564            0.000300943599           
       1.788858             0.00867652744            0.000294135372           
       1.791499             0.00841881885            0.000295074117           
       1.794139             0.00878135355            0.000295795546           
       1.796780             0.00816801271            0.000286973621           
       1.799420             0.00827073165            0.000288404785           
       1.802060             0.00884957506             0.00029465718           
       1.804701             0.00878580073            0.000297532341           
       1.807341             0.00919809616              0.0003014919           
       1.809981             0.00854467396            0.000292515679           
       1.812622             0.00913313415            0.000300772897           
       1.815262             0.00912062147            0.000301638485           
       1.817903             0.00856989115            0.000288777443           
       1.820543             0.00883007304            0.000296751391           
       1.823183              0.0084965029            0.000286607138           
       1.825824             0.00821755087            0.000286101764           
       1.828464             0.00792761909            0.000280147132           
       1.831105             0.00811008768             0.00028444983           
       1.833745             0.00817438273            0.000285396884           
       1.836385             0.00816090852            0.000284052483           
       1.839026             0.00776189033            0.000281185542           
       1.841666             0.00832292507            0.000287389641           
       1.844306             0.00782228871            0.000282129524           
       1.846947             0.00901331213            0.000298955554           
       1.849587             0.00857342953            0.000295523754           
       1.852228             0.00879472798            0.000296130055           
       1.854868             0.00825331407            0.000292131622           
       1.857508             0.00770287959            0.000277010864           
       1.860149             0.00774407707             0.00027997695           
       1.862789             0.00764143337            0.000279345926           
       1.865429             0.00838014126            0.000293418823           
       1.868070             0.00834519639            0.000291794637           
       1.870710             0.00817516326            0.000289593202           
       1.873351              0.0079208059            0.000286872285           
       1.875991             0.00845081137            0.000297917502           
       1.878631             0.00803571906            0.000287808571           
       1.881272             0.00806364283            0.000287632847           
       1.883912             0.00848403218            0.000298495426           
       1.886553             0.00861443983            0.000297172746           
       1.889193             0.00831259497            0.000295292094           
       1.891833             0.00795092111             0.00028551023           
       1.894474             0.00740799158            0.000277770985           
       1.897114              0.0078338745            0.000283428241           
       1.899754             0.00844937401            0.000297653178           
       1.902395             0.00758729138             0.00028212022           
       1.905035             0.00809349204            0.000290237481           
       1.907676             0.00767998273            0.000283054618           
       1.910316             0.00776866526            0.000286499367           
       1.912956              0.0080345254            0.000291348856           
       1.915597             0.00811394299            0.000289732839           
       1.918237             0.00768105094            0.000286177203           
       1.920878             0.00796763284            0.000286308725           
       1.923518             0.00801911367            0.000294863549           
       1.926158             0.00813290598            0.000290124678           
       1.928799             0.00817608607            0.000294759373           
       1.931439             0.00766451721            0.000283101956           
       1.934079             0.00786576358            0.000289698893           
       1.936720              0.0079690213            0.000289877953           
       1.939360             0.00765302289            0.000286810342           
       1.942001             0.00809083127            0.000293765593           
       1.944641              0.0077770142            0.000286771066           
       1.947281             0.00729908219            0.000279161925           
       1.949922              0.0080415996            0.000293384058           
       1.952562             0.00753895158            0.000286511401           
       1.955202              0.0076820066            0.000281950465           
       1.957843             0.00785543183            0.000294172467           
       1.960483             0.00781586587            0.000288750253           
       1.963124                0.00776755            0.000287642913           
       1.965764             0.00794134484            0.000290947025           
       1.968404             0.00754236452            0.000288614502           
       1.971045             0.00768819428            0.000284086933           
       1.973685             0.00772992811            0.000290172742           
       1.976326             0.00745636237             0.00028374929           
       1.978966             0.00784304435            0.000292390895           
       1.981606             0.00824472098            0.000296614327           
       1.984247              0.0077916345            0.000290863299           
       1.986887             0.00784724911            0.000294629459           
       1.989527             0.00765851052            0.000285000875           
       1.992168             0.00752436651            0.000289309589           
       1.994808             0.00823155136            0.000299080147           
       1.997449             0.00773078048            0.000289415015           
       2.000089             0.00746578621            0.000282736794           
       2.002729             0.00735790343            0.000287118317           
       2.005370             0.00737770731            0.000282039145           
       2.008010             0.00752532708            0.000288628633           
       2.010650             0.00719242701            0.000281365139           
       2.013291             0.00811765755            0.000300616544           
       2.015931             0.00778984746            0.000292376536           
       2.018572             0.00729142196            0.000286625024           
       2.021212             0.00758737536            0.000289760052           
       2.023852             0.00770926574            0.000293612609           
       2.026493             0.00787010781            0.000295359626           
       2.029133             0.00732245875            0.000282724574           
       2.031774               0.007865191            0.000295856477           
       2.034414             0.00734787652            0.000284254804           
       2.037054             0.00745647777             0.00028995836           
       2.039695             0.00739094206            0.000282995042           
       2.042335             0.00740393036            0.000288064792           
       2.044975             0.00767466947            0.000290940363           
       2.047616             0.00772610625            0.000293164565           
       2.050256             0.00709508472            0.000277632984           
       2.052897             0.00772569016            0.000298288589           
       2.055537             0.00731623813            0.000282362457           
       2.058177              0.0075174701            0.000288747536           
       2.060818             0.00765952486            0.000292337958           
       2.063458             0.00724578332            0.000284724423           
       2.066098             0.00762743913            0.000290830425           
       2.068739             0.00736429515            0.000288749246           
       2.071379             0.00760811337            0.000289156132           
       2.074020             0.00764523292             0.00029382997           
       2.076660              0.0076527459            0.000291981609           
       2.079300             0.00742009997            0.000287467535           
       2.081941             0.00785521582              0.0002975742           
       2.084581             0.00766336413            0.000294135554           
       2.087222               0.007358988            0.000288431439           
       2.089862             0.00699527053            0.000277708223           
       2.092502             0.00681281252            0.000279042258           
       2.095143             0.00727681336            0.000284266522           
       2.097783             0.00754863498            0.000293932839           
       2.100423             0.00762020494            0.000289660267           
       2.103064             0.00745160898            0.000291383565           
       2.105704             0.00737977649            0.000288866376           
       2.108345             0.00717142668            0.000286066793           
       2.110985             0.00702977173            0.000279249216           
       2.113625             0.00721562914            0.000287374168           
       2.116266             0.00728532982            0.000286621561           
       2.118906              0.0076354907            0.000293215439           
       2.121546             0.00733187929             0.00028709858           
       2.124187             0.00715980108            0.000287633664           
       2.126827             0.00741410381            0.000288106879           
       2.129468             0.00700258852              0.0002829191           
       2.132108             0.00717256532            0.000285739726           
       2.134748             0.00760179251            0.000293056643           
       2.137389             0.00756510501            0.000294797223           
       2.140029             0.00720046177            0.000286906336           
       2.142670             0.00785941493            0.000300236937           
       2.145310             0.00753197682            0.000295039086           
       2.147950             0.00718863007            0.000289350215           
       2.150591             0.00765616465            0.000295872858           
       2.153231             0.00741252911             0.00029543125           
       2.155871             0.00691517777            0.000281226984           
       2.158512             0.00720066783            0.000292144487           
       2.161152             0.00706535485            0.000282157694           
       2.163793             0.00742882468            0.000294032042           
       2.166433             0.00730458773            0.000286507052           
       2.169073             0.00731138652             0.00029333274           
       2.171714             0.00693474221            0.000279861374           
       2.174354             0.00746991792            0.000294898099           
       2.176995             0.00753440564            0.000293711526           
       2.179635             0.00703249508            0.000289130232           
       2.182275             0.00713146969            0.000285377993           
       2.184916             0.00714973572            0.000291782377           
       2.187556             0.00745590602            0.000293167371           
       2.190196             0.00711981871            0.000290986601           
       2.192837             0.00733028254            0.000292022881           
       2.195477             0.00748840053            0.000298002746           
       2.198118             0.00693113871            0.000281407226           
       2.200758              0.0075074413            0.000297420827           
       2.203398             0.00747552174            0.000291866108           
       2.206039             0.00638947469            0.000273957629           
       2.208679             0.00734403612            0.000290834546           
       2.211319             0.00745081146            0.000294320012           
       2.213960             0.00800938427            0.000301908434           
       2.216600              0.0068232927            0.000285224386           
       2.219241             0.00695676407            0.000283813475           
       2.221881             0.00715223083            0.000289273074           
       2.224521             0.00782845841            0.000301589635           
       2.227162             0.00697580205            0.000289163691           
       2.229802             0.00706496237            0.000286282059           
       2.232443             0.00689879017             0.00028400743           
       2.235083             0.00777917811            0.000299776848           
       2.237723             0.00741390099            0.000294896851           
       2.240364             0.00730637826             0.00029126157           
       2.243004             0.00760269245            0.000298006603           
       2.245644             0.00722286767            0.000289796379           
       2.248285             0.00697598868            0.000286649477           
       2.250925             0.00681896922            0.000282079828           
       2.253566             0.00677525248            0.000281861688           
       2.256206             0.00718957786            0.000289482382           
       2.258846             0.00712808808            0.000288244376           
       2.261487             0.00738256082            0.000293851866           
       2.264127             0.00719292714            0.000292797683           
       2.266767             0.00693299217            0.000282812321           
       2.269408             0.00698846548            0.000287313827           
       2.272048             0.00729757727            0.000291793232           
       2.274689             0.00713032503            0.000289564251           
       2.277329             0.00626298455            0.000271021334           
       2.279969             0.00684490816            0.000284191415           
       2.282610             0.00677924259            0.000280066835           
       2.285250             0.00679311525            0.000284762513           
       2.287891             0.00767538041             0.00029963567           
       2.290531             0.00709741837            0.000289554383           
       2.293171             0.00714645356            0.000290538585           
       2.295812             0.00698822538            0.000285779316           
       2.298452             0.00700399401             0.00028793396           
       2.301092             0.00759169465            0.000301675038           
       2.303733             0.00752501398            0.000294406543           
       2.306373             0.00713146301            0.000293614674           
       2.309014             0.00752202158            0.000295736625           
       2.311654             0.00752000354            0.000298503255           
       2.314294             0.00714761858            0.000290383258           
       2.316935             0.00732459657            0.000295118081           
       2.319575             0.00653360499            0.000277684145           
       2.322215             0.00710279647            0.000293652873           
       2.324856              0.0068178287            0.000280476945           
       2.327496             0.00751809826            0.000301747303           
       2.330137             0.00726117682            0.000291077511           
       2.332777             0.00709522622            0.000290879049           
       2.335417             0.00734441679            0.000295054496           
       2.338058             0.00701657434            0.000289548191           
       2.340698             0.00678600068            0.000281947375           
       2.343339             0.00727557576             0.00029751183           
       2.345979             0.00731628746            0.000292389706           
       2.348619              0.0070443036            0.000292321518           
       2.351260             0.00707934077            0.000286818223           
       2.353900             0.00750032692            0.000301476736           
       2.356540             0.00717761683            0.000290863637           
       2.359181             0.00733368321            0.000297940355           
       2.361821             0.00701304136             0.00028780437           
       2.364462             0.00713474533            0.000295142486           
       2.367102              0.0072827398            0.000289564925           
       2.369742             0.00731792459            0.000300665696           
       2.372383             0.00756188819            0.000296726799           
       2.375023             0.00761406223            0.000305506285           
       2.377663             0.00717374012            0.000290239342           
       2.380304             0.00710749211             0.00029290357           
       2.382944             0.00782055741            0.000304240181           
       2.385585             0.00694529696            0.000289420652           
       2.388225              0.0071092074             0.00029149292           
       2.390865             0.00709933323            0.000292036331           
       2.393506             0.00741949265            0.000297172865           
       2.396146             0.00698852066             0.00028936884           
       2.398787             0.00696333708            0.000289099643           
       2.401427             0.00754078532            0.000299021264           
       2.404067             0.00666616353            0.000285437046           
       2.406708             0.00696452911            0.000288087878           
       2.409348             0.00770218157             0.00030523957           
       2.411988             0.00718160824             0.00029380255           
       2.414629             0.00729604389            0.000297103036           
       2.417269             0.00706695043            0.000289745941           
       2.419910             0.00764895229            0.000305242401           
       2.422550             0.00684643612            0.000284402308           
       2.425190             0.00719961974            0.000300828164           
       2.427831             0.00697930515            0.000285050288           
       2.430471             0.00686536017            0.000290977956           
       2.433112             0.00736546887            0.000294278199           
       2.435752             0.00682196529            0.000290382501           
       2.438392             0.00675611974            0.000284120545           
       2.441033              0.0071384485            0.000293387389           
       2.443673             0.00686528516            0.000288487501           
       2.446313             0.00665184333            0.000282454587           
       2.448954             0.00686490538            0.000289460343           
       2.451594             0.00705693774            0.000291720028           
       2.454235             0.00650524634            0.000279213578           
       2.456875             0.00706370998            0.000292425596           
       2.459515             0.00766855934            0.000305158143           
       2.462156             0.00752558765            0.000300741771           
       2.464796             0.00783486568            0.000312272108           
       2.467436             0.00719217503            0.000292916781           
       2.470077             0.00758437409            0.000304945215           
       2.472717             0.00784380301            0.000306236436           
       2.475358             0.00733081935             0.00029940735           
       2.477998             0.00783963592            0.000307971785           
       2.480638             0.00751625205            0.000302285703           
       2.483279             0.00734882659            0.000300184086           
       2.485919              0.0067380066            0.000285425506           
       2.488560             0.00694530761            0.000290984933           
       2.491200             0.00696546976            0.000291007461           
       2.493840             0.00707688029            0.000291728484           
       2.496481             0.00704931829             0.00029496729           
       2.499121             0.00675850134            0.000284973338           
       2.501761             0.00709945024            0.000297032545           
       2.504402             0.00702954257            0.000289902248           
       2.507042             0.00759168068            0.000306278893           
       2.509683             0.00697358175            0.000290872635           
       2.512323             0.00688644659            0.000290181494           
       2.514963              0.0136613706            0.000409526605           
       2.517604              0.0290434218            0.000594778568           
       2.520244              0.0344668395            0.000648077728           
       2.522884             0.00858129857             0.00032266497           
       2.525525             0.00907626395            0.000334565862           
       2.528165              0.0176077538            0.000463865467           
       2.530806              0.0225440966            0.000522905473           
       2.533446               0.011706919            0.000380163567           
       2.536086              0.0109019394            0.000363781634           
       2.538727              0.0107836156            0.000364121569           
       2.541367              0.0107351224            0.000362263086           
       2.544008             0.00730777747            0.000299144475           
       2.546648             0.00724010639            0.000298094302           
       2.549288              0.0072809908            0.000298977809           
       2.551929             0.00707897226            0.000295774685           
       2.554569             0.00750765624            0.000301815235           
       2.557209             0.00688775096            0.000292352738           
       2.559850             0.00770592856            0.000305673637           
       2.562490             0.00665031209            0.000286033718           
       2.565131             0.00747532854            0.000303784999           
       2.567771             0.00654082975            0.000282656979           
       2.570411             0.00731416107            0.000302537039           
       2.573052             0.00677685275            0.000287813406           
       2.575692             0.00705372603            0.000294412897           
       2.578332             0.00741341975            0.000300934517           
       2.580973             0.00696473519            0.000294050609           
       2.583613             0.00718265624            0.000295894248           
       2.586254             0.00707715022            0.000296311468           
       2.588894             0.00748465318            0.000303097409           
       2.591534              0.0070818345             0.00029537067           
       2.594175             0.00659310293             0.00028665076           
       2.596815             0.00701842341            0.000293002414           
       2.599456             0.00650738937            0.000284441944           
       2.602096             0.00702208791            0.000294371042           
       2.604736             0.00701808685            0.000295058982           
       2.607377             0.00700307923            0.000293616198           
       2.610017             0.00698913629             0.00029322128           
       2.612657             0.00705574258            0.000296696307           
       2.615298             0.00706376596            0.000293961099           
       2.617938              0.0068823019            0.000292699048           
       2.620579              0.0068889895            0.000290449109           
       2.623219             0.00652594961            0.000287214314           
       2.625859             0.00687852058            0.000289901092           
       2.628500             0.00720342633            0.000301410198           
       2.631140             0.00730364398            0.000298147565           
       2.633780             0.00643021274            0.000283345767           
       2.636421             0.00729895676            0.000299133066           
       2.639061             0.00701974626            0.000296863316           
       2.641702             0.00753572336            0.000304292115           
       2.644342             0.00767888151             0.00030968861           
       2.646982             0.00744074877            0.000304590047           
       2.649623             0.00749170309            0.000307463402           
       2.652263             0.00757146442            0.000306636228           
       2.654904             0.00697274784            0.000295860668           
       2.657544              0.0074706595            0.000304087379           
       2.660184             0.00743653631            0.000303780178           
       2.662825             0.00739448613            0.000303646167           
       2.665465             0.00710596923            0.000298213947           
       2.668105             0.00668522728            0.000289365202           
       2.670746             0.00637786985            0.000280243583           
       2.673386             0.00655704626             0.00028759663           
       2.676027             0.00716454136            0.000298068534           
       2.678667             0.00751779322            0.000306915656           
       2.681307             0.00762026991            0.000306570575           
       2.683948             0.00746313176            0.000306406285           
       2.686588             0.00697968583             0.00029359679           
       2.689229             0.00772005855            0.000311547304           
       2.691869             0.00720404475             0.00029795124           
       2.694509             0.00674591141            0.000292275686           
       2.697150              0.0073437534            0.000300084802           
       2.699790             0.00781172201            0.000315927333           
       2.702430              0.0072798445            0.000299135058           
       2.705071             0.00702945102            0.000297968523           
       2.707711             0.00685976454            0.000291431309           
       2.710352             0.00670518289            0.000289768949           
       2.712992             0.00651819217            0.000286628805           
       2.715632             0.00694851121             0.00029425557           
       2.718273             0.00698877678            0.000296086618           
       2.720913             0.00701664122            0.000297171603           
       2.723553             0.00717545827            0.000299471672           
       2.726194             0.00689991432            0.000295081694           
       2.728834             0.00689582626            0.000292371973           
       2.731475             0.00669297476            0.000290556971           
       2.734115             0.00685702484             0.00029234386           
       2.736755             0.00649589352            0.000286422414           
       2.739396             0.00761344704            0.000308443471           
       2.742036             0.00732654745            0.000304641332           
       2.744677             0.00729123405            0.000304350598           
       2.747317             0.00786916976            0.000314646616           
       2.749957             0.00744064802             0.00030817913           
       2.752598             0.00673734168            0.000294135874           
       2.755238             0.00705943524            0.000300949005           
       2.757878             0.00706905183            0.000300296466           
       2.760519             0.00705176132            0.000296762173           
       2.763159              0.0069901077            0.000300266192           
       2.765800             0.00740483646            0.000303810213           
       2.768440              0.0072607472            0.000304802901           
       2.771080             0.00729114129            0.000302866246           
       2.773721             0.00709327562            0.000302393186           
       2.776361             0.00640474071            0.000284256014           
       2.779001             0.00680303951            0.000296040878           
       2.781642             0.00668743983            0.000291512092           
       2.784282             0.00693305317            0.000296920633           
       2.786923             0.00684874898            0.000292865459           
       2.789563             0.00696869321            0.000296012292           
       2.792203             0.00710552029            0.000300806863           
       2.794844             0.00716973821            0.000300788217           
       2.797484              0.0069431158            0.000296413422           
       2.800125             0.00687352599            0.000294543105           
       2.802765             0.00646676183            0.000290991144           
       2.805405             0.00651472808            0.000287852332           
       2.808046             0.00705672289            0.000304180847           
       2.810686             0.00655594062            0.000290065039           
       2.813326             0.00646398211               0.000291587           
       2.815967             0.00715593028            0.000304863575           
       2.818607              0.0068569323            0.000301409699           
       2.821248             0.00646119543            0.000288934568           
       2.823888             0.00681475013            0.000301513931           
       2.826528             0.00688429312            0.000301240416           
       2.829169             0.00704435095             0.00030337686           
       2.831809             0.00683500705            0.000299096814           
       2.834449             0.00702747794            0.000297985113           
       2.837090             0.00695698713            0.000298271094           
       2.839730             0.00640947623            0.000284260621           
       2.842371             0.00678147043            0.000294430499           
       2.845011             0.00667468344            0.000291451646           
       2.847651             0.00629455907            0.000283550666           
       2.850292             0.00676313715            0.000292245259           
       2.852932             0.00693084501            0.000296377044           
       2.855573             0.00666505512             0.00029319119           
       2.858213             0.00671428375            0.000290970155           
       2.860853             0.00688471693            0.000296845311           
       2.863494             0.00711724806            0.000302543391           
       2.866134             0.00705154072            0.000305367633           
       2.868774             0.00719672402            0.000303772894           
       2.871415             0.00706241251            0.000303903295           
       2.874055             0.00685467546            0.000300883424           
       2.876696             0.00699919571            0.000301300962           
       2.879336             0.00669833692            0.000296710751           
       2.881976              0.0068205155            0.000299158126           
       2.884617             0.00706471349            0.000302775116           
       2.887257             0.00636799361            0.000285453572           
       2.889897             0.00677019342            0.000297703759           
       2.892538             0.00625012017            0.000284057531           
       2.895178             0.00698285003            0.000297185029           
       2.897819             0.00685435837            0.000297466354           
       2.900459             0.00685351564            0.000294985329           
       2.903099             0.00652087536            0.000289240023           
       2.905740             0.00687070589            0.000293583124           
       2.908380             0.00704704196            0.000301290252           
       2.911021              0.0071091109            0.000303189465           
       2.913661             0.00651092502            0.000286960413           
       2.916301             0.00643643833            0.000289373098           
       2.918942             0.00631873858            0.000282389611           
       2.921582             0.00654764097            0.000290474961           
       2.924222             0.00649764129            0.000287685402           
       2.926863             0.00668343595            0.000292544474           
       2.929503             0.00680788016            0.000298533086           
       2.932144             0.00733970116            0.000304890429           
       2.934784             0.00732478404            0.000305874842           
       2.937424             0.00704078119            0.000300441071           
       2.940065             0.00695281891            0.000298801419           
       2.942705             0.00659734399            0.000291947247           
       2.945346             0.00631446357            0.000283932629           
       2.947986             0.00781673584            0.000317012123           
       2.950626             0.00799392365            0.000321570679           
       2.953267              0.0101254507            0.000358067797           
       2.955907             0.00977212066            0.000356415547           
       2.958547             0.00897145067            0.000338000554           
       2.961188             0.00745018496            0.000310702293           
       2.963828             0.00700776458             0.00029962808           
       2.966469             0.00719840552            0.000303751944           
       2.969109              0.0071787123            0.000304887516           
       2.971749             0.00717040146            0.000303814728           
       2.974390             0.00852344504            0.000332150376           
       2.977030               0.009799631             0.00035547144           
       2.979670             0.00914826498            0.000341240201           
       2.982311             0.00805846416            0.000322581875           
       2.984951             0.00736363733            0.000309158716           
       2.987592             0.00731639658            0.000307125299           
       2.990232               0.007362536            0.000308878909           
       2.992872             0.00761546863            0.000311681982           
       2.995513             0.00835861886            0.000329100647           
       2.998153             0.00935133208            0.000350341108           
       3.000794              0.0158502046            0.000449475189           
       3.003434              0.0393066764            0.000715323119           
       3.006074              0.0406997321            0.000730234382           
       3.008715              0.0212287235            0.000531401698           
       3.011355              0.0210428283            0.000534572051           
       3.013995              0.0184446774            0.000498035983           
       3.016636              0.0317647149            0.000654803807           
       3.019276               0.139585534             0.00140544993           
       3.021917               0.364919552             0.00223390629           
       3.024557               0.133622021             0.00136256996           
       3.027197              0.0934516905             0.00115862265           
       3.029838              0.0883387879             0.00112109499           
       3.032478              0.0745383863             0.00103596259           
       3.035118              0.0533973859            0.000881340702           
       3.037759              0.0943133422             0.00117336901           
       3.040399               0.103971741             0.00124608302           
       3.043040              0.0508390798            0.000879803997           
       3.045680              0.0588312726            0.000931859807           
       3.048320              0.0723972067             0.00105031861           
       3.050961              0.0856217892             0.00115368029           
       3.053601               0.117005524              0.0013426773           
       3.056242              0.0716346978             0.00105733088           
       3.058882               0.112735256             0.00134614538           
       3.061522               0.290247474             0.00214499781           
       3.064163              0.0644468187              0.0010125883           
       3.066803              0.0198267011            0.000572499629           
       3.069443              0.0236874999            0.000621594892           
       3.072084              0.0843051864             0.00118310652           
       3.074724              0.0636713288             0.00103425017           
       3.077365              0.0131510515            0.000469702465           
       3.080005             0.00950838279            0.000403817778           
       3.082645             0.00802249629             0.00037281428           
       3.085286             0.00790038801            0.000370033624           
       3.087926             0.00788325956            0.000371984066           
       3.090566              0.0071249912            0.000357284537           
       3.093207             0.00728928833            0.000357476012           
       3.095847             0.00686800829            0.000354265583           
       3.098488             0.00768536151            0.000374073997           
       3.101128             0.00673861034            0.000352184217           
       3.103768              0.0075977943            0.000376069689           
       3.106409             0.00864227458            0.000403773468           
       3.109049             0.00848981952             0.00040330729           
       3.111690              0.0111872695            0.000461142897           
       3.114330              0.0125905678            0.000493563777           
       3.116970              0.0168192379            0.000578394028           
       3.119611              0.0167331911            0.000573158731           
       3.122251              0.0121564388            0.000492528008           
       3.124891             0.00896572901            0.000425034184           
       3.127532             0.00811226929            0.000411581555           
       3.130172             0.00837669103            0.000409631793           
       3.132813             0.00860064109            0.000423519116           
       3.135453             0.00841925708            0.000427868534           
       3.138093             0.00694701079            0.000379440445           
       3.140734             0.00654668929            0.000375200898           
       3.143374              0.0067203202            0.000385955013           
       3.146014             0.00617342717            0.000367232258           
       3.148655             0.00683553836             0.00038946632           
       3.151295             0.00652659482            0.000383575518           
       3.153936             0.00571753034            0.000364314316           
       3.156576             0.00623149184            0.000375970455           
       3.159216             0.00725411053            0.000408966136           
       3.161857             0.00656968677            0.000393969679           
       3.164497             0.00676806593            0.000408305086           
       3.167138               0.005929433            0.000373003266           
       3.169778             0.00636072146            0.000393306647           
       3.172418             0.00604428969             0.00038563913           
       3.175059             0.00636374079            0.000400877213           
       3.177699             0.00667768687            0.000409024557           
       3.180339             0.00548072092            0.000373869382           
       3.182980             0.00543909446            0.000377474861           
       3.185620             0.00660783766            0.000420605071           
       3.188261             0.00549146229            0.000378408925           
       3.190901             0.00603792774            0.000402904682           
       3.193541             0.00599857811            0.000402912973           
       3.196182             0.00599758662            0.000411262185           
       3.198822             0.00550080664            0.000389087079           
       3.201463             0.00558174053            0.000397007402           
       3.204103             0.00685267069            0.000445747282           
       3.206743             0.00577820417            0.000412773294           
       3.209384             0.00537452566            0.000396319009           
       3.212024             0.00590828299            0.000417009113           
       3.214664             0.00601645208             0.00042882987           
       3.217305             0.00556590407            0.000422083668           
       3.219945             0.00537117243            0.000411167124           
       3.222586             0.00544280822            0.000416242301           
       3.225226             0.00564884991            0.000433600801           
       3.227866             0.00560934906            0.000435424796           
       3.230507             0.00629120111            0.000466632928           
       3.233147             0.00658748259            0.000470431789           
       3.235787              0.0054743728            0.000428965279           
       3.238428              0.0051866181            0.000424913276           
       3.241068             0.00602414437            0.000467223018           
       3.243709             0.00576008711            0.000454332531           
       3.246349             0.00603315142             0.00046237538           
       3.248989             0.00581611267            0.000464359043           
       3.251630             0.00568601088            0.000461167296           
       3.254270             0.00564533398            0.000473639665           
       3.256911             0.00693739455            0.000511895316           
       3.259551             0.00498748778            0.000443625108           
       3.262191             0.00565842503            0.000476870169           
       3.264832             0.00614238572             0.00050150691           
       3.267472             0.00539421244            0.000476637356           
       3.270112             0.00546104221            0.000480946082           
       3.272753             0.00530219851            0.000479723717           
       3.275393             0.00614304945            0.000519020967           
       3.278034             0.00552923687            0.000502439316           
       3.280674             0.00607328954            0.000528106634           
       3.283314             0.00613080054            0.000533533029           
       3.285955             0.00598513704            0.000537058372           
       3.288595             0.00583173524            0.000536045354           
       3.291235             0.00569655131            0.000532908141           
       3.293876             0.00516263565             0.00051032403           
       3.296516             0.00661972011            0.000589656398           
       3.299157             0.00514455742            0.000527677053           
       3.301797             0.00483341142            0.000511688433           
       3.304437             0.00613665181            0.000587367314           
       3.307078              0.0050458641            0.000537787163           
       3.309718             0.00562165284            0.000573308513           
       3.312359             0.00476173859            0.000538303099           
       3.314999              0.0057121375             0.00059576593           
       3.317639             0.00643992859            0.000639393679           
       3.320280             0.00562888945            0.000606506338           
       3.322920             0.00730473713             0.00070125503           
       3.325560             0.00507770554            0.000595955195           
       3.328201             0.00580483679            0.000639892261           
       3.330841             0.00609129723            0.000671433092           
       3.333482             0.00661011707             0.00070832404           
       3.336122             0.00635626225            0.000709686262           
       3.338762             0.00502404883            0.000636717192           
       3.341403             0.00481125082            0.000628867285           
       3.344043             0.00421628001             0.00061117004           
       3.346683             0.00610174907            0.000742689274           
       3.349324             0.00657022538            0.000782602995           
       3.351964             0.00530464732            0.000725808072           
       3.354605             0.00553972732            0.000750115223           
       3.357245             0.00397015625            0.000657341004           
       3.359885             0.00560438362            0.000781280389           
       3.362526             0.00500573991            0.000776129241           
       3.365166             0.00461342683            0.000735896025           
       3.367807             0.00360120298            0.000695986562           
       3.370447             0.00557176393            0.000866047583           
       3.373087             0.00655686773            0.000991539558           
       3.375728             0.00494673254            0.000854723461           
       3.378368             0.00547730419            0.000971862205           
       3.381008             0.00519680869            0.000938396141           
       3.383649             0.00432429901            0.000926390919           
       3.386289             0.00645764806             0.00113253776           
       3.388930              0.0063808454             0.00123638756           
       3.391570             0.00282555709            0.000823094359           
       3.394210             0.00568903824             0.00125141203           
       3.396851             0.00475278028             0.00123901866           
       3.399491             0.00455201572             0.00123457443           
       3.402131             0.00501109885             0.00153330901           
       3.404772             0.00681711757             0.00178916208           
       3.407412             0.00410722448             0.00172326161           
       3.410053            0.000706778624            0.000744364218           
       3.412693             0.00293096334             0.00214459854           
       3.415333             0.00645489032             0.00389948693           
