################################################################################
# EDF_DataBlockID                     0.Image.Psd
# EDF_BinarySize                      2105344
# EDF_HeaderSize                      2560
# ByteOrder                           LowByteFirst
# DataType                            FloatValue
# Dim_1                               512
# Dim_2                               1028
# Image                               0
# HeaderID                            EH:000000:000000:000000
# Size                                2105344
# Center_1                            304.9000
# Center_2                            588.7000
# Comment                             Xenocs_Cell_Window - front_window_open_only
# DDummy                              0.6
# Date                                2025-10-18T02:09:33
# Delta                               21.910000
# Dummy                               -1.5
# ExposureTime                        360
# Gamma                               15.360000
# Intensity1                          9.28318e-10
# PSize_1                             7.5e-05
# PSize_2                             7.5e-05
# Pressure                            0.034586
# SampleDistance                      0.115750
# SampleEnvKind                       large
# SampleEnvPN                         ElectroChemical cell
# SampleEnvSN                         1141
# Thickness                           0
# Wavelength                          1.541891e-10
# Wavelength                          1.54189e-10
# aux                                 0
# aux_dial                            0.002375
# beamx                               588.429
# beamx_dial                          588.429
# beamz                               657.855
# beamz_dial                          657.855
# det0x                               -0.000396875
# det0x_dial                          6.36905
# det0xvd                             -0.0005
# det0xvd_dial                        -0.0005
# det0y                               450.002
# det0y_dial                          481.635
# det0z                               0
# det0z_dial                          1.2295
# det0zvd                             0
# det0zvd_dial                        0
# mag                                 1.818
# mag_dial                            1.818
# om                                  0.2499
# om_dial                             -0.610199
# phi                                 -0.0120535
# phi_dial                            0
# ry                                  0.599993
# ry_dial                             0.599993
# s1bot                               0.8
# s1bot_dial                          -1.66094
# s1hl                                0.8
# s1hl_dial                           -0.608437
# s1hr                                0.8
# s1hr_dial                           0.970938
# s1top                               0.8
# s1top_dial                          -0.461562
# s2bot                               0.45
# s2bot_dial                          1.36109
# s2hl                                0.45
# s2hl_dial                           -0.83375
# s2hr                                0.45
# s2hr_dial                           -0.118594
# s2top                               0.45
# s2top_dial                          1.44734
# w2theta                             32
# w2theta_dial                        32
# waxsch                              19.2605
# waxsch_dial                         -32.7238
# waxsh                               137.085
# waxsh_dial                          -43.5335
# waxsth                              26.0607
# waxsth_dial                         -19.4068
# waxsz                               67.0407
# waxsz_dial                          -23.7962
# wind                                65.9854
# wind_dial                           66.0041
# wpsi                                124
# wpsi_dial                           124
# wstod                               115
# wstod_dial                          115
# x                                   0
# x_dial                              1.00969
# z                                   0
# z_dial                              13.3172
# CountCutoff                         6807993
# DetectorModel                       Dectris EIGER2 Si 500K, S/N E-01-0554
# ThresholdSetting                    4023.88989258
# Saturation                          0
# FlatField                           Corrected
# BackgroundReductionExtra            0.02
# BackgroundCorrectionConstant        0.0026712
# Detector                            0
# Monitor                             0
# Pil_Roi0                            0
# SumForIntensity1                    3.34194e+08
# TransmittedFlux                     928318
# det                                 0
# mon                                 0
# pilai0                              3.34194e+08
# pilai1                              717733
# pilct0                              5.76197e+08
# pilct1                              717733
# pilroi0                             0
# pilroi1                             0
# sec                                 1
# title                               20251017__1_00073.edf
# usaxs0                              0
# Operation                           Azimuthal average I(q)
# Error_model                         ErrorModel.poisson
# Geometrical_correction              True
# Transmission_correction             True
# Thickness_correction                False
# Binning mode                        Uniform
# Binning factor                      1.0
# Psi                                 0.0
# Omega                               0.2499
# MaskInvalidPixels                   True
# DetectorEdge                        3
# MaskFiles                           ['20251017__1_00233_mask.edf']
################################################################################
    q(A⁻¹)                Intensity(a.u.)            Sigma_I(a.u.)            
       0.690460           -2.18785957e-05                         0           
       0.693100             0.00609552489             0.00315900135           
       0.695741             0.00662578033             0.00278245978           
       0.698381              0.0107691577             0.00331777869           
       0.701021             0.00593801053             0.00201067507           
       0.703662             0.00453595646             0.00162666525           
       0.706302             0.00746906723             0.00201591764           
       0.708942             0.00585827671             0.00158587323           
       0.711583             0.00380929755             0.00127857565           
       0.714223             0.00702170339             0.00151268829           
       0.716864             0.00696784559             0.00153769135           
       0.719504             0.00579401208             0.00129773637           
       0.722144              0.0040266022             0.00104484492           
       0.724785             0.00516651243             0.00116413706           
       0.727425             0.00600518522             0.00116414331           
       0.730065             0.00445411971             0.00103161048           
       0.732706             0.00645719304             0.00111695206           
       0.735346             0.00465366638             0.00102424207           
       0.737987             0.00616998742             0.00102078686           
       0.740627             0.00764654287             0.00124489664           
       0.743267             0.00760010127             0.00106756899           
       0.745908              0.0075416312              0.0011397302           
       0.748548             0.00685013144             0.00101309243           
       0.751189             0.00610983746            0.000947771118           
       0.753829             0.00534154726            0.000894174506           
       0.756469              0.0060559708            0.000895489841           
       0.759110             0.00617059879            0.000934966445           
       0.761750             0.00519676797            0.000785266756           
       0.764390             0.00772609888             0.00102780434           
       0.767031             0.00721919962            0.000899016568           
       0.769671             0.00714262684            0.000948366727           
       0.772312             0.00590376743            0.000785702565           
       0.774952             0.00669017662            0.000896661773           
       0.777592             0.00529207582            0.000729420512           
       0.780233             0.00620612038            0.000832725551           
       0.782873             0.00855394861            0.000893992522           
       0.785513             0.00606763288             0.00080094854           
       0.788154             0.00557102993            0.000704932839           
       0.790794             0.00598126037            0.000755970149           
       0.793435             0.00691475691            0.000780709895           
       0.796075             0.00627799339            0.000747825276           
       0.798715             0.00717317067            0.000794801885           
       0.801356             0.00612321823            0.000714681176           
       0.803996             0.00650380396            0.000748327281           
       0.806637             0.00588971102            0.000673143984           
       0.809277             0.00617871696            0.000721289343           
       0.811917             0.00741662217            0.000747804342           
       0.814558             0.00825203777            0.000808072378           
       0.817198             0.00685259974            0.000702131439           
       0.819838             0.00669009747            0.000723662124           
       0.822479             0.00727352639            0.000695365154           
       0.825119             0.00765090164            0.000766134219           
       0.827760             0.00615922696            0.000636949798           
       0.830400             0.00542841829            0.000630036184           
       0.833040             0.00682870077            0.000659495932           
       0.835681             0.00598194263            0.000646396973           
       0.838321              0.0068196732            0.000645992094           
       0.840961             0.00671822963            0.000670178307           
       0.843602             0.00577954909            0.000585521082           
       0.846242             0.00663677587            0.000649595592           
       0.848883             0.00651053124            0.000625871654           
       0.851523             0.00685765571            0.000647153792           
       0.854163             0.00658473974            0.000626778291           
       0.856804             0.00648476444             0.00060608675           
       0.859444             0.00737280302            0.000650901596           
       0.862085             0.00610373995            0.000583624101           
       0.864725             0.00720471854            0.000631751577           
       0.867365             0.00679294434            0.000609039521           
       0.870006             0.00659671865            0.000608552271           
       0.872646             0.00674582256            0.000588609006           
       0.875286             0.00593592322            0.000570958907           
       0.877927             0.00639957021            0.000567618099           
       0.880567             0.00741628214            0.000622983304           
       0.883208             0.00663069013            0.000572052023           
       0.885848             0.00706881361            0.000605966382           
       0.888488             0.00711643342             0.00057810264           
       0.891129             0.00696372953            0.000601134001           
       0.893769             0.00659503418            0.000552974184           
       0.896410             0.00715416921            0.000593679116           
       0.899050             0.00734167684            0.000579875916           
       0.901690             0.00672930416            0.000566753905           
       0.904331                0.00654443            0.000539401157           
       0.906971             0.00585416115            0.000526791317           
       0.909611             0.00732893731            0.000565746593           
       0.912252             0.00548131047            0.000497742459           
       0.914892             0.00678460704            0.000539737968           
       0.917533             0.00682187271            0.000553430304           
       0.920173             0.00719649574            0.000545259037           
       0.922813             0.00768001873            0.000588636495           
       0.925454             0.00549176292            0.000472405978           
       0.928094             0.00639746484            0.000520819016           
       0.930734              0.0073579033            0.000545217135           
       0.933375             0.00763366765            0.000567178547           
       0.936015             0.00636916457            0.000495704829           
       0.938656             0.00646669336            0.000520436911           
       0.941296             0.00708530276            0.000525148177           
       0.943936             0.00686083743            0.000526069541           
       0.946577             0.00713272503            0.000516578702           
       0.949217             0.00639444346              0.0005063877           
       0.951858             0.00746399978            0.000517219791           
       0.954498             0.00817227114            0.000569369745           
       0.957138             0.00663966335            0.000493271996           
       0.959779             0.00738893713            0.000531742382           
       0.962419             0.00717775181            0.000504537568           
       0.965059             0.00631517715            0.000486694009           
       0.967700             0.00645469735            0.000476129301           
       0.970340             0.00706261249            0.000512041169           
       0.972981              0.0070697021            0.000494638547           
       0.975621             0.00704722167            0.000504191863           
       0.978261             0.00761149215            0.000499950747           
       0.980902             0.00712744191            0.000506828396           
       0.983542               0.006873587            0.000483228598           
       0.986182             0.00803538305            0.000529354011           
       0.988823             0.00721334014            0.000485363716           
       0.991463             0.00791891892            0.000520694778           
       0.994104             0.00757878677            0.000492219473           
       0.996744             0.00691811847            0.000485526631           
       0.999384             0.00690251629            0.000468518464           
       1.002025             0.00713300336            0.000489537473           
       1.004665             0.00742295681            0.000478932157           
       1.007306             0.00730042553            0.000490877902           
       1.009946             0.00705355781            0.000463945573           
       1.012586             0.00692022316             0.00047275851           
       1.015227             0.00795641542            0.000491574228           
       1.017867             0.00806319588            0.000509042955           
       1.020507             0.00665037295            0.000444896363           
       1.023148             0.00796404747            0.000492739026           
       1.025788             0.00705401269            0.000458984657           
       1.028429             0.00760591462            0.000487020781           
       1.031069             0.00773098409            0.000473062534           
       1.033709             0.00745103645            0.000473336687           
       1.036350             0.00801913317            0.000478173508           
       1.038990             0.00727898502            0.000466819274           
       1.041630             0.00760717531            0.000468045936           
       1.044271             0.00757598822            0.000467137975           
       1.046911             0.00753501705            0.000457217276           
       1.049552             0.00737062449             0.00046849848           
       1.052192             0.00746685825            0.000450342229           
       1.054832             0.00788027225            0.000471638242           
       1.057473             0.00754944107            0.000455787778           
       1.060113             0.00793359502            0.000472299899           
       1.062754             0.00776245958            0.000462011115           
       1.065394             0.00732334145            0.000444031549           
       1.068034             0.00770136204            0.000453584617           
       1.070675             0.00680188092            0.000433771875           
       1.073315             0.00799947999            0.000456032378           
       1.075955             0.00770574941            0.000455088178           
       1.078596               0.007896892            0.000459787256           
       1.081236             0.00813153954            0.000459648106           
       1.083877             0.00790980723            0.000467499633           
       1.086517             0.00788519291            0.000456212659           
       1.089157             0.00851399712            0.000477529749           
       1.091798             0.00858227888            0.000469282757           
       1.094438             0.00726316249            0.000438575288           
       1.097078             0.00843260212            0.000460421815           
       1.099719             0.00774229222            0.000452480792           
       1.102359             0.00830558825            0.000443963196           
       1.105000              0.0077382298            0.000445408471           
       1.107640             0.00800973724            0.000438383273           
       1.110280             0.00800605989            0.000447058583           
       1.112921             0.00815972797            0.000443162122           
       1.115561              0.0077844014             0.00043834313           
       1.118202             0.00721883074            0.000409798816           
       1.120842             0.00717835244            0.000421523833           
       1.123482             0.00834463853            0.000441729783           
       1.126123             0.00823374239            0.000441523173           
       1.128763             0.00897530168            0.000458690722           
       1.131403              0.0080115177            0.000432690317           
       1.134044             0.00896377114            0.000456889005           
       1.136684              0.0081540569            0.000439039694           
       1.139325             0.00778228894            0.000416829504           
       1.141965             0.00752931637            0.000415360911           
       1.144605             0.00890065688            0.000454257806           
       1.147246             0.00840462702            0.000433058614           
       1.149886             0.00871618188            0.000444148624           
       1.152527             0.00845476487            0.000437875757           
       1.155167             0.00797534305            0.000419300423           
       1.157807             0.00882281716             0.00044131973           
       1.160448              0.0089837297            0.000451419078           
       1.163088             0.00804672699             0.00041137939           
       1.165728              0.0085491289            0.000441504914           
       1.168369             0.00803133708            0.000412649134           
       1.171009              0.0083352394             0.00042386922           
       1.173650             0.00885807502             0.00043380986           
       1.176290             0.00835120053            0.000426157771           
       1.178930             0.00863384716            0.000421128601           
       1.181571             0.00875791939            0.000437996903           
       1.184211             0.00866232485            0.000422444124           
       1.186851             0.00973385751            0.000451939828           
       1.189492             0.00859385244            0.000427009008           
       1.192132             0.00931884439            0.000438070506           
       1.194773             0.00926701573            0.000434215051           
       1.197413             0.00921904535            0.000436622628           
       1.200053             0.00935419251            0.000437044153           
       1.202694             0.00928943913            0.000432246808           
       1.205334             0.00934362452            0.000438244502           
       1.207975             0.00853201982            0.000410573421           
       1.210615             0.00876523021            0.000424946712           
       1.213255              0.0092050262            0.000423956434           
       1.215896             0.00868772446             0.00041967855           
       1.218536             0.00862100266            0.000406022634           
       1.221176             0.00935019999            0.000432938407           
       1.223817             0.00910819406            0.000418395052           
       1.226457             0.00944402698            0.000431450059           
       1.229098             0.00893256854            0.000413238712           
       1.231738             0.00860461166            0.000411293018           
       1.234378             0.00867137365            0.000404863007           
       1.237019             0.00886155191            0.000412579809           
       1.239659             0.00968041332             0.00043098781           
       1.242299             0.00882890884            0.000409492169           
       1.244940             0.00922017701            0.000413950422           
       1.247580             0.00902465794            0.000411346172           
       1.250221             0.00936485862            0.000425867625           
       1.252861             0.00931442919            0.000408895886           
       1.255501             0.00937265115            0.000421752693           
       1.258142             0.00975614506            0.000421787576           
       1.260782             0.00962915194            0.000423766701           
       1.263423             0.00958646674            0.000414449447           
       1.266063             0.00917738614            0.000413068361           
       1.268703             0.00960714336            0.000411981115           
       1.271344             0.00856067844            0.000397366882           
       1.273984             0.00899645931             0.00040099619           
       1.276624              0.0101169501             0.00042264068           
       1.279265             0.00935253294            0.000407247368           
       1.281905              0.0104657077            0.000433457634           
       1.284546             0.00962878368            0.000411223144           
       1.287186              0.0092229387            0.000402850139           
       1.289826             0.00968956673            0.000415056605           
       1.292467              0.0105957686            0.000426284994           
       1.295107             0.00938291821            0.000408217065           
       1.297747              0.0100208505            0.000410800615           
       1.300388              0.0104039876            0.000429329042           
       1.303028              0.0100752799            0.000411748773           
       1.305669             0.00989384161            0.000413296157           
       1.308309             0.00944429885            0.000397726101           
       1.310949              0.0100259378            0.000414897969           
       1.313590               0.010430908            0.000416645083           
       1.316230             0.00935281806            0.000401628242           
       1.318871             0.00992695258            0.000404845353           
       1.321511             0.00910412956            0.000389647012           
       1.324151              0.0102358437            0.000414788464           
       1.326792              0.0102000439            0.000410708332           
       1.329432               0.010295201            0.000414771997           
       1.332072              0.0102625188            0.000407012094           
       1.334713             0.00997287958            0.000406203407           
       1.337353              0.0108587966            0.000417341665           
       1.339994             0.00962701304            0.000398555617           
       1.342634             0.00973073231            0.000391676177           
       1.345274              0.0117120919             0.00043532388           
       1.347915              0.0103113706            0.000409549613           
       1.350555              0.0106330946            0.000414264905           
       1.353195             0.00984588099            0.000391009103           
       1.355836             0.00968186185            0.000395054389           
       1.358476              0.0108504614            0.000417040651           
       1.361117             0.00917969215             0.00037396821           
       1.363757             0.00963226636            0.000395771345           
       1.366397              0.0102000553            0.000394586314           
       1.369038               0.010135893            0.000401633873           
       1.371678              0.0104502041            0.000399578974           
       1.374319              0.0107406727            0.000408307005           
       1.376959             0.00992591243            0.000387111322           
       1.379599              0.0107941423            0.000411555617           
       1.382240               0.010322662            0.000394822751           
       1.384880             0.00914271677            0.000376134985           
       1.387520               0.010047556            0.000389698471           
       1.390161              0.0104674597            0.000396677102           
       1.392801             0.00987328618            0.000387550355           
       1.395442             0.00983160123            0.000382724295           
       1.398082              0.0101961814            0.000391089669           
       1.400722              0.0109903911            0.000404201324           
       1.403363              0.0100656494             0.00039041243           
       1.406003              0.0102182144            0.000383701024           
       1.408644             0.00989625525            0.000385535141           
       1.411284             0.00988164105            0.000383137585           
       1.413924              0.0100366422            0.000381368391           
       1.416565              0.0103150666            0.000386167445           
       1.419205              0.0103120589            0.000389914527           
       1.421845              0.0106274378            0.000390855798           
       1.424486              0.0111175664            0.000401532049           
       1.427126              0.0107376698              0.0003943631           
       1.429767              0.0104989007            0.000383944673           
       1.432407              0.0104776507            0.000393218237           
       1.435047              0.0107205513            0.000385797429           
       1.437688              0.0103101909            0.000386719953           
       1.440328              0.0108036191            0.000388194311           
       1.442968              0.0101167167            0.000380850924           
       1.445609              0.0105359873            0.000382269925           
       1.448249             0.00991094145            0.000373154788           
       1.450890              0.0102894027            0.000377500465           
       1.453530             0.00934686924            0.000362460353           
       1.456170              0.0104200541            0.000381841879           
       1.458811             0.00981832309            0.000367703917           
       1.461451              0.0100673868            0.000375075544           
       1.464092             0.00978340786             0.00036652471           
       1.466732              0.0110515818            0.000387167085           
       1.469372              0.0096169769             0.00036005468           
       1.472013              0.0102176614            0.000377768866           
       1.474653             0.00968312686            0.000358674183           
       1.477293              0.0103894469            0.000377779037           
       1.479934             0.00902216738            0.000348359454           
       1.482574              0.0102610185             0.00037059047           
       1.485215              0.0103029798            0.000372303658           
       1.487855              0.0101855987            0.000370100298           
       1.490495             0.00984016463             0.00036298742           
       1.493136              0.0107254012            0.000373993535           
       1.495776             0.00946083095            0.000357378545           
       1.498416              0.0102001217            0.000363870101           
       1.501057             0.00943141654            0.000352900022           
       1.503697              0.0104030355            0.000367068778           
       1.506338             0.00916480995            0.000347065377           
       1.508978              0.0101157645            0.000362474193           
       1.511618              0.0100748209            0.000361557076           
       1.514259              0.0101210965            0.000363040965           
       1.516899              0.0102035823            0.000364687085           
       1.519540             0.00978020413             0.00035505957           
       1.522180             0.00999128231            0.000354388906           
       1.524820             0.00986095611            0.000359180947           
       1.527461              0.0095333121            0.000345350755           
       1.530101              0.0098055552            0.000353868454           
       1.532741             0.00950860848            0.000346818073           
       1.535382              0.0100071867            0.000356578049           
       1.538022             0.00932991188            0.000341254061           
       1.540663             0.00997604069            0.000356207785           
       1.543303              0.0099982634            0.000352166623           
       1.545943             0.00962373152            0.000347443983           
       1.548584             0.00979054649            0.000352308413           
       1.551224              0.0100203133            0.000347280927           
       1.553864             0.00866674178            0.000331411676           
       1.556505              0.0100487166            0.000351368242           
       1.559145             0.00991852054            0.000349891586           
       1.561786             0.00968977955            0.000344266735           
       1.564426             0.00978742902            0.000345684553           
       1.567066             0.00923216621            0.000333115197           
       1.569707             0.00871205929            0.000328280778           
       1.572347             0.00930816592            0.000334923483           
       1.574988             0.00920503893            0.000331745366           
       1.577628             0.00931029413            0.000341148409           
       1.580268             0.00837372991            0.000312369768           
       1.582909             0.00967409574            0.000342028858           
       1.585549             0.00815665414            0.000311125697           
       1.588189             0.00911314112            0.000332535223           
       1.590830             0.00864365837            0.000318297146           
       1.593470             0.00944279525            0.000335402584           
       1.596111              0.0087919241            0.000320840473           
       1.598751             0.00858100335            0.000320208875           
       1.601391             0.00801353377            0.000307461516           
       1.604032             0.00893029573            0.000321861991           
       1.606672              0.0093156732            0.000335349791           
       1.609312             0.00835494833            0.000308137203           
       1.611953              0.0089689876            0.000323886424           
       1.614593             0.00842151029            0.000311458563           
       1.617234             0.00828111022            0.000310602082           
       1.619874              0.0080681784            0.000302976117           
       1.622514             0.00842072023            0.000312262151           
       1.625155             0.00920122593            0.000325605863           
       1.627795              0.0087745881            0.000314754395           
       1.630436             0.00829623873            0.000309130985           
       1.633076             0.00840725442            0.000309611361           
       1.635716             0.00867003236            0.000313864456           
       1.638357             0.00824840643            0.000304837004           
       1.640997             0.00934632111            0.000327028905           
       1.643637             0.00814743967            0.000299665071           
       1.646278             0.00891877226             0.00031822229           
       1.648918             0.00846751712             0.00030606999           
       1.651559             0.00856579294            0.000311711573           
       1.654199             0.00847166344            0.000305744961           
       1.656839              0.0080754298             0.00029842887           
       1.659480             0.00828527748            0.000304943746           
       1.662120             0.00880881854             0.00031021728           
       1.664761             0.00831501705            0.000304660134           
       1.667401             0.00841895251            0.000303702446           
       1.670041              0.0085331302            0.000306104812           
       1.672682             0.00834821964            0.000299921026           
       1.675322             0.00987552162            0.000331972144           
       1.677962             0.00929285954            0.000315634462           
       1.680603             0.00865569567            0.000307325118           
       1.683243             0.00874147589            0.000306559457           
       1.685884              0.0086590205            0.000306271248           
       1.688524              0.0087237757             0.00030654941           
       1.691164             0.00789708144            0.000290913482           
       1.693805             0.00831964713            0.000301009947           
       1.696445             0.00853272133             0.00030060917           
       1.699085             0.00838553193            0.000299194891           
       1.701726             0.00818739841            0.000291793535           
       1.704366             0.00810830376            0.000297446288           
       1.707007             0.00805115584            0.000290071312           
       1.709647             0.00843719457            0.000300633643           
       1.712287             0.00834078175            0.000293915636           
       1.714928             0.00780254007            0.000287132584           
       1.717568             0.00781052667            0.000284637788           
       1.720209             0.00794250134            0.000288804939           
       1.722849             0.00829158928            0.000295556586           
       1.725489             0.00783531319            0.000282730081           
       1.728130             0.00854608011            0.000301286322           
       1.730770             0.00819395278            0.000288778154           
       1.733410             0.00780085188            0.000285464953           
       1.736051             0.00804147982            0.000285335508           
       1.738691             0.00818986294            0.000290895222           
       1.741332             0.00810262291            0.000287560604           
       1.743972             0.00863506697            0.000296968566           
       1.746612              0.0086083487             0.00029657699           
       1.749253             0.00854797335            0.000296812313           
       1.751893             0.00805500128            0.000286397846           
       1.754533             0.00795977017            0.000280792376           
       1.757174              0.0078248829            0.000283608241           
       1.759814             0.00809952324            0.000284143421           
       1.762455             0.00811688291             0.00028686939           
       1.765095              0.0082772215            0.000285620725           
       1.767735             0.00835667346            0.000291864873           
       1.770376             0.00807091282            0.000282481371           
       1.773016             0.00842043912             0.00028898861           
       1.775657             0.00840240014            0.000289270332           
       1.778297             0.00840758089             0.00029077505           
       1.780937             0.00857339824            0.000292258233           
       1.783578             0.00845143465            0.000288809417           
       1.786218             0.00838773612             0.00029231026           
       1.788858             0.00833613186            0.000284169529           
       1.791499             0.00871904781            0.000295979069           
       1.794139             0.00852346375            0.000287236677           
       1.796780             0.00841863398            0.000287161045           
       1.799420             0.00860949089            0.000290028161           
       1.802060             0.00879511133            0.000289532571           
       1.804701             0.00871087046            0.000292008315           
       1.807341             0.00875754866            0.000289960534           
       1.809981             0.00886840912            0.000293727898           
       1.812622             0.00873984233            0.000290002349           
       1.815262             0.00855804583            0.000287993559           
       1.817903             0.00863562835            0.000285721894           
       1.820543             0.00941691864            0.000302054953           
       1.823183             0.00847922066            0.000282205714           
       1.825824              0.0087091349            0.000290307182           
       1.828464             0.00766639023             0.00027153836           
       1.831105             0.00863320471            0.000289267645           
       1.833745             0.00800845123            0.000278430589           
       1.836385             0.00823796694            0.000281293887           
       1.839026              0.0086040869            0.000291798171           
       1.841666             0.00814624911            0.000280241789           
       1.844306             0.00863505629            0.000292169675           
       1.846947             0.00800429927            0.000277681544           
       1.849587             0.00886897373              0.0002962598           
       1.852228             0.00863556161             0.00028922612           
       1.854868              0.0085965095            0.000293864006           
       1.857508             0.00884623261            0.000292597331           
       1.860149             0.00838155963            0.000287091808           
       1.862789             0.00864423636            0.000292845921           
       1.865429             0.00852394267            0.000291677882           
       1.868070             0.00862435188            0.000292376993           
       1.870710             0.00831126842            0.000287802615           
       1.873351             0.00847511471            0.000292480985           
       1.875991             0.00813560975            0.000288112966           
       1.878631             0.00875536742            0.000296107546           
       1.881272             0.00805514575            0.000283354736           
       1.883912             0.00794348784            0.000284684014           
       1.886553             0.00849160523            0.000290811308           
       1.889193             0.00850519144            0.000294405889           
       1.891833             0.00853588986            0.000291580375           
       1.894474             0.00825811452            0.000289066674           
       1.897114             0.00833970328            0.000288237878           
       1.899754              0.0086785432            0.000297332654           
       1.902395             0.00851086505            0.000294509033           
       1.905035             0.00842650533            0.000291897389           
       1.907676             0.00832035274            0.000290390182           
       1.910316             0.00781690928            0.000283262403           
       1.912956             0.00805234861            0.000287485154           
       1.915597             0.00864477429            0.000294767441           
       1.918237             0.00870362744            0.000300258834           
       1.920878             0.00874083109            0.000295574679           
       1.923518             0.00841007198            0.000297631365           
       1.926158             0.00822190087            0.000287520523           
       1.928799             0.00854711363            0.000297047275           
       1.931439             0.00882893432            0.000299485325           
       1.934079             0.00835757242            0.000294331946           
       1.936720              0.0084735214            0.000294622285           
       1.939360             0.00813904051            0.000291531738           
       1.942001             0.00832511008            0.000293711049           
       1.944641             0.00794928127            0.000285768103           
       1.947281             0.00782820947            0.000284953642           
       1.949922             0.00881204483            0.000302708471           
       1.952562             0.00831788761            0.000296629194           
       1.955202             0.00801197465            0.000283809022           
       1.957843             0.00821276469            0.000296471272           
       1.960483              0.0079183981            0.000286466226           
       1.963124             0.00795234707            0.000286866773           
       1.965764             0.00830704412            0.000293299341           
       1.968404             0.00759393482            0.000285442581           
       1.971045             0.00855181968             0.00029531757           
       1.973685             0.00840469911            0.000298229711           
       1.976326             0.00793555817            0.000288523344           
       1.978966             0.00813802476            0.000293563427           
       1.981606             0.00825815388            0.000292594774           
       1.984247             0.00825698555            0.000295125229           
       1.986887             0.00782398333            0.000289969515           
       1.989527             0.00803120332            0.000287663846           
       1.992168             0.00815452346            0.000296857541           
       1.994808             0.00836461586            0.000297160224           
       1.997449             0.00810579322            0.000292097665           
       2.000089             0.00772978494            0.000283562761           
       2.002729             0.00767524269            0.000289035277           
       2.005370             0.00754627756             0.00028114865           
       2.008010             0.00796140663            0.000292612289           
       2.010650              0.0079111356             0.00029085257           
       2.013291             0.00767329788            0.000288077592           
       2.015931             0.00807138478            0.000293341157           
       2.018572             0.00776416255            0.000291525288           
       2.021212             0.00744468606            0.000282902546           
       2.023852             0.00771084688            0.000289427751           
       2.026493             0.00764014629            0.000286835276           
       2.029133             0.00762898117            0.000284439102           
       2.031774             0.00799815339            0.000294064261           
       2.034414             0.00781557493             0.00028895372           
       2.037054             0.00731438693            0.000283060111           
       2.039695             0.00756888618            0.000282270733           
       2.042335             0.00772923406            0.000290100304           
       2.044975             0.00746234124            0.000282769539           
       2.047616             0.00812287149             0.00029628309           
       2.050256             0.00784813595             0.00028780376           
       2.052897             0.00724908996            0.000284793897           
       2.055537             0.00772483829            0.000285975397           
       2.058177             0.00791729421            0.000292073234           
       2.060818             0.00716140505            0.000278614907           
       2.063458             0.00781248925            0.000291405472           
       2.066098              0.0083829776            0.000300518043           
       2.068739             0.00735111088            0.000284349644           
       2.071379             0.00806640168            0.000293463962           
       2.074020             0.00779963087            0.000292522106           
       2.076660             0.00791100552            0.000292606272           
       2.079300             0.00753558911            0.000285537707           
       2.081941             0.00791888308            0.000294489026           
       2.084581             0.00710530434            0.000279157996           
       2.087222             0.00732339941            0.000283603017           
       2.089862             0.00767446907            0.000286702571           
       2.092502             0.00704957048            0.000279775076           
       2.095143             0.00728203669            0.000280286684           
       2.097783             0.00781232962            0.000294730521           
       2.100423             0.00704625751            0.000274540103           
       2.103064             0.00732627964            0.000284775554           
       2.105704             0.00755998573            0.000288175339           
       2.108345             0.00760641763            0.000290386008           
       2.110985             0.00764526845            0.000287037512           
       2.113625             0.00739717681            0.000286790368           
       2.116266             0.00758315892            0.000288224081           
       2.118906             0.00724113918            0.000281444484           
       2.121546             0.00778020551            0.000291500874           
       2.124187              0.0074825247            0.000289823937           
       2.126827             0.00740852892            0.000283864591           
       2.129468             0.00698145447            0.000278436942           
       2.132108             0.00671387999            0.000272484054           
       2.134748             0.00747190695            0.000286371786           
       2.137389             0.00775796354            0.000294246097           
       2.140029             0.00720157736             0.00028280997           
       2.142670             0.00675308919            0.000274309716           
       2.145310             0.00723745401            0.000285061727           
       2.147950             0.00783695956            0.000297779969           
       2.150591             0.00729810213            0.000284724867           
       2.153231              0.0073255679            0.000289477499           
       2.155871             0.00722707602            0.000283372409           
       2.158512             0.00762129518            0.000296242002           
       2.161152             0.00754530045            0.000287398246           
       2.163793             0.00730019053            0.000287291408           
       2.166433              0.0072582503            0.000281497387           
       2.169073             0.00699352201            0.000282767555           
       2.171714             0.00786686246            0.000293798461           
       2.174354             0.00748757071            0.000291008358           
       2.176995              0.0073990239            0.000286882887           
       2.179635             0.00692480605            0.000282789662           
       2.182275             0.00727257265            0.000284050743           
       2.184916               0.007547633            0.000295488367           
       2.187556             0.00735928912            0.000287080893           
       2.190196             0.00745755729            0.000293533559           
       2.192837             0.00752945419              0.0002917153           
       2.195477             0.00741676229             0.00029231685           
       2.198118             0.00700658449            0.000278873385           
       2.200758             0.00745751365            0.000292175212           
       2.203398             0.00703364109            0.000279044811           
       2.206039              0.0072763929            0.000288157434           
       2.208679             0.00737659733            0.000287294667           
       2.211319             0.00677640155             0.00027665499           
       2.213960             0.00734796949             0.00028502325           
       2.216600             0.00732515358             0.00029128556           
       2.219241             0.00764351851            0.000293222283           
       2.221881             0.00711190073            0.000284315822           
       2.224521             0.00661656051            0.000273284731           
       2.227162             0.00673206637            0.000279989545           
       2.229802              0.0072578364            0.000285998483           
       2.232443             0.00745836517            0.000291062323           
       2.235083             0.00709376192            0.000282156768           
       2.237723             0.00752378943            0.000292810062           
       2.240364             0.00695938218            0.000280180812           
       2.243004             0.00698171883            0.000281477891           
       2.245644             0.00745824386            0.000290253424           
       2.248285             0.00670453157            0.000276983199           
       2.250925             0.00735871131            0.000288824801           
       2.253566              0.0068079905            0.000278486221           
       2.256206             0.00695595087            0.000280652962           
       2.258846             0.00724063328            0.000286340993           
       2.261487             0.00762424911            0.000294336697           
       2.264127             0.00760199012            0.000296687597           
       2.266767             0.00705278659            0.000281150771           
       2.269408             0.00744628791            0.000292318608           
       2.272048             0.00683594058             0.00027835943           
       2.274689              0.0066533765            0.000275697144           
       2.277329             0.00737385177              0.0002898551           
       2.279969             0.00688034341             0.00028083623           
       2.282610             0.00710373271            0.000282576042           
       2.285250             0.00714291443            0.000287810733           
       2.287891             0.00746552915            0.000291269353           
       2.290531              0.0069903781            0.000283237798           
       2.293171             0.00738944125            0.000291195906           
       2.295812             0.00703293978            0.000282576946           
       2.298452             0.00675931669            0.000278799725           
       2.301092             0.00745954331             0.00029474542           
       2.303733             0.00709809288            0.000281828933           
       2.306373             0.00670535934            0.000280621153           
       2.309014             0.00676763108            0.000276488517           
       2.311654             0.00672998265            0.000278335087           
       2.314294             0.00726516398            0.000288558941           
       2.316935             0.00673257366            0.000278878771           
       2.319575              0.0072815639            0.000288940164           
       2.322215             0.00682565068            0.000283734754           
       2.324856              0.0072863141            0.000285791302           
       2.327496             0.00722515068            0.000291563925           
       2.330137             0.00721844346            0.000286053892           
       2.332777             0.00730971247            0.000291004966           
       2.335417             0.00661835602            0.000276070231           
       2.338058              0.0071029368            0.000287142979           
       2.340698             0.00721067659            0.000286463999           
       2.343339             0.00713908707            0.000290477723           
       2.345979             0.00679372573            0.000277710078           
       2.348619             0.00687196489            0.000284579201           
       2.351260             0.00684310654            0.000277944394           
       2.353900              0.0067368881            0.000281620529           
       2.356540              0.0070156375            0.000283435211           
       2.359181             0.00768293448            0.000300574933           
       2.361821               0.007124295            0.000285914425           
       2.364462              0.0068161217            0.000284336163           
       2.367102             0.00688228448            0.000277450686           
       2.369742             0.00714398225            0.000292806717           
       2.372383             0.00701795793            0.000281752619           
       2.375023             0.00719195946            0.000292655365           
       2.377663              0.0068906821            0.000280372559           
       2.380304             0.00713430294            0.000289243216           
       2.382944             0.00683038754            0.000280247228           
       2.385585             0.00697261217            0.000285826703           
       2.388225             0.00718516998            0.000288839695           
       2.390865             0.00702669311             0.00028636803           
       2.393506             0.00682644957            0.000280957368           
       2.396146             0.00727496154            0.000291001631           
       2.398787             0.00739976757            0.000293743877           
       2.401427             0.00639343214            0.000271382445           
       2.404067             0.00720608816             0.00029251159           
       2.406708             0.00683673705            0.000281335464           
       2.409348              0.0071922622            0.000290728527           
       2.411988             0.00707434106            0.000287414476           
       2.414629             0.00726107336            0.000292135758           
       2.417269             0.00739764152              0.0002921924           
       2.419910             0.00712078547            0.000290287792           
       2.422550             0.00691433674            0.000281706609           
       2.425190              0.0070129657            0.000292641226           
       2.427831             0.00745276658            0.000290332121           
       2.430471               0.006884347            0.000287197555           
       2.433112              0.0074090139            0.000290910255           
       2.435752             0.00660084724            0.000281537641           
       2.438392             0.00696072851            0.000284251165           
       2.441033             0.00705971872            0.000287577009           
       2.443673             0.00659616404            0.000278717585           
       2.446313             0.00738454107             0.00029333259           
       2.448954             0.00731274114            0.000294464423           
       2.451594              0.0075405015             0.00029722077           
       2.454235             0.00712193632             0.00028795501           
       2.456875             0.00719383527            0.000290870806           
       2.459515             0.00793821756             0.00030602049           
       2.462156             0.00741624207            0.000294263522           
       2.464796             0.00787823564            0.000308640445           
       2.467436             0.00801920972            0.000304860285           
       2.470077             0.00733048823            0.000295494455           
       2.472717             0.00788455602              0.0003026238           
       2.475358             0.00721932328            0.000292856845           
       2.477998             0.00755693138            0.000298027719           
       2.480638             0.00732704982            0.000294172755           
       2.483279             0.00690803989            0.000286864641           
       2.485919             0.00688673928            0.000284416521           
       2.488560             0.00757762986            0.000299579705           
       2.491200             0.00772137751            0.000301993258           
       2.493840             0.00729399228            0.000291918418           
       2.496481             0.00690000698            0.000287637827           
       2.499121             0.00729354825            0.000291789322           
       2.501761             0.00649192617            0.000279962201           
       2.504402             0.00707271959            0.000286617172           
       2.507042             0.00658033641            0.000281056146           
       2.509683             0.00745619638            0.000296452094           
       2.512323             0.00724995887            0.000293468051           
       2.514963              0.0103169391            0.000350777198           
       2.517604              0.0218329961            0.000508287027           
       2.520244              0.0440119819            0.000721826404           
       2.522884              0.0128510917            0.000389194111           
       2.525525             0.00844682867            0.000318123568           
       2.528165              0.0214056457            0.000504109829           
       2.530806               0.027335971            0.000567538016           
       2.533446              0.0143838324            0.000415343512           
       2.536086              0.0153087551            0.000424893181           
       2.538727              0.0126629005            0.000388912355           
       2.541367              0.0101009658            0.000346356203           
       2.544008             0.00804229771            0.000309313829           
       2.546648             0.00760736189            0.000301175178           
       2.549288             0.00756357911            0.000300350477           
       2.551929             0.00732292167            0.000296509782           
       2.554569             0.00692652854            0.000285737815           
       2.557209             0.00728797604            0.000296410001           
       2.559850               0.007990817            0.000306804711           
       2.562490             0.00670302713            0.000283043146           
       2.565131             0.00705576349            0.000290900271           
       2.567771             0.00757284666            0.000299773893           
       2.570411             0.00723538677            0.000296584263           
       2.573052             0.00666683244            0.000281369942           
       2.575692              0.0075887231            0.000300990526           
       2.578332             0.00756685863            0.000299668749           
       2.580973             0.00693797899            0.000289272538           
       2.583613             0.00666803686            0.000281004914           
       2.586254             0.00716559841            0.000293877558           
       2.588894             0.00718476673            0.000292700629           
       2.591534             0.00722228764            0.000294003708           
       2.594175             0.00721607481            0.000295583114           
       2.596815             0.00682007083            0.000284686448           
       2.599456             0.00646983682            0.000279548934           
       2.602096             0.00686897247            0.000286964899           
       2.604736             0.00684736963            0.000287264721           
       2.607377             0.00682541657            0.000285707084           
       2.610017             0.00667408623            0.000282423333           
       2.612657             0.00667697196            0.000284479836           
       2.615298             0.00719883189            0.000292498514           
       2.617938             0.00703818152            0.000291746475           
       2.620579             0.00719135338            0.000292495062           
       2.623219             0.00702774592            0.000293773884           
       2.625859             0.00710683035            0.000290443219           
       2.628500             0.00714461406            0.000295868484           
       2.631140             0.00717484778            0.000291265302           
       2.633780             0.00725551245            0.000296660032           
       2.636421             0.00728919982             0.00029464216           
       2.639061             0.00729314111            0.000298245618           
       2.641702             0.00710106145            0.000291145979           
       2.644342             0.00721269155            0.000295832488           
       2.646982             0.00706877726            0.000292617619           
       2.649623             0.00755366702            0.000304300736           
       2.652263             0.00705159722            0.000291674328           
       2.654904             0.00696376364            0.000291425936           
       2.657544             0.00688479647            0.000287730177           
       2.660184             0.00738975929            0.000298476513           
       2.662825             0.00764112393            0.000304237933           
       2.665465             0.00702821249            0.000292320766           
       2.668105             0.00679670183            0.000287579722           
       2.670746             0.00732647339            0.000296050824           
       2.673386             0.00722678948            0.000297593407           
       2.676027             0.00745091857            0.000299604118           
       2.678667             0.00732444359             0.00029859471           
       2.681307             0.00742112127            0.000298195436           
       2.683948             0.00789295273            0.000310583086           
       2.686588             0.00795114135            0.000308865243           
       2.689229             0.00692704602            0.000290876525           
       2.691869             0.00733198058             0.00029627062           
       2.694509             0.00779577057            0.000309686898           
       2.697150             0.00737354845            0.000296376772           
       2.699790             0.00716637622            0.000298252814           
       2.702430             0.00753903921            0.000300044175           
       2.705071             0.00661389254             0.00028487818           
       2.707711             0.00708454204            0.000291916357           
       2.710352              0.0065372779             0.00028201093           
       2.712992             0.00720259065            0.000296976138           
       2.715632             0.00639067361            0.000278146158           
       2.718273             0.00631978308            0.000277517399           
       2.720913             0.00619662315            0.000275258761           
       2.723553             0.00623734188            0.000275202032           
       2.726194             0.00682867705            0.000289340776           
       2.728834             0.00676695351            0.000285469763           
       2.731475               0.007273453            0.000298547171           
       2.734115              0.0064229974            0.000278879072           
       2.736755             0.00723526589            0.000297944749           
       2.739396             0.00687252376            0.000288844417           
       2.742036             0.00695518312            0.000292559606           
       2.744677             0.00673098613             0.00028822651           
       2.747317             0.00777229776            0.000308215346           
       2.749957             0.00728969597            0.000300658502           
       2.752598             0.00696199322            0.000294707673           
       2.755238             0.00695779305            0.000294485979           
       2.757878             0.00696594391            0.000293819464           
       2.760519             0.00678914122            0.000287004098           
       2.763159             0.00718965131            0.000300150695           
       2.765800             0.00682858668            0.000287561661           
       2.768440             0.00711859425            0.000297472275           
       2.771080             0.00665667434            0.000285234931           
       2.773721             0.00685749674            0.000293057152           
       2.776361             0.00619958416            0.000275651971           
       2.779001             0.00722320533            0.000300667235           
       2.781642             0.00728893346            0.000299971199           
       2.784282             0.00612201965            0.000275008684           
       2.786923             0.00662642386            0.000283937707           
       2.789563             0.00699809297            0.000292378116           
       2.792203              0.0068976186            0.000292119348           
       2.794844             0.00633995458            0.000278787425           
       2.797484             0.00705080756            0.000294415742           
       2.800125             0.00688453466            0.000290547607           
       2.802765              0.0061957707            0.000280740419           
       2.805405              0.0063792363            0.000280754604           
       2.808046             0.00645314474            0.000286706126           
       2.810686             0.00633516945            0.000281046341           
       2.813326             0.00616727483            0.000280727962           
       2.815967             0.00618910393            0.000279452058           
       2.818607             0.00698905116            0.000299931678           
       2.821248             0.00633567645            0.000282007395           
       2.823888             0.00677902282            0.000296405937           
       2.826528             0.00703478548            0.000300144181           
       2.829169             0.00654504831            0.000288230095           
       2.831809             0.00686074908            0.000295358183           
       2.834449             0.00670601855            0.000286911617           
       2.837090             0.00648296891             0.00028379744           
       2.839730             0.00709052281            0.000294690065           
       2.842371             0.00694374344            0.000293655831           
       2.845011             0.00648535974            0.000283164723           
       2.847651             0.00609188399            0.000274944327           
       2.850292              0.0065949819            0.000284446842           
       2.852932             0.00671238773            0.000287482175           
       2.855573             0.00674289414            0.000290665275           
       2.858213             0.00699383263            0.000292702986           
       2.860853             0.00717283191            0.000298643737           
       2.863494              0.0066678678            0.000288633041           
       2.866134             0.00671319389            0.000293674694           
       2.868774             0.00692071348            0.000293614815           
       2.871415             0.00707918434            0.000299896513           
       2.874055             0.00655724579            0.000290059091           
       2.876696             0.00623543666            0.000280304985           
       2.879336             0.00689185868             0.00029664628           
       2.881976             0.00692530025            0.000297120381           
       2.884617             0.00704180941            0.000297944911           
       2.887257             0.00658439951            0.000286096929           
       2.889897             0.00633500667            0.000283843043           
       2.892538             0.00678025132            0.000291612379           
       2.895178             0.00695341214            0.000292301129           
       2.897819             0.00639038223            0.000283099303           
       2.900459             0.00692738369            0.000292313768           
       2.903099             0.00643655829            0.000283239114           
       2.905740             0.00711152844             0.00029439662           
       2.908380             0.00658222443            0.000287004649           
       2.911021             0.00615357901            0.000278029763           
       2.913661             0.00657047897            0.000284131964           
       2.916301             0.00623473887             0.00028071487           
       2.918942             0.00668530855            0.000286295937           
       2.921582             0.00688843245            0.000293661769           
       2.924222             0.00699973556            0.000294307759           
       2.926863             0.00729045228            0.000301155068           
       2.929503             0.00741712743            0.000307132182           
       2.932144             0.00683519113            0.000290001918           
       2.934784              0.0080667685             0.00031638587           
       2.937424             0.00728941108            0.000301311727           
       2.940065             0.00671066436            0.000289338277           
       2.942705             0.00630059493            0.000281210502           
       2.945346             0.00671741073            0.000288648271           
       2.947986             0.00694731618            0.000294572785           
       2.950626             0.00701598306            0.000296935175           
       2.953267             0.00868217443            0.000326808446           
       2.955907              0.0104386531            0.000363082568           
       2.958547             0.00878616618            0.000329690717           
       2.961188             0.00780230231            0.000313395859           
       2.963828             0.00748745298            0.000305267626           
       2.966469              0.0070523615            0.000296339219           
       2.969109             0.00713347103            0.000299562712           
       2.971749             0.00743697005            0.000304969241           
       2.974390             0.00782684991            0.000313719565           
       2.977030             0.00999363212            0.000353820072           
       2.979670              0.0102090515            0.000355307565           
       2.982311             0.00768978616            0.000310593162           
       2.984951              0.0073823805            0.000305108599           
       2.987592              0.0070495069            0.000297144215           
       2.990232             0.00754968463            0.000308290314           
       2.992872             0.00723556852            0.000299447469           
       2.995513             0.00769884757            0.000311311577           
       2.998153             0.00851695708            0.000329547123           
       3.000794               0.010520969            0.000360941729           
       3.003434              0.0316706997            0.000632876347           
       3.006074              0.0587540119            0.000864781124           
       3.008715              0.0310534121            0.000633485381           
       3.011355              0.0239337437            0.000561927707           
       3.013995              0.0199840444            0.000510961077           
       3.016636              0.0300922409            0.000628184066           
       3.019276               0.140747601             0.00139103036           
       3.021917                 0.2519869              0.0018296849           
       3.024557               0.144873509             0.00139841224           
       3.027197                0.11520765             0.00126797307           
       3.029838               0.111083379             0.00123911659           
       3.032478              0.0595274098            0.000912501334           
       3.035118              0.0415044385            0.000765864671           
       3.037759              0.0964129845             0.00116932907           
       3.040399                 0.1557891              0.0015034147           
       3.043040              0.0600763151            0.000942669964           
       3.045680              0.0583032123            0.000914352457           
       3.048320               0.126817162             0.00137015628           
       3.050961                0.30078162             0.00213127705           
       3.053601              0.0814148929             0.00110392948           
       3.056242              0.0507010815            0.000876756001           
       3.058882               0.199615388             0.00176555006           
       3.061522                0.16548332             0.00159639617           
       3.064163              0.0247680565            0.000618726992           
       3.066803              0.0226692388            0.000603377881           
       3.069443              0.0332498767            0.000725878245           
       3.072084               0.083172816             0.00115826609           
       3.074724              0.0272179053            0.000666502728           
       3.077365              0.0114132713            0.000431289223           
       3.080005              0.0088199983            0.000383342784           
       3.082645             0.00944578688            0.000398728964           
       3.085286             0.00917236596            0.000392987377           
       3.087926             0.00786583008            0.000366239043           
       3.090566             0.00863973832            0.000387787034           
       3.093207             0.00749996105            0.000357400191           
       3.095847             0.00792492797            0.000375087124           
       3.098488             0.00742255483            0.000362345618           
       3.101128             0.00795519588            0.000377164747           
       3.103768             0.00951506668            0.000414812103           
       3.106409              0.0100904255            0.000430030662           
       3.109049              0.0102004162            0.000435729262           
       3.111690              0.0115534688            0.000461902813           
       3.114330              0.0105173573            0.000444626016           
       3.116970              0.0130532311             0.00050222762           
       3.119611               0.016114856            0.000554395476           
       3.122251              0.0131603919             0.00050510666           
       3.124891              0.0102628582            0.000448214761           
       3.127532             0.00902960853            0.000427996405           
       3.130172             0.00749721924            0.000381969292           
       3.132813             0.00777261522             0.00039683697           
       3.135453             0.00925904513            0.000442259836           
       3.138093             0.00744334452            0.000387123585           
       3.140734             0.00665258264            0.000372794142           
       3.143374             0.00575650968            0.000352080732           
       3.146014             0.00678270623            0.000379402421           
       3.148655             0.00598881809            0.000359314747           
       3.151295             0.00558782753             0.00034982431           
       3.153936             0.00627819271            0.000376279238           
       3.156576             0.00709405738            0.000395390278           
       3.159216             0.00610597876            0.000369822938           
       3.161857             0.00603397284            0.000372145763           
       3.164497             0.00645810359            0.000393120724           
       3.167138             0.00578639864            0.000363187726           
       3.169778             0.00563301102            0.000364812184           
       3.172418             0.00579858699            0.000372297812           
       3.175059             0.00600162214            0.000383716425           
       3.177699             0.00571241064            0.000372878209           
       3.180339             0.00546434239             0.00036795181           
       3.182980             0.00564105874              0.0003789012           
       3.185620               0.005659179            0.000383656423           
       3.188261             0.00608278671            0.000392545134           
       3.190901             0.00621038693            0.000402752852           
       3.193541              0.0058756984            0.000393040927           
       3.196182             0.00563663676             0.00039297188           
       3.198822             0.00592763341            0.000398102793           
       3.201463              0.0060287057             0.00040667433           
       3.204103               0.005945395            0.000409232452           
       3.206743             0.00617756581            0.000420673134           
       3.209384             0.00595256736            0.000411100427           
       3.212024             0.00625292823            0.000422841456           
       3.214664             0.00566424564            0.000410116057           
       3.217305             0.00593576368            0.000429625378           
       3.219945             0.00709209878            0.000465684903           
       3.222586             0.00572091443             0.00042061849           
       3.225226             0.00617730752            0.000446920839           
       3.227866             0.00610811869            0.000447848984           
       3.230507             0.00648127938            0.000466831234           
       3.233147             0.00535556347            0.000418081011           
       3.235787             0.00577612086            0.000434304199           
       3.238428             0.00573156334            0.000440266507           
       3.241068               0.005992013            0.000459286684           
       3.243709             0.00553560161            0.000438998118           
       3.246349             0.00579209832            0.000446541151           
       3.248989              0.0055197319            0.000445879423           
       3.251630             0.00577430839            0.000458063389           
       3.254270             0.00534718575            0.000454346113           
       3.256911             0.00644873285            0.000486453226           
       3.259551             0.00611911113            0.000484328809           
       3.262191             0.00584954061            0.000477896873           
       3.264832             0.00543372887            0.000464920072           
       3.267472             0.00589599457            0.000491160606           
       3.270112             0.00613648934            0.000502504034           
       3.272753             0.00560296607            0.000486063636           
       3.275393             0.00442429068            0.000434145856           
       3.278034             0.00621425802            0.000525008815           
       3.280674             0.00608164918            0.000520884277           
       3.283314             0.00621985946            0.000529680444           
       3.285955             0.00538800731            0.000502249445           
       3.288595             0.00598503934            0.000535250495           
       3.291235             0.00562267192             0.00052184155           
       3.293876             0.00602760774            0.000543505205           
       3.296516             0.00805866525            0.000641256375           
       3.299157              0.0054689333            0.000536248942           
       3.301797             0.00632505315            0.000576941452           
       3.304437             0.00526208361            0.000536097574           
       3.307078             0.00567570068            0.000562177339           
       3.309718             0.00522728478            0.000544898229           
       3.312359             0.00616350315             0.00060364117           
       3.314999             0.00586948624             0.00059524714           
       3.317639             0.00515037445            0.000563596323           
       3.320280             0.00541024169            0.000586075077           
       3.322920             0.00538958092            0.000593706943           
       3.325560             0.00636365615            0.000657588399           
       3.328201              0.0060455524            0.000643651495           
       3.330841             0.00507858668            0.000604282778           
       3.333482             0.00628994107            0.000681038448           
       3.336122             0.00547558517            0.000649234665           
       3.338762             0.00520119576            0.000638545997           
       3.341403             0.00610093424            0.000697989857           
       3.344043             0.00538198573            0.000680596234           
       3.346683             0.00591753455            0.000720893844           
       3.349324             0.00574155242            0.000721085853           
       3.351964             0.00497948177            0.000693116991           
       3.354605             0.00557083207            0.000741420782           
       3.357245             0.00513580248            0.000736905871           
       3.359885             0.00525467599            0.000745653228           
       3.362526             0.00631914703            0.000859508294           
       3.365166             0.00473412619            0.000734759974           
       3.367807             0.00438416002            0.000756904677           
       3.370447             0.00674258338            0.000939030069           
       3.373087             0.00604426374            0.000938327562           
       3.375728             0.00566109466            0.000901233973           
       3.378368             0.00478001319            0.000894863401           
       3.381008             0.00555945088            0.000956653651           
       3.383649             0.00609220194             0.00108378844           
       3.386289             0.00512430093            0.000994383139           
       3.388930             0.00364617653            0.000921202904           
       3.391570             0.00251652038            0.000765629651           
       3.394210             0.00551212808             0.00121411964           
       3.396851             0.00484543985             0.00123308075           
       3.399491             0.00606422522             0.00140450729           
       3.402131              0.0066774979             0.00174458052           
       3.404772             0.00757101708             0.00185843485           
       3.407412             0.00604016045             0.00205978631           
       3.410053             0.00582497514             0.00210625893           
       3.412693             0.00287820969             0.00209470546           
       3.415333             0.00846112398             0.00440045923           
