################################################################################
# EDF_DataBlockID                     0.Image.Psd
# EDF_BinarySize                      2105344
# EDF_HeaderSize                      2560
# ByteOrder                           LowByteFirst
# DataType                            FloatValue
# Dim_1                               512
# Dim_2                               1028
# Image                               0
# HeaderID                            EH:000000:000000:000000
# Size                                2105344
# Center_1                            304.9000
# Center_2                            588.7000
# Comment                             Xenocs_Cell_Window - front_window_open_only
# DDummy                              0.6
# Date                                2025-10-18T23:17:23
# Delta                               21.910000
# Dummy                               -1.5
# ExposureTime                        360
# Gamma                               15.360000
# Intensity1                          9.0258e-10
# PSize_1                             7.5e-05
# PSize_2                             7.5e-05
# Pressure                            0.0332432
# SampleDistance                      0.115750
# SampleEnvKind                       large
# SampleEnvPN                         ElectroChemical cell
# SampleEnvSN                         1141
# Thickness                           0
# Wavelength                          1.541891e-10
# Wavelength                          1.54189e-10
# aux                                 0
# aux_dial                            0.002375
# beamx                               588.429
# beamx_dial                          588.429
# beamz                               657.855
# beamz_dial                          657.855
# det0x                               -0.000396875
# det0x_dial                          6.36905
# det0xvd                             -0.0005
# det0xvd_dial                        -0.0005
# det0y                               450.002
# det0y_dial                          481.635
# det0z                               0
# det0z_dial                          1.2295
# det0zvd                             0
# det0zvd_dial                        0
# mag                                 1.818
# mag_dial                            1.818
# om                                  0.2499
# om_dial                             -0.610199
# phi                                 -0.0120535
# phi_dial                            0
# ry                                  0.599993
# ry_dial                             0.599993
# s1bot                               0.8
# s1bot_dial                          -1.66094
# s1hl                                0.8
# s1hl_dial                           -0.608437
# s1hr                                0.8
# s1hr_dial                           0.970938
# s1top                               0.8
# s1top_dial                          -0.461562
# s2bot                               0.45
# s2bot_dial                          1.36109
# s2hl                                0.45
# s2hl_dial                           -0.83375
# s2hr                                0.45
# s2hr_dial                           -0.118594
# s2top                               0.45
# s2top_dial                          1.44734
# w2theta                             32
# w2theta_dial                        32
# waxsch                              19.2605
# waxsch_dial                         -32.7238
# waxsh                               137.085
# waxsh_dial                          -43.5335
# waxsth                              26.0607
# waxsth_dial                         -19.4068
# waxsz                               67.0407
# waxsz_dial                          -23.7962
# wind                                65.9854
# wind_dial                           66.0041
# wpsi                                124
# wpsi_dial                           124
# wstod                               115
# wstod_dial                          115
# x                                   0
# x_dial                              1.00969
# z                                   0
# z_dial                              13.3172
# CountCutoff                         6807993
# DetectorModel                       Dectris EIGER2 Si 500K, S/N E-01-0554
# ThresholdSetting                    4023.88989258
# Saturation                          0
# FlatField                           Corrected
# BackgroundReductionExtra            0.02
# BackgroundCorrectionConstant        0.0026712
# Detector                            0
# Monitor                             0
# Pil_Roi0                            0
# SumForIntensity1                    3.24929e+08
# TransmittedFlux                     902580
# det                                 0
# mon                                 0
# pilai0                              3.24929e+08
# pilai1                              702949
# pilct0                              5.62228e+08
# pilct1                              702949
# pilroi0                             0
# pilroi1                             0
# sec                                 1
# title                               20251017__1_00265.edf
# usaxs0                              0
# Operation                           Azimuthal average I(q)
# Error_model                         ErrorModel.poisson
# Geometrical_correction              True
# Transmission_correction             True
# Thickness_correction                False
# Binning mode                        Uniform
# Binning factor                      1.0
# Psi                                 0.0
# Omega                               0.2499
# MaskInvalidPixels                   True
# DetectorEdge                        3
# MaskFiles                           ['20251017__1_00233_mask.edf']
################################################################################
    q(A⁻¹)                Intensity(a.u.)            Sigma_I(a.u.)            
       0.690460           -2.25024864e-05                         0           
       0.693100             0.00306975202             0.00227353391           
       0.695741             0.00457205207             0.00234407496           
       0.698381             0.00808014023             0.00291455011           
       0.701021             0.00269240576             0.00137308429           
       0.703662             0.00696286234             0.00204391667           
       0.706302             0.00657501954             0.00191819899           
       0.708942             0.00864364427             0.00195360835           
       0.711583             0.00652149583             0.00169661431           
       0.714223             0.00328500553             0.00104930512           
       0.716864             0.00997171146             0.00186556462           
       0.719504             0.00535103725             0.00126479838           
       0.722144             0.00603092243             0.00129682053           
       0.724785             0.00802961185             0.00147183181           
       0.727425             0.00961156445             0.00149363959           
       0.730065             0.00608828207             0.00122317253           
       0.732706             0.00725689627             0.00120086349           
       0.735346             0.00805498133             0.00136660432           
       0.737987             0.00565952108            0.000991489929           
       0.740627             0.00682233946             0.00119253992           
       0.743267             0.00825949555             0.00112867408           
       0.745908             0.00843188639             0.00122218604           
       0.748548             0.00657160818              0.0010063313           
       0.751189             0.00691420564             0.00102250472           
       0.753829             0.00657077807             0.00100577926           
       0.756469             0.00686241592            0.000966746989           
       0.759110              0.0060373222            0.000937907654           
       0.761750             0.00521497288            0.000797778098           
       0.764390              0.0068357207            0.000980455765           
       0.767031             0.00580288659            0.000817430324           
       0.769671             0.00823135852             0.00103249657           
       0.772312             0.00652069586            0.000837425257           
       0.774952             0.00660370854            0.000903460865           
       0.777592             0.00616123267            0.000798186321           
       0.780233             0.00708849708            0.000902556521           
       0.782873             0.00657447987            0.000794852968           
       0.785513             0.00528966697            0.000758428534           
       0.788154              0.0079348659            0.000853208798           
       0.790794             0.00643369203            0.000795140655           
       0.793435             0.00592700148            0.000733034265           
       0.796075             0.00682804005             0.00079093952           
       0.798715             0.00673362324            0.000780968012           
       0.801356             0.00653964713            0.000749040266           
       0.803996             0.00551898999            0.000699106264           
       0.806637             0.00612536008            0.000696197277           
       0.809277             0.00603083614            0.000722694355           
       0.811917             0.00725192437            0.000749923686           
       0.814558              0.0063194036            0.000717155342           
       0.817198             0.00608492438            0.000671002074           
       0.819838             0.00624356166            0.000708992034           
       0.822479             0.00660595758            0.000672068959           
       0.825119             0.00678675818             0.00073178798           
       0.827760             0.00674840311            0.000676157923           
       0.830400             0.00865975204            0.000807025209           
       0.833040             0.00670834836            0.000662912818           
       0.835681             0.00786396961            0.000751630921           
       0.838321             0.00725902963            0.000675912127           
       0.840961             0.00745579894            0.000716004202           
       0.843602             0.00674711038            0.000641593563           
       0.846242             0.00668409097            0.000661136603           
       0.848883             0.00646539462            0.000632528532           
       0.851523             0.00709823886            0.000667729401           
       0.854163             0.00592319395            0.000602876212           
       0.856804             0.00743445996            0.000658139464           
       0.859444             0.00664334465            0.000626610901           
       0.862085             0.00673858215            0.000621906367           
       0.864725             0.00712862834            0.000637303559           
       0.867365             0.00720778418             0.00063624278           
       0.870006               0.006664449            0.000620328256           
       0.872646             0.00746324957            0.000627883342           
       0.875286             0.00573070469             0.00056894497           
       0.877927             0.00580728532            0.000548369063           
       0.880567             0.00680311087            0.000605121513           
       0.883208             0.00681807761             0.00058829162           
       0.885848             0.00616119464            0.000573737535           
       0.888488             0.00643977093            0.000557717792           
       0.891129             0.00748803103            0.000632178463           
       0.893769             0.00717068599            0.000584766138           
       0.896410             0.00736622173            0.000610942158           
       0.899050              0.0082691748            0.000624128563           
       0.901690             0.00746679159            0.000605455166           
       0.904331             0.00749256621            0.000585324615           
       0.906971             0.00723694132            0.000594003945           
       0.909611             0.00569993102            0.000505989817           
       0.912252             0.00665399208             0.00055617205           
       0.914892             0.00725036803             0.00056585633           
       0.917533             0.00816469365            0.000614025787           
       0.920173             0.00613124784            0.000510413678           
       0.922813             0.00830653224            0.000620842523           
       0.925454             0.00707691627            0.000543859922           
       0.928094             0.00633641435            0.000525666374           
       0.930734             0.00644916063            0.000517665936           
       0.933375             0.00684891191            0.000544840641           
       0.936015             0.00710777408            0.000531073039           
       0.938656             0.00721728811            0.000557595821           
       0.941296             0.00770350803            0.000555331692           
       0.943936             0.00660039943            0.000523293373           
       0.946577             0.00704210169            0.000520553576           
       0.949217             0.00682941677            0.000530736692           
       0.951858             0.00753449796            0.000527013837           
       0.954498             0.00698684699            0.000533911348           
       0.957138             0.00760430348            0.000535363408           
       0.959779             0.00682467202             0.00051827077           
       0.962419             0.00750512625            0.000523219383           
       0.965059             0.00672830423             0.00050947347           
       0.967700             0.00726559564             0.00051230443           
       0.970340              0.0079077241             0.00054948201           
       0.972981             0.00790486995            0.000530444924           
       0.975621             0.00784552716            0.000539514926           
       0.978261             0.00777591031            0.000512475932           
       0.980902             0.00804021752            0.000545925685           
       0.983542             0.00801112294            0.000529070008           
       0.986182             0.00790217431            0.000532380023           
       0.988823              0.0083280342            0.000528902822           
       0.991463             0.00694515385            0.000494534668           
       0.994104             0.00746310103            0.000495363656           
       0.996744             0.00761040057             0.00051645008           
       0.999384             0.00717606667            0.000484475429           
       1.002025             0.00818396802            0.000531786395           
       1.004665              0.0067952327            0.000464721998           
       1.007306             0.00821248812             0.00052801019           
       1.009946             0.00772462821            0.000492387757           
       1.012586             0.00747763916            0.000498387442           
       1.015227             0.00746723427            0.000482965159           
       1.017867             0.00727110596            0.000490237575           
       1.020507              0.0078437812            0.000490009075           
       1.023148             0.00696517213            0.000467327675           
       1.025788             0.00744734874            0.000478284634           
       1.028429             0.00812410236            0.000510463855           
       1.031069             0.00803962413            0.000489242943           
       1.033709             0.00736061795            0.000477116563           
       1.036350             0.00711182796            0.000456686267           
       1.038990             0.00810586473            0.000499595566           
       1.041630             0.00737496015            0.000467371405           
       1.044271             0.00690792354            0.000452381485           
       1.046911             0.00796954424             0.00047687306           
       1.049552             0.00767372988            0.000484802477           
       1.052192             0.00838423272            0.000483961612           
       1.054832             0.00795862775            0.000480687722           
       1.057473             0.00721559908            0.000451904854           
       1.060113             0.00824587873            0.000488322622           
       1.062754             0.00812488365             0.00047936559           
       1.065394             0.00805003481            0.000472132176           
       1.068034             0.00795154591            0.000467418466           
       1.070675             0.00865642329            0.000496274149           
       1.073315              0.0082844885            0.000470655549           
       1.075955             0.00854904978            0.000486130163           
       1.078596             0.00826039435            0.000476908161           
       1.081236              0.0087087507            0.000482416938           
       1.083877             0.00733784711            0.000456654968           
       1.086517             0.00820268489            0.000471894284           
       1.089157             0.00776570776            0.000462519169           
       1.091798             0.00891800061            0.000485146126           
       1.094438             0.00709035742            0.000439461541           
       1.097078             0.00825923743            0.000462115564           
       1.099719             0.00796861944            0.000465545834           
       1.102359             0.00915059448            0.000472598086           
       1.105000             0.00945854642            0.000499407884           
       1.107640              0.0080398801            0.000445425585           
       1.110280             0.00783124302            0.000448410634           
       1.112921             0.00858719283            0.000461058394           
       1.115561              0.0080875227            0.000453121722           
       1.118202             0.00902613354            0.000464722479           
       1.120842             0.00857818852            0.000467318605           
       1.123482             0.00890010108            0.000462653572           
       1.126123             0.00763594372            0.000431212912           
       1.128763             0.00882447504            0.000461259582           
       1.131403             0.00784996682            0.000434369398           
       1.134044             0.00865263498             0.00045524486           
       1.136684             0.00831147178            0.000449532834           
       1.139325             0.00814798648            0.000432549146           
       1.141965             0.00822548574            0.000440285274           
       1.144605             0.00845998797            0.000449140042           
       1.147246             0.00810169007            0.000431202038           
       1.149886              0.0084776215            0.000444229836           
       1.152527             0.00946441512             0.00046984278           
       1.155167             0.00972463887             0.00046956194           
       1.157807             0.00791631558            0.000423952095           
       1.160448             0.00890599312            0.000455825148           
       1.163088             0.00834569099             0.00042488322           
       1.165728              0.0086932992            0.000451515284           
       1.168369             0.00879970802            0.000438053016           
       1.171009             0.00845121264            0.000432850465           
       1.173650             0.00910431898              0.0004460248           
       1.176290             0.00811695924            0.000426086889           
       1.178930             0.00947577461            0.000447430364           
       1.181571             0.00916597521            0.000454428373           
       1.184211             0.00888989832             0.00043401623           
       1.186851             0.00909663687            0.000443081978           
       1.189492             0.00909522787            0.000445507906           
       1.192132             0.00914481397            0.000440104647           
       1.194773              0.0096860382            0.000450208348           
       1.197413             0.00882059785            0.000433129543           
       1.200053             0.00840341966            0.000420102941           
       1.202694             0.00900309556            0.000431557343           
       1.205334             0.00997934999            0.000459320096           
       1.207975             0.00902907886            0.000428343479           
       1.210615             0.00979466441            0.000455567908           
       1.213255             0.00952716319            0.000437417396           
       1.215896             0.00924526298            0.000439065103           
       1.218536             0.00875879602            0.000415048735           
       1.221176             0.00933196918            0.000438639608           
       1.223817              0.0086005804             0.00041232514           
       1.226457             0.00917060612            0.000431177883           
       1.229098             0.00948951716            0.000431956896           
       1.231738             0.00951170386             0.00043855129           
       1.234378             0.00983557816             0.00043729008           
       1.237019             0.00980187185            0.000440061242           
       1.239659              0.0095744781            0.000434691476           
       1.242299             0.00872091241             0.00041274192           
       1.244940              0.0104645713            0.000447244443           
       1.247580             0.00893137828            0.000415008373           
       1.250221             0.00921508738            0.000428429409           
       1.252861              0.0091725514            0.000411514581           
       1.255501              0.0101595424            0.000445316968           
       1.258142             0.00993659156            0.000431696881           
       1.260782             0.00964792359            0.000430185005           
       1.263423             0.00978365904            0.000424618065           
       1.266063              0.0100466819             0.00043830789           
       1.268703             0.00975160464            0.000420943442           
       1.271344             0.00938998101            0.000422061236           
       1.273984              0.0102622365            0.000434341151           
       1.276624             0.00953977316            0.000416218183           
       1.279265             0.00986759653             0.00042423343           
       1.281905             0.00918090743            0.000411728275           
       1.284546             0.00950155438            0.000414280695           
       1.287186             0.00954330459             0.00041558875           
       1.289826              0.0100403512            0.000428484517           
       1.292467             0.00979413827            0.000415644905           
       1.295107             0.00990632903            0.000425386886           
       1.297747             0.00957108629            0.000407159847           
       1.300388              0.0103645905            0.000434582226           
       1.303028              0.0100270265            0.000416577076           
       1.305669               0.010464495            0.000431065793           
       1.308309              0.0105836951            0.000426995625           
       1.310949              0.0103101134            0.000426693533           
       1.313590              0.0108015817            0.000429986096           
       1.316230              0.0101168842            0.000423625332           
       1.318871               0.010457952            0.000421415048           
       1.321511              0.0105726926             0.00042584394           
       1.324151             0.00953672181            0.000406041044           
       1.326792              0.0107207461            0.000427022276           
       1.329432              0.0104758275            0.000424318255           
       1.332072              0.0107509519            0.000422483083           
       1.334713              0.0106300947            0.000425311743           
       1.337353              0.0102563967            0.000411342737           
       1.339994              0.0100918457            0.000413841451           
       1.342634               0.010761328            0.000417727302           
       1.345274              0.0113849002            0.000435276682           
       1.347915              0.0118231487            0.000444754582           
       1.350555              0.0105940906            0.000419358719           
       1.353195              0.0105096735            0.000409694112           
       1.355836              0.0102718433            0.000412674065           
       1.358476              0.0103329648            0.000412735947           
       1.361117              0.0107101419            0.000409660199           
       1.363757              0.0105391755            0.000419844972           
       1.366397              0.0108147543            0.000412054457           
       1.369038              0.0109327739            0.000423028901           
       1.371678                0.01077308             0.00041144872           
       1.374319              0.0114437004            0.000427424943           
       1.376959             0.00992076598            0.000392490174           
       1.379599              0.0105215892            0.000412079175           
       1.382240               0.010864291            0.000410783076           
       1.384880                0.01037783            0.000406410487           
       1.387520              0.0108578267            0.000410842601           
       1.390161              0.0101708889            0.000396553211           
       1.392801              0.0107919527            0.000410915786           
       1.395442             0.00999131363            0.000391282777           
       1.398082             0.00968192192            0.000386495008           
       1.400722             0.00975707547            0.000386239354           
       1.403363              0.0107079917            0.000408377949           
       1.406003              0.0105554561            0.000395502731           
       1.408644              0.0107586253            0.000407673468           
       1.411284               0.011001384            0.000409986366           
       1.413924              0.0106511146            0.000398431379           
       1.416565              0.0104321599            0.000393851306           
       1.419205              0.0104261343            0.000397616056           
       1.421845              0.0109977736             0.00040323683           
       1.424486              0.0115303757            0.000414708189           
       1.427126               0.010927006            0.000403457108           
       1.429767              0.0104830323             0.00038908611           
       1.432407              0.0104967988            0.000399149568           
       1.435047              0.0102654924            0.000382865466           
       1.437688              0.0105027949            0.000395841388           
       1.440328              0.0104564527            0.000387313163           
       1.442968              0.0106501895            0.000396295756           
       1.445609              0.0108780075            0.000393924256           
       1.448249             0.00969187127            0.000374231995           
       1.450890             0.00978769368            0.000373394679           
       1.453530              0.0100653449            0.000381458494           
       1.456170              0.0102592012            0.000384247347           
       1.458811              0.0102947952            0.000381851046           
       1.461451                0.01046321             0.00038779158           
       1.464092              0.0110304665            0.000394694116           
       1.466732              0.0106645277             0.00038571147           
       1.469372              0.0103099718            0.000378079774           
       1.472013              0.0101628156             0.00038208762           
       1.474653              0.0100321956            0.000370250655           
       1.477293              0.0103748933            0.000382859117           
       1.479934               0.010454557            0.000380303665           
       1.482574              0.0107754866             0.00038514387           
       1.485215              0.0113223447            0.000395812585           
       1.487855              0.0104456245            0.000380100895           
       1.490495              0.0101978432             0.00037475729           
       1.493136               0.010108581            0.000368220491           
       1.495776              0.0113313477             0.00039665246           
       1.498416              0.0105560884            0.000375405591           
       1.501057              0.0101681051            0.000371611178           
       1.503697               0.010008108            0.000365131188           
       1.506338             0.00982574195            0.000364449844           
       1.508978              0.0106342555            0.000376909266           
       1.511618              0.0100039905            0.000365384708           
       1.514259              0.0102431625            0.000370394403           
       1.516899              0.0097678707             0.00036186746           
       1.519540             0.00965843199            0.000357837712           
       1.522180              0.0101821214            0.000362822466           
       1.524820              0.0104231546            0.000374506104           
       1.527461              0.0100448721            0.000359514361           
       1.530101              0.0101664803            0.000365423606           
       1.532741              0.0108136832            0.000375090092           
       1.535382              0.0102204831            0.000365459999           
       1.538022             0.00962740112            0.000351559732           
       1.540663              0.0103772847            0.000368444179           
       1.543303             0.00979923612            0.000353579885           
       1.545943             0.00958299485            0.000351616467           
       1.548584              0.0100336068            0.000361704255           
       1.551224               0.010179562            0.000354985294           
       1.553864              0.0102172652            0.000364932669           
       1.556505              0.0102049065            0.000359101528           
       1.559145             0.00958297669            0.000348791424           
       1.561786             0.00978566918            0.000350864081           
       1.564426             0.00950743546            0.000345527713           
       1.567066             0.00971561791             0.00034656395           
       1.569707             0.00963147139            0.000350055491           
       1.572347             0.00946625344            0.000342537511           
       1.574988             0.00973477736            0.000345987648           
       1.577628             0.00866673021            0.000333806524           
       1.580268             0.00946053677            0.000336723124           
       1.582909             0.00936431857            0.000341272413           
       1.585549             0.00890306786            0.000329651634           
       1.588189             0.00943659056            0.000343175831           
       1.590830             0.00888475774            0.000327274581           
       1.593470             0.00963944221            0.000343674732           
       1.596111             0.00936473722            0.000335815327           
       1.598751             0.00880404341            0.000328935653           
       1.601391              0.0090005912             0.00033046067           
       1.604032             0.00913013178            0.000330050829           
       1.606672             0.00910880014            0.000336300131           
       1.609312             0.00876034728            0.000319991503           
       1.611953             0.00864281462              0.0003224439           
       1.614593             0.00910479279             0.00032843229           
       1.617234             0.00886592298            0.000325932442           
       1.619874             0.00958213809            0.000334855467           
       1.622514             0.00851434088            0.000318438652           
       1.625155             0.00905996936            0.000327671196           
       1.627795             0.00877385217            0.000319197236           
       1.630436             0.00857736218            0.000318775051           
       1.633076             0.00903867272            0.000325572457           
       1.635716             0.00868592735            0.000318599732           
       1.638357             0.00891176956            0.000321343978           
       1.640997             0.00875059421            0.000320915059           
       1.643637             0.00846135783            0.000309707065           
       1.646278              0.0089354881            0.000323029907           
       1.648918              0.0087668836            0.000315842712           
       1.651559             0.00889978471            0.000322228852           
       1.654199             0.00897298357            0.000319116257           
       1.656839              0.0092794774             0.00032443321           
       1.659480             0.00939311956            0.000329288572           
       1.662120             0.00878153406            0.000314121658           
       1.664761             0.00858047546            0.000313866718           
       1.667401             0.00868080221            0.000312755332           
       1.670041             0.00816388359            0.000303647637           
       1.672682             0.00904948564            0.000316684976           
       1.675322             0.00874273339            0.000316774906           
       1.677962             0.00822624938            0.000301173112           
       1.680603              0.0084400821            0.000307769753           
       1.683243             0.00812735643            0.000299779908           
       1.685884             0.00861628576            0.000309839957           
       1.688524             0.00857140304            0.000308162459           
       1.691164              0.0083116925            0.000302677966           
       1.693805             0.00844861885            0.000307628655           
       1.696445             0.00837189494            0.000301978387           
       1.699085             0.00849797371            0.000305458411           
       1.701726             0.00873304986            0.000305626639           
       1.704366             0.00833243717            0.000305798327           
       1.707007             0.00819260453               0.000296751           
       1.709647             0.00801291169            0.000297125044           
       1.712287             0.00810644496            0.000293859722           
       1.714928              0.0084544015            0.000303117802           
       1.717568             0.00804323786             0.00029293643           
       1.720209             0.00767965003            0.000288006451           
       1.722849             0.00813593526            0.000296914239           
       1.725489              0.0086202754            0.000300752981           
       1.728130             0.00864621265            0.000307336701           
       1.730770             0.00836220519            0.000295858159           
       1.733410              0.0081603533            0.000296102309           
       1.736051             0.00841664567            0.000296048515           
       1.738691             0.00832084521            0.000297363408           
       1.741332             0.00779488266            0.000286040084           
       1.743972              0.0084701565            0.000298283257           
       1.746612             0.00841502657            0.000297379349           
       1.749253             0.00811369592            0.000293268373           
       1.751893             0.00758911166            0.000281927828           
       1.754533             0.00813281227            0.000287846501           
       1.757174             0.00817791887            0.000294040298           
       1.759814             0.00850324832            0.000295260833           
       1.762455             0.00821559724            0.000292694574           
       1.765095             0.00831198477            0.000290272124           
       1.767735             0.00859051938            0.000300109924           
       1.770376             0.00836035453            0.000291572369           
       1.773016             0.00812211917            0.000287841604           
       1.775657              0.0083798266            0.000292971425           
       1.778297               0.009071439            0.000306312865           
       1.780937             0.00825522378             0.00029084407           
       1.783578             0.00854978807            0.000294597691           
       1.786218             0.00805086334            0.000290434658           
       1.788858              0.0083115592            0.000287767672           
       1.791499             0.00848196824            0.000296060401           
       1.794139             0.00897418964            0.000298906245           
       1.796780             0.00870654442            0.000296164605           
       1.799420             0.00895162192             0.00029992166           
       1.802060             0.00876705296            0.000293162964           
       1.804701             0.00909477397            0.000302597913           
       1.807341             0.00938340878             0.00030439216           
       1.809981             0.00864474714             0.00029410609           
       1.812622             0.00891036846            0.000296963506           
       1.815262             0.00874350114            0.000295218582           
       1.817903             0.00897795515            0.000295454628           
       1.820543             0.00848686148            0.000290810874           
       1.823183             0.00893662365            0.000293819152           
       1.825824             0.00825705238            0.000286674012           
       1.828464             0.00847539489            0.000289548443           
       1.831105             0.00843071512            0.000289902246           
       1.833745             0.00834423313            0.000288231489           
       1.836385             0.00828878223            0.000286154888           
       1.839026             0.00800214438            0.000285390095           
       1.841666             0.00804511938            0.000282439759           
       1.844306             0.00816249212            0.000288084221           
       1.846947             0.00816940658            0.000284502537           
       1.849587             0.00855471233             0.00029508306           
       1.852228             0.00859616116            0.000292651009           
       1.854868              0.0084811491            0.000296018056           
       1.857508             0.00880745855            0.000296088828           
       1.860149             0.00862796496            0.000295405176           
       1.862789             0.00818026176            0.000288911611           
       1.865429             0.00837338329            0.000293183318           
       1.868070             0.00858004955             0.00029575384           
       1.870710             0.00812688903            0.000288621566           
       1.873351             0.00901980901             0.00030600537           
       1.875991             0.00856894124            0.000299872655           
       1.878631             0.00924463307            0.000308576365           
       1.881272              0.0086171931            0.000297222868           
       1.883912             0.00839009478            0.000296719732           
       1.886553             0.00849575355            0.000295000585           
       1.889193             0.00836659684            0.000296131359           
       1.891833             0.00840892343            0.000293501023           
       1.894474             0.00834158439            0.000294637067           
       1.897114             0.00840481353            0.000293457576           
       1.899754             0.00850214235            0.000298461908           
       1.902395             0.00822430816            0.000293607394           
       1.905035             0.00862180642            0.000299440905           
       1.907676              0.0091662435            0.000309109453           
       1.910316             0.00871848097            0.000303387262           
       1.912956             0.00883196227            0.000305343215           
       1.915597             0.00835696555            0.000293922288           
       1.918237             0.00872794686            0.000304934967           
       1.920878             0.00897903241            0.000303816366           
       1.923518             0.00871700205            0.000307303811           
       1.926158             0.00865489947            0.000299170852           
       1.928799             0.00837141934            0.000298140458           
       1.931439              0.0084567851            0.000297255284           
       1.934079             0.00840215029             0.00029929405           
       1.936720             0.00814657522            0.000292972392           
       1.939360             0.00833413538            0.000299181714           
       1.942001             0.00825248539            0.000296567261           
       1.944641             0.00826962114            0.000295595733           
       1.947281               0.008083668            0.000293665387           
       1.949922             0.00848609614            0.000301262955           
       1.952562             0.00819505874            0.000298599403           
       1.955202             0.00847553957            0.000296036747           
       1.957843             0.00799089012            0.000296579439           
       1.960483             0.00828177639            0.000297113266           
       1.963124             0.00847861254            0.000300400405           
       1.965764             0.00841580454            0.000299392683           
       1.968404             0.00847619912            0.000305837993           
       1.971045             0.00787295406            0.000287365357           
       1.973685             0.00846267285            0.000303493316           
       1.976326             0.00800786712              0.0002939383           
       1.978966             0.00788892111            0.000293127649           
       1.981606             0.00793122275            0.000290804207           
       1.984247             0.00818166518            0.000297935298           
       1.986887             0.00802369437            0.000297804397           
       1.989527              0.0079559363            0.000290366262           
       1.992168             0.00785964234            0.000295566846           
       1.994808             0.00781446737            0.000291288205           
       1.997449             0.00772565252            0.000289203432           
       2.000089             0.00767153067            0.000286491694           
       2.002729             0.00808678074            0.000300883353           
       2.005370             0.00796106492            0.000292860454           
       2.008010               0.007749186            0.000292773142           
       2.010650             0.00784311329            0.000293699541           
       2.013291              0.0080530368            0.000299298007           
       2.015931             0.00781846508             0.00029279608           
       2.018572              0.0080359047            0.000300782002           
       2.021212             0.00746675988            0.000287332854           
       2.023852             0.00758829157            0.000291183437           
       2.026493             0.00712641887            0.000280946049           
       2.029133             0.00784268123            0.000292478429           
       2.031774             0.00747665522            0.000288341126           
       2.034414             0.00781506106            0.000293035033           
       2.037054              0.0077420775            0.000295341174           
       2.039695             0.00811146603            0.000296350097           
       2.042335             0.00763252479            0.000292361108           
       2.044975             0.00730593042            0.000283751633           
       2.047616             0.00771117251            0.000292764097           
       2.050256             0.00753757854            0.000286045198           
       2.052897             0.00770584279             0.00029778618           
       2.055537             0.00788001479            0.000292922695           
       2.058177             0.00776516397            0.000293348732           
       2.060818             0.00744725322            0.000288143498           
       2.063458             0.00817255902            0.000302264784           
       2.066098             0.00787311398            0.000295358995           
       2.068739             0.00789832905            0.000298916127           
       2.071379             0.00726231084            0.000282395521           
       2.074020             0.00771661694            0.000295080608           
       2.076660             0.00808928305            0.000300073978           
       2.079300             0.00728481408            0.000284721086           
       2.081941             0.00713708943            0.000283532764           
       2.084581             0.00749196966            0.000290711537           
       2.087222              0.0071106988            0.000283410646           
       2.089862             0.00741414349            0.000285787641           
       2.092502             0.00763285095            0.000295240967           
       2.095143             0.00753559614            0.000289161437           
       2.097783             0.00751848153            0.000293227997           
       2.100423             0.00726992742            0.000282811527           
       2.103064              0.0076599003             0.00029530993           
       2.105704             0.00699074732            0.000281037103           
       2.108345             0.00692170308            0.000280929676           
       2.110985             0.00764116409            0.000291023181           
       2.113625             0.00706291609            0.000284203301           
       2.116266              0.0074279832            0.000289298494           
       2.118906             0.00797394091            0.000299523797           
       2.121546             0.00712079327             0.00028282256           
       2.124187             0.00717143323            0.000287752221           
       2.126827             0.00719303115            0.000283665641           
       2.129468             0.00705528459            0.000283868172           
       2.132108              0.0074572763            0.000291239284           
       2.134748             0.00785043332            0.000297691784           
       2.137389             0.00755943649            0.000294569033           
       2.140029             0.00765203114            0.000295647899           
       2.142670             0.00702509731            0.000283740711           
       2.145310             0.00758148237             0.00029588885           
       2.147950             0.00735667451            0.000292595728           
       2.150591             0.00737054205             0.00029018548           
       2.153231             0.00738233618            0.000294711175           
       2.155871             0.00697137845            0.000282254655           
       2.158512             0.00715134456             0.00029102589           
       2.161152             0.00699515517            0.000280640311           
       2.163793             0.00708688638             0.00028707066           
       2.166433             0.00725784746            0.000285474846           
       2.169073             0.00727047626            0.000292394074           
       2.171714             0.00722181747            0.000285481207           
       2.174354               0.007264103            0.000290690958           
       2.176995             0.00741830877            0.000291323429           
       2.179635             0.00797378086            0.000307749533           
       2.182275             0.00697902893            0.000282198647           
       2.184916             0.00815574036            0.000311510169           
       2.187556             0.00713859942            0.000286746678           
       2.190196             0.00732660016            0.000295064009           
       2.192837             0.00662439778             0.00027749566           
       2.195477             0.00682766699            0.000284438492           
       2.198118             0.00732330506            0.000289143199           
       2.200758             0.00779969286            0.000303033487           
       2.203398             0.00707770644             0.00028388056           
       2.206039             0.00679840654            0.000282475546           
       2.208679              0.0072138493            0.000288130074           
       2.211319             0.00728229309            0.000290856351           
       2.213960             0.00759067696            0.000293793649           
       2.216600             0.00777412097              0.0003043279           
       2.219241             0.00744528244             0.00029349211           
       2.221881             0.00739496839            0.000294023389           
       2.224521             0.00807933659            0.000306261642           
       2.227162             0.00734080968            0.000296513954           
       2.229802             0.00701000102            0.000285052409           
       2.232443             0.00701194579            0.000286212751           
       2.235083             0.00737535503            0.000291775731           
       2.237723             0.00770279037            0.000300467327           
       2.240364             0.00725307615            0.000290081276           
       2.243004             0.00699590841            0.000285752937           
       2.245644             0.00748280953            0.000294847154           
       2.248285             0.00744923333            0.000296094628           
       2.250925             0.00707282732            0.000287167747           
       2.253566             0.00658285279            0.000277719802           
       2.256206             0.00729659321            0.000291512363           
       2.258846             0.00736594907            0.000292897145           
       2.261487             0.00751390296            0.000296335851           
       2.264127             0.00721555991            0.000293140816           
       2.266767             0.00757319103            0.000295463539           
       2.269408             0.00713160233            0.000290125327           
       2.272048             0.00668672017            0.000279202246           
       2.274689             0.00741455124            0.000295161144           
       2.277329             0.00799681925            0.000306124379           
       2.279969             0.00726843597            0.000292734625           
       2.282610             0.00664289532             0.00027712536           
       2.285250             0.00692669135            0.000287433718           
       2.287891             0.00776166046            0.000301194715           
       2.290531             0.00747199196            0.000296978225           
       2.293171             0.00738447811            0.000295219405           
       2.295812             0.00704373746            0.000286797519           
       2.298452              0.0071262415            0.000290319859           
       2.301092             0.00694254932             0.00028837391           
       2.303733             0.00712383496            0.000286336818           
       2.306373             0.00648606757            0.000279901769           
       2.309014             0.00725943612            0.000290412789           
       2.311654             0.00694055889            0.000286657784           
       2.314294             0.00677932336            0.000282690056           
       2.316935             0.00738022729            0.000296118337           
       2.319575             0.00703582065            0.000288043776           
       2.322215              0.0067731684            0.000286643418           
       2.324856             0.00697791646            0.000283637388           
       2.327496             0.00667902382            0.000284297056           
       2.330137             0.00708865269            0.000287483858           
       2.332777             0.00759675686            0.000300863775           
       2.335417             0.00706741312             0.00028932122           
       2.338058             0.00703623894            0.000289837816           
       2.340698             0.00751838235            0.000296653706           
       2.343339             0.00748807544            0.000301704738           
       2.345979             0.00734647478            0.000292875244           
       2.348619             0.00741634749            0.000299821835           
       2.351260             0.00735959103            0.000292323441           
       2.353900             0.00703292833            0.000291815444           
       2.356540             0.00731237545            0.000293464116           
       2.359181             0.00729671512            0.000297069744           
       2.361821             0.00723833444             0.00029227386           
       2.364462              0.0070323921            0.000292900762           
       2.367102             0.00697138154            0.000283194264           
       2.369742             0.00762765401            0.000306839932           
       2.372383             0.00751394588            0.000295666518           
       2.375023             0.00740459004            0.000301154195           
       2.377663             0.00706449529            0.000287905857           
       2.380304             0.00715940053            0.000293853772           
       2.382944             0.00716364548            0.000291065833           
       2.385585             0.00687395328            0.000287815292           
       2.388225             0.00667979534            0.000282439521           
       2.390865             0.00741745975            0.000298388561           
       2.393506             0.00718642116            0.000292351178           
       2.396146             0.00695316884            0.000288520711           
       2.398787             0.00718421513             0.00029353168           
       2.401427             0.00686116384            0.000285114397           
       2.404067             0.00718518891            0.000296222417           
       2.406708              0.0069469615            0.000287609364           
       2.409348             0.00699667812            0.000290808015           
       2.411988             0.00693318605            0.000288560979           
       2.414629             0.00705362998            0.000292008959           
       2.417269             0.00726023172             0.00029356417           
       2.419910             0.00702604987            0.000292432723           
       2.422550             0.00716451989            0.000290817711           
       2.425190              0.0068454091              0.0002932175           
       2.427831             0.00672186838            0.000279631995           
       2.430471             0.00707904412            0.000295353557           
       2.433112             0.00639929353            0.000274189219           
       2.435752             0.00632017111            0.000279387246           
       2.438392             0.00728562329            0.000294926499           
       2.441033             0.00678204899            0.000285855437           
       2.443673             0.00722953411            0.000295923419           
       2.446313             0.00706848908            0.000291049857           
       2.448954             0.00726231205            0.000297601912           
       2.451594             0.00749730062            0.000300564051           
       2.454235               0.007227882            0.000294195927           
       2.456875             0.00707627984            0.000292568741           
       2.459515              0.0071756291            0.000295069643           
       2.462156             0.00768275834            0.000303744623           
       2.464796             0.00788591352            0.000313162601           
       2.467436             0.00818716337            0.000312397339           
       2.470077             0.00776331648            0.000308398363           
       2.472717              0.0076079182            0.000301476114           
       2.475358             0.00729176434            0.000298489446           
       2.477998             0.00732363644            0.000297545126           
       2.480638             0.00748703597            0.000301577105           
       2.483279             0.00784397661             0.00031000827           
       2.485919             0.00749987157            0.000301009668           
       2.488560             0.00755245701            0.000303316027           
       2.491200             0.00692602872            0.000290066471           
       2.493840             0.00734696048            0.000297124341           
       2.496481             0.00696865546            0.000293157671           
       2.499121             0.00745153524            0.000299108239           
       2.501761             0.00713502794            0.000297656921           
       2.504402             0.00758168834            0.000300952172           
       2.507042             0.00712868625            0.000296673887           
       2.509683             0.00691857647             0.00028960747           
       2.512323              0.0074220299            0.000301134101           
       2.514963              0.0128065312            0.000396348492           
       2.517604              0.0290020073            0.000594116916           
       2.520244              0.0356361782            0.000658716277           
       2.522884             0.00935859681            0.000336827197           
       2.525525             0.00960969251            0.000344119498           
       2.528165              0.0158753958            0.000440279853           
       2.530806               0.019883602            0.000490886138           
       2.533446              0.0120135289            0.000384955877           
       2.536086               0.011158278            0.000367886578           
       2.538727              0.0109669544            0.000367057155           
       2.541367              0.0114890736            0.000374618791           
       2.544008             0.00876498476            0.000327484221           
       2.546648             0.00759143804            0.000305119312           
       2.549288             0.00660926077            0.000284738784           
       2.551929             0.00690964452            0.000292099099           
       2.554569             0.00655887127            0.000281987587           
       2.557209             0.00694186674            0.000293381722           
       2.559850              0.0066081039            0.000282950454           
       2.562490             0.00701367376            0.000293626648           
       2.565131              0.0071941985            0.000297898873           
       2.567771             0.00743913722             0.00030132214           
       2.570411             0.00678027492            0.000291169857           
       2.573052             0.00683788044            0.000288990931           
       2.575692             0.00683444027            0.000289684649           
       2.578332             0.00716415358             0.00029571382           
       2.580973             0.00671503121            0.000288615909           
       2.583613             0.00702641415            0.000292541392           
       2.586254             0.00694588986            0.000293433483           
       2.588894             0.00717096341            0.000296559339           
       2.591534             0.00690549836            0.000291553637           
       2.594175              0.0071067449            0.000297488377           
       2.596815             0.00629535981            0.000277388315           
       2.599456             0.00676304594            0.000289859727           
       2.602096             0.00739117847            0.000301887595           
       2.604736             0.00728184503            0.000300432323           
       2.607377             0.00657973862            0.000284489525           
       2.610017             0.00726086748             0.00029874762           
       2.612657             0.00700682555            0.000295547914           
       2.615298             0.00710441957            0.000294688021           
       2.617938             0.00738977394            0.000303177171           
       2.620579             0.00737271363            0.000300353322           
       2.623219             0.00673891591            0.000291746537           
       2.625859             0.00740802385            0.000300732238           
       2.628500             0.00687121234            0.000294260207           
       2.631140             0.00722399871            0.000296399023           
       2.633780              0.0068798286            0.000292967426           
       2.636421             0.00717893358            0.000296544902           
       2.639061             0.00716268731            0.000299750759           
       2.641702             0.00716350883            0.000296563429           
       2.644342             0.00705607267            0.000296745568           
       2.646982             0.00726927028            0.000300939548           
       2.649623             0.00684098701            0.000293689893           
       2.652263             0.00695805664            0.000293835301           
       2.654904             0.00680648636             0.00029219529           
       2.657544             0.00645662551            0.000282584406           
       2.660184             0.00768639116            0.000308717885           
       2.662825             0.00721281255            0.000299773057           
       2.665465             0.00716202612            0.000299268295           
       2.668105              0.0070049786            0.000296086149           
       2.670746             0.00660616624            0.000285101215           
       2.673386             0.00683928285            0.000293603629           
       2.676027             0.00705497967            0.000295662528           
       2.678667             0.00707840461            0.000297692583           
       2.681307              0.0074156687            0.000302306107           
       2.683948             0.00749725334            0.000306983247           
       2.686588             0.00783234774            0.000310889329           
       2.689229             0.00738195844            0.000304527115           
       2.691869             0.00750665244            0.000304023126           
       2.694509              0.0071146208            0.000300036934           
       2.697150             0.00729142881            0.000298894378           
       2.699790             0.00790829562            0.000317747197           
       2.702430             0.00719368172            0.000297240745           
       2.705071             0.00701022258            0.000297441837           
       2.707711             0.00683489498            0.000290786336           
       2.710352             0.00734221312            0.000303100389           
       2.712992             0.00676621936            0.000291914561           
       2.715632             0.00681926978            0.000291389713           
       2.718273             0.00675587496            0.000290994958           
       2.720913             0.00699059638            0.000296501063           
       2.723553             0.00673701252            0.000290062157           
       2.726194             0.00669337621            0.000290515632           
       2.728834             0.00673204701            0.000288763715           
       2.731475             0.00686625623            0.000294176636           
       2.734115             0.00693235347            0.000293827834           
       2.736755             0.00756337156             0.00030893829           
       2.739396             0.00674790525            0.000290265803           
       2.742036             0.00664357529            0.000289978996           
       2.744677             0.00714308938            0.000301122461           
       2.747317             0.00746592834            0.000306356419           
       2.749957                0.00697502            0.000298261393           
       2.752598             0.00667027787            0.000292551373           
       2.755238             0.00683043139              0.0002959092           
       2.757878             0.00689205994            0.000296394834           
       2.760519             0.00756322027            0.000307212996           
       2.763159             0.00683764543            0.000296854926           
       2.765800             0.00694754962            0.000294162245           
       2.768440             0.00719952275            0.000303393842           
       2.771080             0.00699514723            0.000296536404           
       2.773721             0.00631284112            0.000285159262           
       2.776361             0.00648653848            0.000285951154           
       2.779001             0.00660430708            0.000291568287           
       2.781642             0.00709422264            0.000300127304           
       2.784282             0.00657363585            0.000289006361           
       2.786923             0.00692665411            0.000294408774           
       2.789563             0.00675826083            0.000291392263           
       2.792203             0.00683014626            0.000294802573           
       2.794844             0.00689637374            0.000294880487           
       2.797484             0.00688164855            0.000294980545           
       2.800125             0.00715954354            0.000300488743           
       2.802765             0.00709984656            0.000304780579           
       2.805405             0.00651117403            0.000287658841           
       2.808046             0.00686869899            0.000299981204           
       2.810686             0.00666580967            0.000292368651           
       2.813326             0.00653170308            0.000292993355           
       2.815967             0.00753320838            0.000312671969           
       2.818607             0.00667013334            0.000297157037           
       2.821248             0.00687387137            0.000297899816           
       2.823888             0.00655024814            0.000295486579           
       2.826528             0.00690972201            0.000301675693           
       2.829169             0.00662521555            0.000294095538           
       2.831809             0.00604057077            0.000281065643           
       2.834449             0.00660527712            0.000288779801           
       2.837090             0.00641367809            0.000286273149           
       2.839730             0.00650568871            0.000286271779           
       2.842371              0.0069202107            0.000297308268           
       2.845011             0.00666254566              0.0002910702           
       2.847651             0.00709248991            0.000300866509           
       2.850292             0.00677175209            0.000292314508           
       2.852932             0.00649338926            0.000286756755           
       2.855573             0.00698512093            0.000300028477           
       2.858213             0.00738400157            0.000305014832           
       2.860853             0.00678056189            0.000294473664           
       2.863494             0.00682966419            0.000296249594           
       2.866134             0.00631100833            0.000288773169           
       2.868774             0.00689906654            0.000297305696           
       2.871415             0.00732872188            0.000309456392           
       2.874055             0.00655223743            0.000294053326           
       2.876696             0.00681748288            0.000297245265           
       2.879336             0.00664375824            0.000295381416           
       2.881976             0.00681389431             0.00029889343           
       2.884617             0.00718691386            0.000305260486           
       2.887257             0.00673320389            0.000293407712           
       2.889897             0.00717994372            0.000306457863           
       2.892538             0.00640721041            0.000287490227           
       2.895178             0.00676702761            0.000292439487           
       2.897819             0.00667954709            0.000293531303           
       2.900459             0.00664074933            0.000290254343           
       2.903099             0.00667038357             0.00029242016           
       2.905740             0.00684932848            0.000293008942           
       2.908380             0.00687218871            0.000297410063           
       2.911021             0.00656114913            0.000291154083           
       2.913661             0.00718367216            0.000301300854           
       2.916301             0.00639235767            0.000288265289           
       2.918942              0.0066488272            0.000289555963           
       2.921582             0.00698032709             0.00029979931           
       2.924222             0.00678328272            0.000293823405           
       2.926863             0.00680595769            0.000295095846           
       2.929503             0.00668756092            0.000295765057           
       2.932144             0.00692561236            0.000296046657           
       2.934784              0.0072514558            0.000304218357           
       2.937424             0.00721233251            0.000303957747           
       2.940065             0.00691781812            0.000297929313           
       2.942705              0.0067004958            0.000294103205           
       2.945346             0.00688582005            0.000296381694           
       2.947986             0.00720854095            0.000304307956           
       2.950626             0.00807683755            0.000323104933           
       2.953267             0.00991296438            0.000354149248           
       2.955907             0.00913882256            0.000344535376           
       2.958547              0.0086836155            0.000332401395           
       2.961188             0.00810528236            0.000323945144           
       2.963828             0.00698440849            0.000299008851           
       2.966469             0.00650826928            0.000288708877           
       2.969109             0.00712004363            0.000303517799           
       2.971749             0.00726886826            0.000305771466           
       2.974390             0.00864103234            0.000334300056           
       2.977030              0.0104230374            0.000366457377           
       2.979670             0.00834488233            0.000325782236           
       2.982311              0.0074527451            0.000310097615           
       2.984951             0.00828058051            0.000327711861           
       2.987592             0.00760755081             0.00031305156           
       2.990232              0.0073824189            0.000309172139           
       2.992872              0.0080897108            0.000321111861           
       2.995513             0.00827220107            0.000327264189           
       2.998153              0.0101700617            0.000365209967           
       3.000794              0.0143600659            0.000427654427           
       3.003434              0.0377563994            0.000700794774           
       3.006074              0.0413337887            0.000735606535           
       3.008715              0.0219634299             0.00054030321           
       3.011355              0.0210831772            0.000534870555           
       3.013995              0.0172975588            0.000482107699           
       3.016636              0.0292372995            0.000627962649           
       3.019276                0.13357654             0.00137431642           
       3.021917               0.374475853             0.00226206335           
       3.024557               0.137574854             0.00138202466           
       3.027197               0.095014786             0.00116780545           
       3.029838              0.0879897348             0.00111843092           
       3.032478              0.0749818408             0.00103862458           
       3.035118              0.0466209187            0.000823191185           
       3.037759              0.0935726356             0.00116828539           
       3.040399               0.105217313             0.00125302401           
       3.043040              0.0503314082            0.000875050464           
       3.045680              0.0598415665            0.000939451587           
       3.048320               0.081651751              0.0011149859           
       3.050961               0.203264915             0.00177685098           
       3.053601                0.11470019             0.00132885319           
       3.056242              0.0494659193            0.000878271339           
       3.058882               0.192926422             0.00176029078           
       3.061522               0.248100937             0.00198236353           
       3.064163              0.0353270219            0.000749397334           
       3.066803              0.0189620283            0.000559653011           
       3.069443              0.0309099043            0.000709778964           
       3.072084              0.0988498372             0.00128059308           
       3.074724              0.0400247741            0.000819680417           
       3.077365              0.0110316174            0.000430020008           
       3.080005             0.00954782977            0.000404492905           
       3.082645             0.00921518398            0.000399407532           
       3.085286             0.00877239315            0.000389764689           
       3.087926             0.00781954832            0.000370329856           
       3.090566              0.0077894175            0.000373422957           
       3.093207             0.00797218115            0.000373696808           
       3.095847             0.00832300956            0.000389834457           
       3.098488             0.00806630241            0.000383079656           
       3.101128             0.00761311527            0.000374190183           
       3.103768             0.00913415929             0.00041217849           
       3.106409              0.0102029411            0.000438543731           
       3.109049             0.00970027289             0.00043092857           
       3.111690               0.013034802             0.00049756768           
       3.114330              0.0119903175            0.000481462461           
       3.116970              0.0155110561            0.000555223446           
       3.119611              0.0159025685            0.000558528878           
       3.122251              0.0119580939            0.000488298283           
       3.124891             0.00907753577            0.000427505306           
       3.127532             0.00772556581            0.000401491487           
       3.130172             0.00818787327            0.000404826965           
       3.132813             0.00888855152            0.000430377512           
       3.135453             0.00891201021            0.000440035557           
       3.138093             0.00703906999            0.000381793689           
       3.140734             0.00674389377            0.000380657887           
       3.143374             0.00665745707            0.000383992161           
       3.146014             0.00581525109            0.000356277473           
       3.148655             0.00560156603            0.000352423405           
       3.151295             0.00575049272            0.000359903899           
       3.153936             0.00638567224            0.000384859117           
       3.156576             0.00676883921            0.000391688905           
       3.159216             0.00568095786            0.000361769972           
       3.161857             0.00656511126            0.000393675132           
       3.164497             0.00690322472             0.00041219714           
       3.167138             0.00626624765            0.000383297775           
       3.169778             0.00580030273            0.000375430799           
       3.172418             0.00597695801             0.00038333196           
       3.175059             0.00642994591            0.000402796101           
       3.177699             0.00589584308            0.000384180913           
       3.180339             0.00636209705            0.000402649968           
       3.182980             0.00577381221            0.000388760856           
       3.185620             0.00615269666            0.000405699098           
       3.188261             0.00580097985            0.000388771585           
       3.190901             0.00557077382            0.000386849991           
       3.193541             0.00580991845            0.000396367994           
       3.196182             0.00587453587            0.000406858846           
       3.198822              0.0053258694            0.000382697253           
       3.201463             0.00633857576             0.00042289845           
       3.204103             0.00597319035            0.000415995296           
       3.206743             0.00591159721            0.000417343868           
       3.209384             0.00583970361            0.000412949271           
       3.212024             0.00575907882            0.000411545523           
       3.214664             0.00570411518            0.000417383628           
       3.217305             0.00607192531            0.000440676985           
       3.219945               0.005538755            0.000417365341           
       3.222586             0.00530306055             0.00041069977           
       3.225226             0.00572315329            0.000436268861           
       3.227866             0.00647438407            0.000467608742           
       3.230507             0.00587756986            0.000450851964           
       3.233147             0.00479654776            0.000401261763           
       3.235787             0.00637218736            0.000462621374           
       3.238428             0.00549391268            0.000437144994           
       3.241068             0.00554973303            0.000448269365           
       3.243709             0.00646792611            0.000481247296           
       3.246349              0.0058459144            0.000454962166           
       3.248989             0.00537523534            0.000446234057           
       3.251630             0.00538967646            0.000448809948           
       3.254270             0.00617064143            0.000494988227           
       3.256911             0.00629834534            0.000487553931           
       3.259551             0.00576385919            0.000476714483           
       3.262191             0.00478478502            0.000438338943           
       3.264832             0.00490593693            0.000448018377           
       3.267472             0.00630464858            0.000515087445           
       3.270112             0.00482851549            0.000452055656           
       3.272753             0.00567682554            0.000496183641           
       3.275393              0.0054520161             0.00048876256           
       3.278034             0.00602668671            0.000524344594           
       3.280674             0.00523306356            0.000490020336           
       3.283314             0.00534685202            0.000498056105           
       3.285955             0.00535890891            0.000507982906           
       3.288595             0.00523804905            0.000507824777           
       3.291235             0.00544212789            0.000520663566           
       3.293876             0.00576042476            0.000538845182           
       3.296516             0.00646386844            0.000582440981           
       3.299157             0.00537414202             0.00053910733           
       3.301797             0.00579518526            0.000560065535           
       3.304437             0.00539650487             0.00055058806           
       3.307078             0.00585890978            0.000579265324           
       3.309718             0.00458391511             0.00051748901           
       3.312359             0.00463942564            0.000531132263           
       3.314999             0.00483189891            0.000547723943           
       3.317639             0.00547356559            0.000589236234           
       3.320280             0.00523772295            0.000584819323           
       3.322920             0.00520962294            0.000591974921           
       3.325560              0.0062366229             0.00066020843           
       3.328201              0.0058791385            0.000643717277           
       3.330841              0.0061120657            0.000672308066           
       3.333482             0.00580230184            0.000663367261           
       3.336122             0.00566279375            0.000669587497           
       3.338762             0.00487845002            0.000627172562           
       3.341403             0.00455559805            0.000611686888           
       3.344043              0.0054452212            0.000694275063           
       3.346683             0.00501810778            0.000673250122           
       3.349324             0.00471121254            0.000662436401           
       3.351964             0.00687853477            0.000826167247           
       3.354605             0.00602942915            0.000782255008           
       3.357245             0.00507007269            0.000742541081           
       3.359885             0.00549643063            0.000773410101           
       3.362526             0.00499020429            0.000774614348           
       3.365166             0.00489232691            0.000757510823           
       3.367807             0.00478216659            0.000801707365           
       3.370447             0.00587303987            0.000888798563           
       3.373087             0.00564068779            0.000919293806           
       3.375728             0.00571010405            0.000917941258           
       3.378368             0.00493507185            0.000922134926           
       3.381008             0.00520571947            0.000938825113           
       3.383649             0.00390755759            0.000880269377           
       3.386289              0.0048731897            0.000983441725           
       3.388930             0.00565078663             0.00116304479           
       3.391570             0.00210711912            0.000710507382           
       3.394210             0.00594647445             0.00127890164           
       3.396851             0.00750514221             0.00155635946           
       3.399491             0.00751111399             0.00158523644           
       3.402131              0.0045056766             0.00145334821           
       3.404772             0.00405971786             0.00138014173           
       3.407412             0.00767118664             0.00235415329           
       3.410053             0.00294831107             0.00151969665           
       3.412693             0.00439423877             0.00262487791           
       3.415333             0.00430624815             0.00318375053           
