################################################################################
# EDF_DataBlockID                     0.Image.Psd
# EDF_BinarySize                      2105344
# EDF_HeaderSize                      2560
# ByteOrder                           LowByteFirst
# DataType                            FloatValue
# Dim_1                               512
# Dim_2                               1028
# Image                               0
# HeaderID                            EH:000000:000000:000000
# Size                                2105344
# Center_1                            304.9000
# Center_2                            588.7000
# Comment                             Xenocs_Cell_Window - front_window_open_only
# DDummy                              0.6
# Date                                2025-10-18T03:22:10
# Delta                               21.910000
# Dummy                               -1.5
# ExposureTime                        360
# Gamma                               15.360000
# Intensity1                          9.28082e-10
# PSize_1                             7.5e-05
# PSize_2                             7.5e-05
# Pressure                            0.0343409
# SampleDistance                      0.115750
# SampleEnvKind                       large
# SampleEnvPN                         ElectroChemical cell
# SampleEnvSN                         1141
# Thickness                           0
# Wavelength                          1.541891e-10
# Wavelength                          1.54189e-10
# aux                                 0
# aux_dial                            0.002375
# beamx                               588.429
# beamx_dial                          588.429
# beamz                               657.855
# beamz_dial                          657.855
# det0x                               -0.000396875
# det0x_dial                          6.36905
# det0xvd                             -0.0005
# det0xvd_dial                        -0.0005
# det0y                               450.002
# det0y_dial                          481.635
# det0z                               0
# det0z_dial                          1.2295
# det0zvd                             0
# det0zvd_dial                        0
# mag                                 1.818
# mag_dial                            1.818
# om                                  0.2499
# om_dial                             -0.610199
# phi                                 -0.0120535
# phi_dial                            0
# ry                                  0.599993
# ry_dial                             0.599993
# s1bot                               0.8
# s1bot_dial                          -1.66094
# s1hl                                0.8
# s1hl_dial                           -0.608437
# s1hr                                0.8
# s1hr_dial                           0.970938
# s1top                               0.8
# s1top_dial                          -0.461562
# s2bot                               0.45
# s2bot_dial                          1.36109
# s2hl                                0.45
# s2hl_dial                           -0.83375
# s2hr                                0.45
# s2hr_dial                           -0.118594
# s2top                               0.45
# s2top_dial                          1.44734
# w2theta                             32
# w2theta_dial                        32
# waxsch                              19.2605
# waxsch_dial                         -32.7238
# waxsh                               137.085
# waxsh_dial                          -43.5335
# waxsth                              26.0607
# waxsth_dial                         -19.4068
# waxsz                               67.0407
# waxsz_dial                          -23.7962
# wind                                65.9854
# wind_dial                           66.0041
# wpsi                                124
# wpsi_dial                           124
# wstod                               115
# wstod_dial                          115
# x                                   0
# x_dial                              1.00969
# z                                   0
# z_dial                              13.3172
# CountCutoff                         6807993
# DetectorModel                       Dectris EIGER2 Si 500K, S/N E-01-0554
# ThresholdSetting                    4023.88989258
# Saturation                          0
# FlatField                           Corrected
# BackgroundReductionExtra            0.02
# BackgroundCorrectionConstant        0.0026712
# Detector                            0
# Monitor                             0
# Pil_Roi0                            0
# SumForIntensity1                    3.3411e+08
# TransmittedFlux                     928082
# det                                 0
# mon                                 0
# pilai0                              3.3411e+08
# pilai1                              715787
# pilct0                              5.76258e+08
# pilct1                              715787
# pilroi0                             0
# pilroi1                             0
# sec                                 1
# title                               20251017__1_00084.edf
# usaxs0                              0
# Operation                           Azimuthal average I(q)
# Error_model                         ErrorModel.poisson
# Geometrical_correction              True
# Transmission_correction             True
# Thickness_correction                False
# Binning mode                        Uniform
# Binning factor                      1.0
# Psi                                 0.0
# Omega                               0.2499
# MaskInvalidPixels                   True
# DetectorEdge                        3
# MaskFiles                           ['20251017__1_00233_mask.edf']
################################################################################
    q(A⁻¹)                Intensity(a.u.)            Sigma_I(a.u.)            
       0.690460             0.00743102242             0.00780254008           
       0.693100             0.00905365359             0.00385044926           
       0.695741             0.00223174424              0.0016150568           
       0.698381             0.00491079408             0.00224072014           
       0.701021             0.00923595081             0.00250794165           
       0.703662             0.00842660895             0.00221740683           
       0.706302             0.00583983587             0.00178276924           
       0.708942             0.00798443638             0.00185165841           
       0.711583             0.00505795164             0.00147348775           
       0.714223             0.00510189617             0.00128958278           
       0.716864             0.00563880474             0.00138346651           
       0.719504             0.00575815462             0.00129387896           
       0.722144             0.00532530625             0.00120173851           
       0.724785             0.00518761677              0.0011666606           
       0.727425             0.00737082124             0.00128990104           
       0.730065             0.00703744522             0.00129687324           
       0.732706             0.00727853123             0.00118601378           
       0.735346             0.00489997616             0.00105113182           
       0.737987             0.00782919828              0.0011500237           
       0.740627             0.00520722596             0.00102744635           
       0.743267             0.00863274436             0.00113793095           
       0.745908             0.00668113154             0.00107287625           
       0.748548             0.00758594154              0.0010662513           
       0.751189             0.00713276404             0.00102417172           
       0.753829              0.0077574522             0.00107771397           
       0.756469             0.00642063815             0.00092217445           
       0.759110             0.00618753459            0.000936367649           
       0.761750             0.00779965152            0.000962151275           
       0.764390             0.00580922961            0.000891342879           
       0.767031             0.00576955498            0.000803802845           
       0.769671             0.00526742001            0.000814519551           
       0.772312             0.00653784567            0.000826924946           
       0.774952             0.00724586603            0.000933276272           
       0.777592             0.00589486517            0.000769940372           
       0.780233             0.00677242713            0.000869999843           
       0.782873             0.00708132421            0.000813510228           
       0.785513             0.00577573247              0.0007815445           
       0.788154             0.00648629146            0.000760735069           
       0.790794             0.00597376863            0.000755592612           
       0.793435             0.00567920055            0.000707619902           
       0.796075             0.00778828061            0.000833039739           
       0.798715             0.00637676914            0.000749477957           
       0.801356              0.0065487995            0.000739194169           
       0.803996             0.00606304264            0.000722617341           
       0.806637             0.00656858786            0.000710971502           
       0.809277             0.00643998717            0.000736475116           
       0.811917             0.00622466025            0.000685169373           
       0.814558             0.00732816019            0.000761591952           
       0.817198             0.00759874191             0.00073946359           
       0.819838              0.0052765887            0.000642763863           
       0.822479              0.0066821936             0.00066658441           
       0.825119             0.00609608498             0.00068395774           
       0.827760             0.00673916513            0.000666346867           
       0.830400             0.00711634649            0.000721460558           
       0.833040             0.00626678382            0.000631859686           
       0.835681             0.00639295909            0.000668319858           
       0.838321             0.00553409934            0.000582001504           
       0.840961             0.00773603095            0.000719245667           
       0.843602             0.00624049535            0.000608499605           
       0.846242             0.00593866748            0.000614559885           
       0.848883             0.00782398333            0.000686192929           
       0.851523             0.00692814615            0.000650554061           
       0.854163             0.00616480313            0.000606540012           
       0.856804             0.00664865179            0.000613775703           
       0.859444             0.00686573024            0.000628199519           
       0.862085             0.00670952491            0.000611978694           
       0.864725             0.00683605609            0.000615454348           
       0.867365             0.00642499874            0.000592390632           
       0.870006             0.00646642322            0.000602588973           
       0.872646             0.00685417643            0.000593392832           
       0.875286             0.00718694765            0.000628330536           
       0.877927             0.00695399568            0.000591770416           
       0.880567             0.00729443893            0.000617923117           
       0.883208             0.00662918962            0.000572060012           
       0.885848             0.00662394357            0.000586663122           
       0.888488             0.00780550792            0.000605521479           
       0.891129             0.00804127992            0.000646052999           
       0.893769             0.00734414506            0.000583609247           
       0.896410             0.00672006243            0.000575458531           
       0.899050             0.00661523591            0.000550510135           
       0.901690             0.00774139804            0.000607959084           
       0.904331             0.00664141682            0.000543452437           
       0.906971             0.00683628469             0.00056933981           
       0.909611             0.00763769711            0.000577614212           
       0.912252             0.00737793862            0.000577544188           
       0.914892             0.00669888477            0.000536385569           
       0.917533             0.00762785791             0.00058528533           
       0.920173             0.00745164198            0.000554911259           
       0.922813             0.00650059848            0.000541624033           
       0.925454             0.00674930658            0.000523774418           
       0.928094             0.00665617416            0.000531312984           
       0.930734             0.00767557785             0.00055693333           
       0.933375             0.00653660333            0.000524909518           
       0.936015             0.00720456549            0.000527279664           
       0.938656             0.00781070076            0.000572041013           
       0.941296             0.00656151149            0.000505428601           
       0.943936             0.00717953389            0.000538217641           
       0.946577             0.00868503744            0.000570098389           
       0.949217             0.00675512902             0.00052053964           
       0.951858             0.00771633415             0.00052595677           
       0.954498             0.00715027073            0.000532646964           
       0.957138             0.00663662253            0.000493221727           
       0.959779             0.00751375774            0.000536283081           
       0.962419              0.0072337664            0.000506566821           
       0.965059             0.00754429773            0.000532019868           
       0.967700             0.00695433865             0.00049427665           
       0.970340              0.0075086514            0.000528029727           
       0.972981             0.00702171398            0.000493019593           
       0.975621             0.00675914112            0.000493841786           
       0.978261             0.00690043894            0.000476086525           
       0.980902             0.00716557379            0.000508246964           
       0.983542             0.00683598097            0.000481966158           
       0.986182             0.00674715862            0.000485130508           
       0.988823             0.00718933024            0.000484616871           
       0.991463             0.00668353649            0.000478419251           
       0.994104             0.00767230842              0.0004953101           
       0.996744             0.00711611141            0.000492487984           
       0.999384             0.00710064892            0.000475255577           
       1.002025             0.00752542917            0.000502887192           
       1.004665             0.00795482686            0.000495856611           
       1.007306             0.00792823292            0.000511614454           
       1.009946             0.00681321582             0.00045603083           
       1.012586             0.00760007788            0.000495499862           
       1.015227             0.00681148949            0.000454890259           
       1.017867             0.00701197971             0.00047476245           
       1.020507              0.0072043018            0.000463113046           
       1.023148             0.00748046932            0.000477605891           
       1.025788             0.00687765706             0.00045326848           
       1.028429             0.00811795755            0.000503211281           
       1.031069             0.00819393306            0.000487082561           
       1.033709             0.00595500119            0.000423211987           
       1.036350             0.00787297503            0.000473856068           
       1.038990             0.00857105466            0.000506623942           
       1.041630             0.00620426436             0.00042274368           
       1.044271             0.00833474608            0.000490034804           
       1.046911             0.00722927851            0.000447902206           
       1.049552             0.00728060482            0.000465687932           
       1.052192             0.00729255242            0.000445111393           
       1.054832             0.00737717331            0.000456392612           
       1.057473             0.00801473415            0.000469683223           
       1.060113             0.00819338433            0.000480031474           
       1.062754             0.00773048501            0.000461117209           
       1.065394              0.0075327067            0.000450391231           
       1.068034             0.00772599683            0.000454367251           
       1.070675             0.00744323168            0.000453819191           
       1.073315             0.00744187147            0.000439907224           
       1.075955             0.00764101257            0.000453230138           
       1.078596             0.00743177674            0.000446098095           
       1.081236             0.00837216819            0.000466458776           
       1.083877             0.00700250548            0.000439926642           
       1.086517             0.00791659449            0.000457178271           
       1.089157              0.0079759563            0.000462253573           
       1.091798             0.00728196993            0.000432327576           
       1.094438             0.00778895501            0.000454230284           
       1.097078             0.00860491419            0.000465161295           
       1.099719             0.00912375322            0.000491255408           
       1.102359             0.00810249263            0.000438557259           
       1.105000             0.00709794733            0.000426637729           
       1.107640             0.00823145186            0.000444465721           
       1.110280             0.00847750903             0.00046009166           
       1.112921             0.00754163419            0.000426101178           
       1.115561             0.00810868822            0.000447437217           
       1.118202             0.00772832258            0.000424067609           
       1.120842             0.00830297131            0.000453400218           
       1.123482             0.00795135443             0.00043124958           
       1.126123              0.0079737978            0.000434552932           
       1.128763             0.00878512556            0.000453862839           
       1.131403             0.00790003526            0.000429723895           
       1.134044             0.00835725232            0.000441217058           
       1.136684             0.00812939976            0.000438431116           
       1.139325             0.00821713925            0.000428371245           
       1.141965             0.00828293619            0.000435707684           
       1.144605             0.00755797687            0.000418648327           
       1.147246             0.00813329483            0.000426065067           
       1.149886              0.0087293047            0.000444539357           
       1.152527             0.00823505399            0.000432203789           
       1.155167              0.0085155577             0.00043332363           
       1.157807             0.00827590242            0.000427476845           
       1.160448             0.00791564966            0.000423789375           
       1.163088             0.00916545381            0.000439101676           
       1.165728             0.00868653433            0.000445095384           
       1.168369             0.00758510737            0.000401072687           
       1.171009             0.00938459111             0.00044981686           
       1.173650             0.00882974623            0.000433170691           
       1.176290              0.0085513773            0.000431289814           
       1.178930             0.00812881611            0.000408678151           
       1.181571              0.0081849341            0.000423480456           
       1.184211             0.00882312729            0.000426401303           
       1.186851             0.00922838804            0.000440104955           
       1.189492              0.0081127104            0.000414936165           
       1.192132             0.00861961684            0.000421368606           
       1.194773             0.00922460278            0.000433275339           
       1.197413             0.00864688559            0.000422910366           
       1.200053             0.00878165472            0.000423511836           
       1.202694             0.00916631726             0.00042942735           
       1.205334             0.00939830366             0.00043958082           
       1.207975             0.00885921775            0.000418425172           
       1.210615             0.00885218396            0.000427103604           
       1.213255             0.00887606672            0.000416364991           
       1.215896             0.00867297518            0.000419375462           
       1.218536              0.0088878737            0.000412311552           
       1.221176             0.00882880689            0.000420747829           
       1.223817             0.00829407081            0.000399309353           
       1.226457             0.00885827725            0.000417909042           
       1.229098             0.00884122369            0.000411172652           
       1.231738             0.00972136018            0.000437224438           
       1.234378              0.0089600542            0.000411599345           
       1.237019             0.00972959879            0.000432370201           
       1.239659             0.00941049779            0.000424990817           
       1.242299             0.00880427269            0.000408972436           
       1.244940             0.00956655745            0.000421707916           
       1.247580             0.00916105809            0.000414495781           
       1.250221             0.00898026771            0.000417084322           
       1.252861              0.0093767521            0.000410313727           
       1.255501             0.00935062822            0.000421310462           
       1.258142              0.0107121868            0.000442027142           
       1.260782             0.00993041636             0.00043039949           
       1.263423              0.0102514515            0.000428637508           
       1.266063             0.00977295724            0.000426315025           
       1.268703              0.0099078448            0.000418432087           
       1.271344              0.0103754261            0.000437517832           
       1.273984             0.00997428672            0.000422280057           
       1.276624             0.00980088166            0.000416039223           
       1.279265             0.00949124906            0.000410308543           
       1.281905             0.00985222652            0.000420615004           
       1.284546              0.0100011667            0.000419152806           
       1.287186              0.0094721595            0.000408308639           
       1.289826             0.00960980482            0.000413397308           
       1.292467             0.00921938351             0.00039768569           
       1.295107             0.00964912067            0.000414019951           
       1.297747             0.00965636394            0.000403311697           
       1.300388             0.00960658291            0.000412600768           
       1.303028             0.00982940724             0.00040674538           
       1.305669             0.00901552776            0.000394575103           
       1.308309              0.0102215722            0.000413821733           
       1.310949              0.0101846358            0.000418221898           
       1.313590              0.0103210991            0.000414498904           
       1.316230              0.0101727558            0.000418916553           
       1.318871             0.00998702746            0.000406120131           
       1.321511              0.0101604297            0.000411683428           
       1.324151              0.0103547478             0.00041724373           
       1.326792             0.00954206288            0.000397291104           
       1.329432              0.0101817237            0.000412532224           
       1.332072              0.0104638087            0.000411036547           
       1.334713              0.0101347551            0.000409538857           
       1.337353              0.0095133489            0.000390681476           
       1.339994              0.0100068072            0.000406392918           
       1.342634             0.00919793983            0.000380850813           
       1.345274              0.0112920409             0.00042750056           
       1.347915              0.0104363532            0.000412076566           
       1.350555              0.0104736948            0.000411200347           
       1.353195              0.0100640562            0.000395367817           
       1.355836              0.0102651956            0.000406833095           
       1.358476               0.010343212            0.000407227606           
       1.361117             0.00992774037            0.000388956509           
       1.363757             0.00986298011            0.000400534006           
       1.366397             0.00986376582            0.000388076498           
       1.369038              0.0101742834             0.00040244492           
       1.371678              0.0103363689            0.000397447209           
       1.374319             0.00981217466            0.000390309333           
       1.376959              0.0103155019            0.000394685386           
       1.379599              0.0101371864            0.000398885631           
       1.382240              0.0102511886            0.000393503534           
       1.384880              0.0104314749            0.000401822422           
       1.387520              0.0104360624            0.000397211697           
       1.390161              0.0107999666            0.000402979449           
       1.392801              0.0101911763            0.000393789964           
       1.395442              0.0101659035            0.000389226235           
       1.398082              0.0104423966            0.000395833796           
       1.400722              0.0109704064            0.000403885002           
       1.403363              0.0108163412            0.000404760513           
       1.406003              0.0102057739            0.000383516131           
       1.408644              0.0108879731            0.000404442937           
       1.411284             0.00960111627            0.000377708098           
       1.413924              0.0104934321            0.000389999869           
       1.416565              0.0104735101            0.000389171455           
       1.419205              0.0104570335            0.000392695735           
       1.421845              0.0109071806            0.000396016915           
       1.424486               0.010121744            0.000383175942           
       1.427126              0.0109878091            0.000398980814           
       1.429767              0.0103548213            0.000381349557           
       1.432407              0.0102728743            0.000389406227           
       1.435047             0.00982622591            0.000369402093           
       1.437688             0.00958537277            0.000372926239           
       1.440328              0.0102802183            0.000378722331           
       1.442968             0.00962766802            0.000371578849           
       1.445609              0.0105031772            0.000381722774           
       1.448249              0.0100857345            0.000376478812           
       1.450890              0.0104125822            0.000379801644           
       1.453530              0.0103158961            0.000380834352           
       1.456170              0.0098852141            0.000371960499           
       1.458811              0.0102828355            0.000376349421           
       1.461451              0.0100614729            0.000375013034           
       1.464092             0.00950758268            0.000361366963           
       1.466732             0.00973963336            0.000363506953           
       1.469372             0.00999721302            0.000367150275           
       1.472013             0.00926963003             0.00035986269           
       1.474653              0.0103411658            0.000370708265           
       1.477293             0.00998676199            0.000370432602           
       1.479934             0.00934204585            0.000354526227           
       1.482574              0.0107068576            0.000378604033           
       1.485215              0.0107598683            0.000380517441           
       1.487855             0.00964963507            0.000360277226           
       1.490495              0.0102536636            0.000370582695           
       1.493136             0.00957905197            0.000353487286           
       1.495776               0.010290203            0.000372761472           
       1.498416             0.00956652633            0.000352432573           
       1.501057              0.0103018696            0.000368872651           
       1.503697             0.00967048008            0.000353953845           
       1.506338              0.0106668052            0.000374474243           
       1.508978             0.00935473778            0.000348617156           
       1.511618              0.0100172598             0.00036056858           
       1.514259             0.00975770401            0.000356509315           
       1.516899              0.0096738326            0.000355139143           
       1.519540             0.00952792103            0.000350494775           
       1.522180               0.010573171            0.000364608964           
       1.524820              0.0105301421            0.000371215503           
       1.527461              0.0102854156            0.000358760514           
       1.530101             0.00956442439             0.00034953477           
       1.532741              0.0102005961            0.000359261952           
       1.535382             0.00949437644            0.000347365784           
       1.538022             0.00958716327            0.000345970708           
       1.540663             0.00938906728            0.000345613531           
       1.543303                0.01030149            0.000357512424           
       1.545943              0.0103152639            0.000359756317           
       1.548584                0.01023998            0.000360349822           
       1.551224              0.0103809964            0.000353520835           
       1.553864             0.00973436467            0.000351276335           
       1.556505             0.00990862957             0.00034895483           
       1.559145             0.00901044287            0.000333532631           
       1.561786             0.00990597899             0.00034813046           
       1.564426             0.00921423978            0.000335452186           
       1.567066             0.00911210802            0.000330984213           
       1.569707             0.00899151655            0.000333546761           
       1.572347             0.00918718101            0.000332782047           
       1.574988             0.00970616764            0.000340699232           
       1.577628             0.00989682971            0.000351774949           
       1.580268             0.00931249087            0.000329456182           
       1.582909             0.00916627452             0.00033297314           
       1.585549             0.00902023457            0.000327223123           
       1.588189             0.00859592537            0.000323001943           
       1.590830             0.00903187953               0.000325408           
       1.593470             0.00870805338            0.000322130517           
       1.596111             0.00871031507            0.000319388538           
       1.598751              0.0085268595            0.000319237641           
       1.601391             0.00878710029            0.000322000637           
       1.604032             0.00817652694            0.000308018229           
       1.606672             0.00946694343            0.000338104553           
       1.609312             0.00847089838            0.000310307448           
       1.611953             0.00859520849            0.000317105995           
       1.614593             0.00910275677            0.000323852283           
       1.617234              0.0087486755             0.00031929083           
       1.619874             0.00841236467            0.000309410398           
       1.622514              0.0087177172            0.000317761537           
       1.625155              0.0083329911             0.00030990247           
       1.627795              0.0084809937            0.000309483154           
       1.630436             0.00899807467            0.000321982245           
       1.633076             0.00818270892            0.000305487578           
       1.635716             0.00863943816            0.000313350028           
       1.638357             0.00783697609            0.000297174903           
       1.640997             0.00812682857            0.000304987157           
       1.643637             0.00853407159            0.000306731869           
       1.646278             0.00834025526            0.000307767631           
       1.648918             0.00846629376            0.000306086789           
       1.651559             0.00848675097            0.000310309507           
       1.654199             0.00844039001            0.000305218904           
       1.656839              0.0083697361            0.000303856902           
       1.659480              0.0084168939            0.000307395382           
       1.662120             0.00787513767            0.000293353613           
       1.664761              0.0086784097            0.000311285823           
       1.667401              0.0079711541            0.000295552797           
       1.670041             0.00814563204             0.00029911182           
       1.672682             0.00849071349            0.000302508292           
       1.675322             0.00832168036             0.00030477711           
       1.677962             0.00811500815            0.000294991444           
       1.680603             0.00869592604            0.000308077653           
       1.683243             0.00869525882            0.000305786849           
       1.685884             0.00813265766             0.00029685427           
       1.688524             0.00779763096            0.000289857665           
       1.691164             0.00732069513            0.000280131478           
       1.693805             0.00777242919            0.000290979231           
       1.696445             0.00823715407            0.000295394394           
       1.699085              0.0081283521            0.000294608538           
       1.701726             0.00826958925            0.000293291774           
       1.704366             0.00826524156            0.000300349238           
       1.707007             0.00829013261            0.000294382245           
       1.709647             0.00821344476            0.000296658249           
       1.712287             0.00816105657            0.000290768742           
       1.714928             0.00831280323              0.0002964104           
       1.717568             0.00762413635            0.000281256737           
       1.720209             0.00802367374            0.000290313886           
       1.722849             0.00827896571            0.000295369062           
       1.725489             0.00799687959            0.000285666509           
       1.728130             0.00818321018            0.000294858058           
       1.730770             0.00844804966            0.000293258796           
       1.733410             0.00832369245            0.000294913738           
       1.736051             0.00834181143            0.000290651941           
       1.738691             0.00785446323            0.000284912653           
       1.741332             0.00794207104            0.000284733566           
       1.743972             0.00814519506             0.00028845866           
       1.746612             0.00806835051            0.000287160775           
       1.749253              0.0078579634            0.000284616809           
       1.751893             0.00840172384            0.000292534002           
       1.754533             0.00819082463            0.000284874826           
       1.757174             0.00866572305            0.000298495327           
       1.759814             0.00812651513             0.00028465267           
       1.762455             0.00827281133            0.000289648537           
       1.765095             0.00819516541            0.000284237583           
       1.767735             0.00811351499            0.000287623817           
       1.770376             0.00817371718            0.000284310893           
       1.773016             0.00797484566            0.000281274078           
       1.775657             0.00808947045            0.000283868676           
       1.778297             0.00835307143            0.000289867764           
       1.780937             0.00852190125            0.000291416216           
       1.783578             0.00874539403            0.000293826548           
       1.786218             0.00844273846            0.000293304387           
       1.788858             0.00820305705            0.000281928056           
       1.791499             0.00843175934            0.000291099046           
       1.794139             0.00821389984            0.000282008206           
       1.796780             0.00855529874            0.000289519294           
       1.799420             0.00834095694            0.000285505569           
       1.802060             0.00901384962            0.000293148125           
       1.804701             0.00871283246            0.000292078327           
       1.807341             0.00856727772            0.000286829784           
       1.809981             0.00840066419            0.000285913301           
       1.812622             0.00880908359            0.000291185868           
       1.815262              0.0090227369            0.000295746647           
       1.817903             0.00824547349            0.000279228382           
       1.820543             0.00843507611            0.000285911264           
       1.823183             0.00889805619            0.000289128309           
       1.825824             0.00851613328            0.000287108934           
       1.828464             0.00848252953            0.000285662762           
       1.831105             0.00852175705            0.000287431013           
       1.833745             0.00809121308            0.000279901167           
       1.836385             0.00803000685            0.000277755995           
       1.839026             0.00803254184            0.000281975828           
       1.841666             0.00809860527            0.000279456606           
       1.844306             0.00903700211            0.000298930311           
       1.846947             0.00819386341            0.000280986159           
       1.849587             0.00834385835            0.000287392025           
       1.852228             0.00804072915            0.000279122692           
       1.854868             0.00836999434            0.000290003416           
       1.857508             0.00872711128            0.000290657579           
       1.860149             0.00796824977            0.000279959405           
       1.862789             0.00848708207            0.000290208598           
       1.865429             0.00804409636            0.000283385145           
       1.868070             0.00856371859            0.000291384447           
       1.870710             0.00824268146            0.000286649079           
       1.873351             0.00877512624            0.000297650585           
       1.875991             0.00883153749            0.000300221036           
       1.878631             0.00834438033            0.000289110952           
       1.881272             0.00844240852            0.000290123005           
       1.883912             0.00850630122            0.000294634129           
       1.886553             0.00851112743            0.000291182419           
       1.889193             0.00842345246            0.000293025031           
       1.891833             0.00821245275            0.000286039191           
       1.894474             0.00842188899            0.000291956093           
       1.897114             0.00854083489            0.000291730023           
       1.899754             0.00871157023            0.000297935754           
       1.902395             0.00872866943            0.000298291585           
       1.905035             0.00807639763            0.000285805457           
       1.907676             0.00846562908            0.000292951609           
       1.910316             0.00881064247            0.000300767148           
       1.912956             0.00855365143            0.000296336484           
       1.915597             0.00861343084            0.000294269992           
       1.918237             0.00808243373             0.00028938228           
       1.920878             0.00827947199             0.00028770499           
       1.923518             0.00904404517            0.000308684919           
       1.926158             0.00903462188            0.000301434484           
       1.928799             0.00863058844            0.000298532246           
       1.931439              0.0083295954            0.000290930041           
       1.934079             0.00846533067            0.000296261012           
       1.936720              0.0079284139            0.000285024371           
       1.939360             0.00875881804            0.000302466444           
       1.942001             0.00887766064            0.000303340063           
       1.944641              0.0084819835            0.000295225416           
       1.947281             0.00860134732            0.000298731794           
       1.949922             0.00888173426            0.000303941725           
       1.952562             0.00857414017            0.000301202011           
       1.955202             0.00815472162            0.000286362532           
       1.957843             0.00852327482            0.000302062202           
       1.960483             0.00831695109            0.000293624334           
       1.963124             0.00842233723            0.000295259656           
       1.965764             0.00847761924            0.000296332984           
       1.968404             0.00826851908            0.000297888957           
       1.971045             0.00765282323            0.000279399787           
       1.973685             0.00881641632            0.000305485835           
       1.976326             0.00815359128            0.000292497323           
       1.978966             0.00851432546            0.000300312065           
       1.981606             0.00870875075             0.00030050951           
       1.984247               0.007903198            0.000288770096           
       1.986887             0.00779441342            0.000289457838           
       1.989527             0.00819029042            0.000290535921           
       1.992168             0.00750448911            0.000284816123           
       1.994808             0.00818469929            0.000293984377           
       1.997449             0.00836254086            0.000296725358           
       2.000089              0.0085209363            0.000297758632           
       2.002729             0.00823771204            0.000299476886           
       2.005370             0.00719190663            0.000274502843           
       2.008010             0.00808202197            0.000294857977           
       2.010650             0.00818189904            0.000295825604           
       2.013291              0.0075643392            0.000286061333           
       2.015931             0.00810031375            0.000293903736           
       2.018572              0.0077731369            0.000291730807           
       2.021212             0.00755075202            0.000284946926           
       2.023852              0.0073727382            0.000283047125           
       2.026493             0.00787331396            0.000291216327           
       2.029133             0.00824230594            0.000295689296           
       2.031774             0.00782782875            0.000290953275           
       2.034414             0.00814208981            0.000294965335           
       2.037054               0.007801726             0.00029237502           
       2.039695             0.00756243741             0.00028218633           
       2.042335             0.00829372438            0.000300545317           
       2.044975             0.00803677587            0.000293488583           
       2.047616             0.00768497682            0.000288222954           
       2.050256             0.00788793582            0.000288569282           
       2.052897              0.0076295148            0.000292208338           
       2.055537             0.00773240045            0.000286151714           
       2.058177             0.00761688083            0.000286514865           
       2.060818             0.00740746743            0.000283397044           
       2.063458             0.00682896789            0.000272480692           
       2.066098             0.00772586584            0.000288536122           
       2.068739             0.00787956171            0.000294430261           
       2.071379             0.00769053107            0.000286581552           
       2.074020             0.00758069715            0.000288424036           
       2.076660             0.00783473549            0.000291229368           
       2.079300             0.00758692023            0.000286544999           
       2.081941             0.00761547232            0.000288828991           
       2.084581             0.00720547414            0.000281154619           
       2.087222             0.00775028581            0.000291788758           
       2.089862             0.00733960601            0.000280413555           
       2.092502             0.00727562066            0.000284261425           
       2.095143             0.00760909955            0.000286548328           
       2.097783             0.00722584586            0.000283487811           
       2.100423             0.00765981241            0.000286279872           
       2.103064             0.00737204347            0.000285699917           
       2.105704             0.00715237174            0.000280334517           
       2.108345             0.00735768045            0.000285634903           
       2.110985             0.00730736072            0.000280658223           
       2.113625              0.0071479323            0.000281953174           
       2.116266             0.00773547631            0.000291141372           
       2.118906             0.00683792931             0.00027353116           
       2.121546             0.00681329125            0.000272821137           
       2.124187               0.007740884            0.000294822525           
       2.126827             0.00732048088            0.000282208603           
       2.129468             0.00734833289            0.000285695581           
       2.132108             0.00775264467            0.000292842736           
       2.134748             0.00738090571            0.000284658752           
       2.137389             0.00784493463             0.00029592845           
       2.140029              0.0073507818            0.000285760947           
       2.142670             0.00732579626            0.000285741011           
       2.145310             0.00689566363            0.000278284648           
       2.147950             0.00751194546            0.000291576892           
       2.150591             0.00745514874             0.00028780862           
       2.153231             0.00731368554            0.000289279405           
       2.155871             0.00705989485            0.000280111267           
       2.158512               0.007644831            0.000296736792           
       2.161152             0.00699505452            0.000276755721           
       2.163793             0.00736246083            0.000288550778           
       2.166433              0.0077606582            0.000291113862           
       2.169073             0.00774268646            0.000297565551           
       2.171714              0.0070241375            0.000277651773           
       2.174354             0.00727525643            0.000286889304           
       2.176995             0.00734554772             0.00028588063           
       2.179635             0.00774239531            0.000299056057           
       2.182275             0.00809553755             0.00029972982           
       2.184916             0.00755781137            0.000295725132           
       2.187556             0.00770005407            0.000293689523           
       2.190196             0.00743321244            0.000293091311           
       2.192837             0.00730171294            0.000287306234           
       2.195477             0.00756397821            0.000295241236           
       2.198118             0.00740754065             0.00028677819           
       2.200758             0.00731833699            0.000289472794           
       2.203398             0.00677613055             0.00027392391           
       2.206039             0.00712199531            0.000285120084           
       2.208679              0.0077173923             0.00029389353           
       2.211319             0.00755492999            0.000292152343           
       2.213960             0.00735005767            0.000285099988           
       2.216600             0.00687400661            0.000282208943           
       2.219241             0.00749746874            0.000290444296           
       2.221881             0.00723945611            0.000286890631           
       2.224521              0.0068411709            0.000277919906           
       2.227162             0.00782719648            0.000301943684           
       2.229802             0.00701068227            0.000281122428           
       2.232443             0.00701808153            0.000282376522           
       2.235083             0.00706915489            0.000281702776           
       2.237723             0.00696587091            0.000281780284           
       2.240364             0.00714667929            0.000283962116           
       2.243004             0.00755763742            0.000292894589           
       2.245644             0.00725603286            0.000286328048           
       2.248285             0.00712566584            0.000285586151           
       2.250925             0.00736471976            0.000288979426           
       2.253566              0.0074007948            0.000290394666           
       2.256206             0.00773634493            0.000296015533           
       2.258846             0.00698843945            0.000281345883           
       2.261487             0.00711820927            0.000284437242           
       2.264127             0.00725468731            0.000289868018           
       2.266767              0.0073240583            0.000286543139           
       2.269408             0.00714495544            0.000286379234           
       2.272048              0.0069975664            0.000281666712           
       2.274689             0.00687359856            0.000280258317           
       2.277329              0.0074557455            0.000291497271           
       2.279969             0.00699139203            0.000283129496           
       2.282610             0.00759486835            0.000292218272           
       2.285250             0.00684665413            0.000281814716           
       2.287891             0.00679780104            0.000277973842           
       2.290531             0.00766481207            0.000296624379           
       2.293171             0.00680940439            0.000279569145           
       2.295812             0.00690843269            0.000280100093           
       2.298452              0.0075744586            0.000295169821           
       2.301092             0.00717893646            0.000289185299           
       2.303733             0.00729165002            0.000285681986           
       2.306373             0.00686039413            0.000283882826           
       2.309014             0.00708032961            0.000282839923           
       2.311654             0.00711918107            0.000286306505           
       2.314294             0.00720513845            0.000287400951           
       2.316935              0.0068779936            0.000281910333           
       2.319575             0.00735544631            0.000290439251           
       2.322215             0.00704051163            0.000288202554           
       2.324856             0.00662772851            0.000272604254           
       2.327496             0.00734846928            0.000294078982           
       2.330137             0.00694831485            0.000280686185           
       2.332777               0.006903502            0.000282839585           
       2.335417             0.00718624991            0.000287707302           
       2.338058             0.00719671931            0.000289069132           
       2.340698             0.00690664549            0.000280395368           
       2.343339             0.00734772524            0.000294729194           
       2.345979             0.00711856087            0.000284307913           
       2.348619             0.00733198412             0.00029398736           
       2.351260             0.00732461583            0.000287593393           
       2.353900             0.00642896171            0.000275144144           
       2.356540             0.00701796316            0.000283518227           
       2.359181             0.00676598175            0.000282104372           
       2.361821             0.00705572642            0.000284571365           
       2.364462             0.00715829593            0.000291422758           
       2.367102             0.00755818184            0.000290792615           
       2.369742             0.00683848514            0.000286514111           
       2.372383             0.00660123725            0.000273294231           
       2.375023             0.00723395532            0.000293545885           
       2.377663             0.00715340714            0.000285703842           
       2.380304             0.00682892806            0.000283021148           
       2.382944             0.00716490436            0.000287064218           
       2.385585             0.00705963031            0.000287641295           
       2.388225             0.00702332323              0.0002856044           
       2.390865             0.00741588224            0.000294229126           
       2.393506             0.00706079241            0.000285775449           
       2.396146             0.00676359783            0.000280623587           
       2.398787             0.00698806167            0.000285491615           
       2.401427             0.00682323218            0.000280391605           
       2.404067              0.0071623896            0.000291660405           
       2.406708             0.00737903638            0.000292317677           
       2.409348             0.00719221737            0.000290764583           
       2.411988             0.00690331412            0.000283955098           
       2.414629             0.00660789485            0.000278721891           
       2.417269             0.00687180293            0.000281651996           
       2.419910             0.00690635069            0.000285919875           
       2.422550              0.0068856875            0.000281158125           
       2.425190             0.00712981074            0.000295106559           
       2.427831             0.00717556693            0.000284917843           
       2.430471             0.00660585901             0.00028136445           
       2.433112             0.00718018387            0.000286418997           
       2.435752             0.00700486917            0.000290062677           
       2.438392             0.00650313322            0.000274784001           
       2.441033             0.00757800307             0.00029798408           
       2.443673             0.00663376302            0.000279546355           
       2.446313             0.00690890109            0.000283764629           
       2.448954             0.00708946064            0.000289970982           
       2.451594             0.00682178059            0.000282737312           
       2.454235             0.00736608972            0.000292886469           
       2.456875             0.00707205078            0.000288434885           
       2.459515             0.00736492809            0.000294800675           
       2.462156             0.00788900549            0.000303536429           
       2.464796             0.00793495743            0.000309788909           
       2.467436             0.00749590285            0.000294782875           
       2.470077             0.00790953937            0.000306982552           
       2.472717             0.00799871957            0.000304845581           
       2.475358             0.00768853237             0.00030226236           
       2.477998              0.0076318947            0.000299540338           
       2.480638             0.00756667614            0.000298982425           
       2.483279             0.00718486475            0.000292593121           
       2.485919             0.00754919513            0.000297819778           
       2.488560             0.00731440847            0.000294367942           
       2.491200              0.0069320524            0.000286177828           
       2.493840             0.00733288687             0.00029273291           
       2.496481              0.0069964915            0.000289678725           
       2.499121             0.00730077199            0.000291970899           
       2.501761              0.0071688476            0.000294233757           
       2.504402             0.00696185357            0.000284398066           
       2.507042             0.00722746374            0.000294589464           
       2.509683             0.00641145127            0.000274934498           
       2.512323             0.00694787742            0.000287325613           
       2.514963              0.0101084559            0.000347259026           
       2.517604              0.0248472245            0.000542308622           
       2.520244              0.0432849221            0.000715930447           
       2.522884              0.0109864796             0.00035989908           
       2.525525             0.00908193585            0.000329908441           
       2.528165              0.0229156803            0.000521654055           
       2.530806              0.0291675653              0.0005863177           
       2.533446              0.0150370579            0.000424723968           
       2.536086              0.0165637988            0.000442023141           
       2.538727              0.0107139571            0.000357779379           
       2.541367              0.0103887825            0.000351300735           
       2.544008             0.00885099631            0.000324534263           
       2.546648             0.00816713513            0.000312098886           
       2.549288             0.00742672985            0.000297658764           
       2.551929             0.00771742669            0.000304430597           
       2.554569             0.00761859273            0.000299710871           
       2.557209             0.00717293154            0.000294098587           
       2.559850             0.00664029951            0.000279714819           
       2.562490             0.00739683137            0.000297368679           
       2.565131             0.00730857805            0.000296103659           
       2.567771             0.00705033789            0.000289283992           
       2.570411             0.00718482492            0.000295583736           
       2.573052             0.00717694118            0.000291973096           
       2.575692             0.00666410943            0.000282094581           
       2.578332             0.00739110937            0.000296205876           
       2.580973             0.00713247835            0.000293336535           
       2.583613             0.00667698469            0.000281229141           
       2.586254             0.00704176631            0.000291364211           
       2.588894             0.00723829651            0.000293826333           
       2.591534             0.00701842569            0.000289861464           
       2.594175             0.00707340909            0.000292683814           
       2.596815             0.00698814828            0.000288209717           
       2.599456             0.00716922576            0.000294308304           
       2.602096             0.00666704804            0.000282751484           
       2.604736              0.0069338259            0.000289109315           
       2.607377               0.007341189            0.000296343114           
       2.610017             0.00701271205            0.000289536207           
       2.612657             0.00724552927            0.000296382107           
       2.615298             0.00669101876             0.00028202914           
       2.617938             0.00746086113            0.000300417395           
       2.620579             0.00682389711            0.000284960504           
       2.623219             0.00668124278            0.000286476496           
       2.625859             0.00706261839            0.000289575189           
       2.628500              0.0068896035            0.000290577273           
       2.631140             0.00672494337            0.000282021314           
       2.633780              0.0066474329            0.000283992706           
       2.636421             0.00729395739            0.000294775771           
       2.639061             0.00692751508            0.000290710497           
       2.641702             0.00703553498            0.000289836406           
       2.644342             0.00666946921            0.000284510325           
       2.646982             0.00699136752            0.000291047987           
       2.649623             0.00725219151            0.000298204318           
       2.652263             0.00707788107            0.000292254562           
       2.654904             0.00680560093            0.000288134087           
       2.657544             0.00678087519            0.000285586679           
       2.660184             0.00727134664            0.000296113121           
       2.662825             0.00727126228            0.000296821159           
       2.665465             0.00685892351            0.000288815447           
       2.668105             0.00745262116            0.000301174976           
       2.670746             0.00720270085            0.000293576769           
       2.673386             0.00698799031             0.00029267253           
       2.676027             0.00701989173            0.000290846129           
       2.678667             0.00717557204            0.000295582192           
       2.681307              0.0072754195            0.000295291169           
       2.683948              0.0082516384            0.000317602092           
       2.686588              0.0076122301            0.000302249414           
       2.689229             0.00843317088            0.000320985414           
       2.691869             0.00782676731            0.000306143015           
       2.694509             0.00738352009             0.00030142568           
       2.697150             0.00700739779            0.000288961172           
       2.699790             0.00733849703            0.000301851626           
       2.702430             0.00711936638            0.000291610449           
       2.705071             0.00702556768            0.000293647657           
       2.707711             0.00655960982            0.000280929117           
       2.710352             0.00631368357              0.0002771814           
       2.712992             0.00692254408            0.000291182496           
       2.715632             0.00703403088             0.00029184825           
       2.718273             0.00704258125            0.000292995044           
       2.720913             0.00678402936             0.00028804655           
       2.723553               0.006845017            0.000288332992           
       2.726194             0.00697038242            0.000292364655           
       2.728834             0.00679549471            0.000286107517           
       2.731475             0.00665450849            0.000285598449           
       2.734115              0.0063932197            0.000278267238           
       2.736755             0.00698948166            0.000292877618           
       2.739396             0.00712636854            0.000294167847           
       2.742036             0.00728338115            0.000299420691           
       2.744677             0.00751205664            0.000304529391           
       2.747317              0.0070369233            0.000293309523           
       2.749957              0.0068322471            0.000291109095           
       2.752598             0.00703930564            0.000296377184           
       2.755238             0.00690126637            0.000293324591           
       2.757878             0.00666959676            0.000287538216           
       2.760519             0.00666670255            0.000284440496           
       2.763159             0.00689393868            0.000293950605           
       2.765800             0.00705286292            0.000292282963           
       2.768440             0.00653271751            0.000285004374           
       2.771080             0.00703753275            0.000293318516           
       2.773721             0.00636140839            0.000282293819           
       2.776361             0.00639300959            0.000279954666           
       2.779001             0.00695778265            0.000295128916           
       2.781642             0.00666453149            0.000286871623           
       2.784282             0.00689477742            0.000291886752           
       2.786923             0.00687475925            0.000289246041           
       2.789563             0.00597488557            0.000270193574           
       2.792203              0.0064159938            0.000281772051           
       2.794844             0.00640445479            0.000280237597           
       2.797484             0.00628725274            0.000278052797           
       2.800125             0.00639725208            0.000280112152           
       2.802765             0.00665303932            0.000290952794           
       2.805405             0.00644121448            0.000282151026           
       2.808046             0.00713700927            0.000301553664           
       2.810686             0.00671454795            0.000289375939           
       2.813326             0.00658787489            0.000290179617           
       2.815967             0.00620385415            0.000279820433           
       2.818607             0.00688844121            0.000297802896           
       2.821248             0.00686182306            0.000293520859           
       2.823888             0.00668839485            0.000294455393           
       2.826528             0.00677104191            0.000294501466           
       2.829169             0.00653063142            0.000287949079           
       2.831809             0.00678315752            0.000293720597           
       2.834449             0.00656289652             0.00028386951           
       2.837090             0.00693418332            0.000293544788           
       2.839730             0.00620127223            0.000275627137           
       2.842371             0.00607076799            0.000274611565           
       2.845011             0.00669903657            0.000287828303           
       2.847651             0.00682552959            0.000291066577           
       2.850292             0.00690286117            0.000291047648           
       2.852932              0.0064382028            0.000281585276           
       2.855573             0.00630178019            0.000281032674           
       2.858213             0.00669037302            0.000286318831           
       2.860853             0.00674393792            0.000289614351           
       2.863494             0.00676699934            0.000290807654           
       2.866134             0.00688181941            0.000297377959           
       2.868774             0.00666895529            0.000288261502           
       2.871415             0.00713028372            0.000301015197           
       2.874055             0.00668443935             0.00029289601           
       2.876696             0.00676151886            0.000291927312           
       2.879336             0.00633364361            0.000284415163           
       2.881976             0.00722293119            0.000303476516           
       2.884617             0.00626281535            0.000281017815           
       2.887257             0.00641522782              0.0002824336           
       2.889897              0.0065891016            0.000289516306           
       2.892538             0.00702485591            0.000296863622           
       2.895178             0.00646777208            0.000281944789           
       2.897819             0.00663099358            0.000288416364           
       2.900459             0.00693699155            0.000292553598           
       2.903099              0.0069068378            0.000293441283           
       2.905740             0.00685813104            0.000289140844           
       2.908380             0.00706096818            0.000297296589           
       2.911021             0.00696704588            0.000295874096           
       2.913661             0.00690298642            0.000291269693           
       2.916301             0.00678498027            0.000292877352           
       2.918942             0.00704401439             0.00029391367           
       2.921582             0.00681236396            0.000292072953           
       2.924222             0.00729619081            0.000300513646           
       2.926863             0.00708036723             0.00029682197           
       2.929503             0.00714981187            0.000301585164           
       2.932144             0.00692468038            0.000291931269           
       2.934784             0.00758755199            0.000306883355           
       2.937424             0.00676638005            0.000290337557           
       2.940065             0.00686024222            0.000292582312           
       2.942705             0.00618139185            0.000278573053           
       2.945346             0.00664547479            0.000287135061           
       2.947986             0.00742961706            0.000304664964           
       2.950626             0.00754836971            0.000308034368           
       2.953267             0.00923308687            0.000337060368           
       2.955907              0.0105645353            0.000365311695           
       2.958547             0.00860134204            0.000326246102           
       2.961188             0.00797110785            0.000316808205           
       2.963828             0.00765579104            0.000308719414           
       2.966469               0.006933091            0.000293860024           
       2.969109             0.00665031678            0.000289276851           
       2.971749             0.00721922791             0.00030050978           
       2.974390              0.0080127239            0.000317463209           
       2.977030             0.00986875471             0.00035164721           
       2.979670             0.00910429693            0.000335575446           
       2.982311             0.00809354386             0.00031868332           
       2.984951             0.00729347241            0.000303304336           
       2.987592             0.00732371798            0.000302906732           
       2.990232             0.00734223631            0.000304063903           
       2.992872             0.00750286927             0.00030496726           
       2.995513              0.0080143943            0.000317667638           
       2.998153             0.00830327499            0.000325428225           
       3.000794              0.0119740415            0.000385110016           
       3.003434              0.0324126098            0.000640327638           
       3.006074              0.0534217463            0.000824710814           
       3.008715              0.0275361542            0.000596607608           
       3.011355              0.0239908306            0.000562668991           
       3.013995              0.0208773575             0.00052232294           
       3.016636              0.0282052209            0.000608246495           
       3.019276               0.134176745             0.00135834455           
       3.021917               0.283833115             0.00194211107           
       3.024557               0.142202053             0.00138563509           
       3.027197               0.113008685             0.00125597354           
       3.029838              0.0979612075             0.00116377736           
       3.032478              0.0615720078            0.000928157939           
       3.035118              0.0423426472            0.000773657926           
       3.037759               0.094043319             0.00115501645           
       3.040399               0.137167682             0.00141088419           
       3.043040               0.056618565            0.000915256171           
       3.045680              0.0568087567            0.000902672574           
       3.048320                0.12977941             0.00138624247           
       3.050961               0.288600655             0.00208794055           
       3.053601              0.0770131356             0.00107380894           
       3.056242              0.0513973721            0.000882868056           
       3.058882               0.202226459             0.00177728561           
       3.061522               0.162355961             0.00158144064           
       3.064163              0.0243303875            0.000613313919           
       3.066803              0.0229380819            0.000607022344           
       3.069443              0.0347534155            0.000742203021           
       3.072084              0.0835865868             0.00116129122           
       3.074724              0.0256924426             0.00064763825           
       3.077365              0.0103551419            0.000410862755           
       3.080005             0.00934158604            0.000394565003           
       3.082645             0.00865926887            0.000381816363           
       3.085286             0.00881757116            0.000385360868           
       3.087926             0.00816326728            0.000373146678           
       3.090566             0.00800651008            0.000373353157           
       3.093207             0.00741526215            0.000355421538           
       3.095847             0.00712643588            0.000355734426           
       3.098488             0.00742289775            0.000362400056           
       3.101128             0.00799830973            0.000378233485           
       3.103768             0.00953668134            0.000415335781           
       3.106409              0.0103482186            0.000435544658           
       3.109049              0.0105090838            0.000442329005           
       3.111690              0.0117634005            0.000466139669           
       3.114330              0.0109902869            0.000454570537           
       3.116970              0.0132298251            0.000505677746           
       3.119611              0.0162738823            0.000557195062           
       3.122251              0.0123570476            0.000489509646           
       3.124891              0.0105598269            0.000454711148           
       3.127532             0.00862942264            0.000418457871           
       3.130172             0.00749244817            0.000381896281           
       3.132813             0.00771038478            0.000395295416           
       3.135453             0.00830342712            0.000418869077           
       3.138093             0.00697092516            0.000374684728           
       3.140734             0.00631998942            0.000363402011           
       3.143374             0.00616578825            0.000364428348           
       3.146014             0.00635997128            0.000367435728           
       3.148655             0.00619563134            0.000365512704           
       3.151295             0.00561738448            0.000350792885           
       3.153936             0.00650573934            0.000383086171           
       3.156576             0.00700754611            0.000393021973           
       3.159216              0.0060887077            0.000369346487           
       3.161857             0.00639110823            0.000383049324           
       3.164497             0.00706741381            0.000411300187           
       3.167138             0.00643960551            0.000383187938           
       3.169778             0.00613142167            0.000380657891           
       3.172418             0.00548669258            0.000362192889           
       3.175059             0.00619600709             0.00038993052           
       3.177699             0.00546482159            0.000364754366           
       3.180339              0.0057837567            0.000378601395           
       3.182980             0.00557484781            0.000376718882           
       3.185620             0.00645010253            0.000409641812           
       3.188261             0.00606312803            0.000391960122           
       3.190901             0.00558977283            0.000382147995           
       3.193541              0.0060180055             0.00039782267           
       3.196182             0.00557920022            0.000391014295           
       3.198822             0.00630002376             0.00041046947           
       3.201463              0.0057542424             0.00039735987           
       3.204103             0.00518309509            0.000382146167           
       3.206743             0.00595686975            0.000413142952           
       3.209384             0.00570500659            0.000402512206           
       3.212024             0.00582765161            0.000408260947           
       3.214664             0.00590058983             0.00041863801           
       3.217305             0.00603712465            0.000433333145           
       3.219945             0.00600055048            0.000428405984           
       3.222586              0.0054413014            0.000410262891           
       3.225226             0.00558437093            0.000424984738           
       3.227866             0.00551745803             0.00042569896           
       3.230507             0.00552034138            0.000430891287           
       3.233147             0.00665863198            0.000466235753           
       3.235787             0.00590632901            0.000439227903           
       3.238428             0.00619550806            0.000457796823           
       3.241068             0.00655666376            0.000480500837           
       3.243709              0.0057116788            0.000445982014           
       3.246349             0.00540741386            0.000431512658           
       3.248989             0.00543784282            0.000442615863           
       3.251630             0.00551825719            0.000447849171           
       3.254270             0.00645931429            0.000499427671           
       3.256911             0.00590226774            0.000465445203           
       3.259551             0.00586458829            0.000474209344           
       3.262191             0.00656514267            0.000506349754           
       3.264832             0.00517662623            0.000453845392           
       3.267472             0.00659146903            0.000519387279           
       3.270112             0.00572644468            0.000485486665           
       3.272753             0.00603956203            0.000504710185           
       3.275393             0.00634697412             0.00052005875           
       3.278034             0.00532733422            0.000486163262           
       3.280674             0.00589158827            0.000512745634           
       3.283314              0.0057296417            0.000508443378           
       3.285955             0.00526036484            0.000496327709           
       3.288595             0.00504397254            0.000491433933           
       3.291235             0.00586644589            0.000533101653           
       3.293876             0.00558380073            0.000523180301           
       3.296516             0.00733962836            0.000612057725           
       3.299157             0.00615985117            0.000569187633           
       3.301797             0.00590274257            0.000557419023           
       3.304437             0.00624200319            0.000583958755           
       3.307078             0.00523366164            0.000539910315           
       3.309718             0.00636387961            0.000601303185           
       3.312359             0.00492291355            0.000539549577           
       3.314999             0.00622639982            0.000613156005           
       3.317639             0.00490346361            0.000549990816           
       3.320280              0.0049770624            0.000562194605           
       3.322920             0.00572059729            0.000611745141           
       3.325560             0.00552820231            0.000612982343           
       3.328201             0.00448990408            0.000554761776           
       3.330841             0.00570004643            0.000640270054           
       3.333482              0.0055630688            0.000640561406           
       3.336122              0.0053398461            0.000641218453           
       3.338762             0.00473732414            0.000609484055           
       3.341403             0.00596122185            0.000690039248           
       3.344043             0.00495188823            0.000652918386           
       3.346683              0.0054966991            0.000694875674           
       3.349324              0.0045636438            0.000642959161           
       3.351964             0.00457422435            0.000664398149           
       3.354605             0.00548212095            0.000735587327           
       3.357245             0.00512829453            0.000736460657           
       3.359885             0.00471688814            0.000706556557           
       3.362526             0.00369033226            0.000656914409           
       3.365166              0.0047306921            0.000734586812           
       3.367807             0.00685844866            0.000946817218           
       3.370447             0.00518463749            0.000823532504           
       3.373087             0.00575363381            0.000915606969           
       3.375728             0.00352467986            0.000711217437           
       3.378368             0.00496377841            0.000912018404           
       3.381008             0.00488020993             0.00089642353           
       3.383649             0.00531944035             0.00101285097           
       3.386289             0.00436151269             0.00091750876           
       3.388930             0.00573121695             0.00115508804           
       3.391570             0.00413624453            0.000981695571           
       3.394210             0.00476862995             0.00112941579           
       3.396851             0.00674751407              0.0014552983           
       3.399491             0.00477786727             0.00124683386           
       3.402131             0.00307719055             0.00118444949           
       3.404772             0.00840305414             0.00195814127           
       3.407412             0.00542246767             0.00195187332           
       3.410053             0.00365757544             0.00166923153           
       3.412693              0.0101431216             0.00393280829           
       3.415333              0.0104848866             0.00489915354           
