################################################################################
# EDF_DataBlockID                     0.Image.Psd
# EDF_BinarySize                      2105344
# EDF_HeaderSize                      2560
# ByteOrder                           LowByteFirst
# DataType                            FloatValue
# Dim_1                               512
# Dim_2                               1028
# Image                               0
# HeaderID                            EH:000000:000000:000000
# Size                                2105344
# Center_1                            304.9000
# Center_2                            588.7000
# Comment                             Xenocs_Cell_Window - front_window_open_only
# DDummy                              0.6
# Date                                2025-10-19T16:01:05
# Delta                               21.910000
# Dummy                               -1.5
# ExposureTime                        360
# Gamma                               15.360000
# Intensity1                          8.89987e-10
# PSize_1                             7.5e-05
# PSize_2                             7.5e-05
# Pressure                            0.0327978
# SampleDistance                      0.115750
# SampleEnvKind                       large
# SampleEnvPN                         ElectroChemical cell
# SampleEnvSN                         1141
# Thickness                           0
# Wavelength                          1.541891e-10
# Wavelength                          1.54189e-10
# aux                                 0
# aux_dial                            0.002375
# beamx                               588.429
# beamx_dial                          588.429
# beamz                               657.855
# beamz_dial                          657.855
# det0x                               -0.000396875
# det0x_dial                          6.36905
# det0xvd                             -0.0005
# det0xvd_dial                        -0.0005
# det0y                               450.002
# det0y_dial                          481.635
# det0z                               0
# det0z_dial                          1.2295
# det0zvd                             0
# det0zvd_dial                        0
# mag                                 1.818
# mag_dial                            1.818
# om                                  0.2499
# om_dial                             -0.610199
# phi                                 -0.0120535
# phi_dial                            0
# ry                                  0.599993
# ry_dial                             0.599993
# s1bot                               0.8
# s1bot_dial                          -1.66094
# s1hl                                0.8
# s1hl_dial                           -0.608437
# s1hr                                0.8
# s1hr_dial                           0.970938
# s1top                               0.8
# s1top_dial                          -0.461562
# s2bot                               0.45
# s2bot_dial                          1.36109
# s2hl                                0.45
# s2hl_dial                           -0.83375
# s2hr                                0.45
# s2hr_dial                           -0.118594
# s2top                               0.45
# s2top_dial                          1.44734
# w2theta                             32
# w2theta_dial                        32
# waxsch                              19.2605
# waxsch_dial                         -32.7238
# waxsh                               137.085
# waxsh_dial                          -43.5335
# waxsth                              26.0607
# waxsth_dial                         -19.4068
# waxsz                               67.0407
# waxsz_dial                          -23.7962
# wind                                65.9854
# wind_dial                           66.0041
# wpsi                                124
# wpsi_dial                           124
# wstod                               115
# wstod_dial                          115
# x                                   0
# x_dial                              1.00969
# z                                   0
# z_dial                              13.3172
# CountCutoff                         6807993
# DetectorModel                       Dectris EIGER2 Si 500K, S/N E-01-0554
# ThresholdSetting                    4023.88989258
# Saturation                          0
# FlatField                           Corrected
# BackgroundReductionExtra            0.02
# BackgroundCorrectionConstant        0.0026712
# Detector                            0
# Monitor                             0
# Pil_Roi0                            0
# SumForIntensity1                    3.20395e+08
# TransmittedFlux                     889987
# det                                 0
# mon                                 0
# pilai0                              3.20395e+08
# pilai1                              694269
# pilct0                              5.5419e+08
# pilct1                              694269
# pilroi0                             0
# pilroi1                             0
# sec                                 1
# title                               20251017__1_00417.edf
# usaxs0                              0
# Operation                           Azimuthal average I(q)
# Error_model                         ErrorModel.poisson
# Geometrical_correction              True
# Transmission_correction             True
# Thickness_correction                False
# Binning mode                        Uniform
# Binning factor                      1.0
# Psi                                 0.0
# Omega                               0.2499
# MaskInvalidPixels                   True
# DetectorEdge                        3
# MaskFiles                           ['20251017__1_00233_mask.edf']
################################################################################
    q(A⁻¹)                Intensity(a.u.)            Sigma_I(a.u.)            
       0.690460              0.0232929401              0.0141066932           
       0.693100             0.00478722151             0.00285918709           
       0.695741             0.00706117633             0.00293363083           
       0.698381             0.00517960792              0.0023499658           
       0.701021             0.00618411938             0.00209564105           
       0.703662              0.0058528606             0.00188714119           
       0.706302             0.00556392587             0.00177699753           
       0.708942              0.0052567964               0.001534266           
       0.711583              0.0101579456             0.00213237448           
       0.714223             0.00934391179             0.00178216998           
       0.716864             0.00557461596             0.00140470117           
       0.719504             0.00781029971             0.00153881774           
       0.722144             0.00807090409             0.00151077615           
       0.724785             0.00431762947             0.00108688756           
       0.727425             0.00624897961             0.00121284234           
       0.730065             0.00837014298             0.00144430128           
       0.732706             0.00677136655             0.00116817354           
       0.735346             0.00788983266             0.00136205749           
       0.737987             0.00677720521             0.00109263424           
       0.740627             0.00673176806             0.00119294895           
       0.743267              0.0047960602            0.000866134077           
       0.745908             0.00802124557             0.00120045773           
       0.748548             0.00650703572             0.00100843467           
       0.751189             0.00682545962             0.00102308365           
       0.753829             0.00698574669             0.00104436358           
       0.756469             0.00681744643            0.000970367402           
       0.759110              0.0056747928            0.000915722592           
       0.761750             0.00552564501            0.000826986831           
       0.764390             0.00777174013             0.00105280032           
       0.767031             0.00717414832             0.00091530303           
       0.769671               0.007034188            0.000961193594           
       0.772312              0.0079916904             0.00093361846           
       0.774952             0.00833719345             0.00102229528           
       0.777592             0.00656453636            0.000829704655           
       0.780233             0.00683046147            0.000892222909           
       0.782873             0.00715144199            0.000834841312           
       0.785513             0.00700531107             0.00087895215           
       0.788154             0.00710799412              0.0008132238           
       0.790794              0.0060094723            0.000773896738           
       0.793435             0.00685828944            0.000794082609           
       0.796075             0.00673449995             0.00079104091           
       0.798715             0.00491121345            0.000671667393           
       0.801356             0.00603021254            0.000724344786           
       0.803996             0.00570527756            0.000715818305           
       0.806637             0.00732235115            0.000766554091           
       0.809277             0.00627780302            0.000742541553           
       0.811917             0.00693938598            0.000738757633           
       0.814558             0.00729617514             0.00077602165           
       0.817198             0.00673065139            0.000710682857           
       0.819838             0.00617331257            0.000709962333           
       0.822479             0.00620925182            0.000656170355           
       0.825119             0.00636452196            0.000713654486           
       0.827760             0.00683939497             0.00068550006           
       0.830400             0.00679449347            0.000719886347           
       0.833040             0.00671444576            0.000667889659           
       0.835681             0.00630712651            0.000677876405           
       0.838321             0.00609220101            0.000623575563           
       0.840961             0.00637067067            0.000666518297           
       0.843602             0.00671783067            0.000644713314           
       0.846242              0.0052766231            0.000591560388           
       0.848883             0.00812501843            0.000714078242           
       0.851523             0.00690845667            0.000663386661           
       0.854163             0.00810294926            0.000710105297           
       0.856804             0.00682777544            0.000635161047           
       0.859444             0.00703510895            0.000649368158           
       0.862085             0.00684401842            0.000631171449           
       0.864725             0.00741287827             0.00065446709           
       0.867365              0.0072046479            0.000640588861           
       0.870006              0.0068150526             0.00063172064           
       0.872646             0.00723640094            0.000622626084           
       0.875286             0.00790172976            0.000672788184           
       0.877927             0.00674061962            0.000594959351           
       0.880567             0.00722600809            0.000628042541           
       0.883208             0.00690314712            0.000596123549           
       0.885848             0.00678828587            0.000606473574           
       0.888488             0.00629305268             0.00055521475           
       0.891129             0.00592187768            0.000566156654           
       0.893769             0.00679014327            0.000573049785           
       0.896410             0.00704948075            0.000601876362           
       0.899050             0.00651222861            0.000557774702           
       0.901690             0.00618257765            0.000554818311           
       0.904331             0.00687332193            0.000564567479           
       0.906971              0.0075889133            0.000612565623           
       0.909611              0.0067050062            0.000552659437           
       0.912252             0.00722156985            0.000583491925           
       0.914892             0.00735296106             0.00057386311           
       0.917533             0.00772240325            0.000601372996           
       0.920173             0.00699938565            0.000549197879           
       0.922813             0.00697439711            0.000572896191           
       0.925454             0.00661195309            0.000529396335           
       0.928094             0.00756568506            0.000578446987           
       0.930734             0.00753428523            0.000563469017           
       0.933375             0.00673676372            0.000544170988           
       0.936015             0.00708320409            0.000533891917           
       0.938656             0.00726673742            0.000563447225           
       0.941296             0.00671753986             0.00052223303           
       0.943936             0.00622999623            0.000511982409           
       0.946577              0.0073420673            0.000535271956           
       0.949217             0.00799355822            0.000578240355           
       0.951858              0.0069280504            0.000508922204           
       0.954498             0.00820401481            0.000582629908           
       0.957138             0.00730223598            0.000528321052           
       0.959779             0.00643083178            0.000506641102           
       0.962419             0.00754363534            0.000528258128           
       0.965059             0.00700886822            0.000523653165           
       0.967700             0.00683886418            0.000500536221           
       0.970340             0.00763795781            0.000543835274           
       0.972981             0.00751308678            0.000520778633           
       0.975621             0.00689857029            0.000509475105           
       0.978261              0.0069175061            0.000486769826           
       0.980902             0.00710398165            0.000516775083           
       0.983542             0.00744475127            0.000513620752           
       0.986182              0.0073218982            0.000516073208           
       0.988823             0.00753103902            0.000506504263           
       0.991463             0.00714358658            0.000505085597           
       0.994104             0.00777178268            0.000509068031           
       0.996744             0.00828227581            0.000542563353           
       0.999384             0.00815354248            0.000520059117           
       1.002025             0.00823303076            0.000537138338           
       1.004665             0.00770874463            0.000498464134           
       1.007306               0.008475961             0.00054019483           
       1.009946             0.00780340182             0.00049838098           
       1.012586             0.00677547992            0.000477755716           
       1.015227             0.00754655177            0.000488946355           
       1.017867             0.00757886013            0.000504033412           
       1.020507             0.00884083044             0.00052388859           
       1.023148             0.00713034752            0.000476169905           
       1.025788              0.0074783222            0.000482657091           
       1.028429             0.00755736549            0.000495808008           
       1.031069             0.00863853429            0.000510713984           
       1.033709              0.0078354763            0.000495736707           
       1.036350              0.0075003658            0.000472301772           
       1.038990             0.00796197158            0.000498632099           
       1.041630             0.00760019238            0.000477799414           
       1.044271             0.00857098629            0.000507454938           
       1.046911             0.00834935555            0.000491545297           
       1.049552             0.00756077379            0.000484613736           
       1.052192             0.00787891642            0.000472458341           
       1.054832             0.00834479886            0.000495681707           
       1.057473             0.00757970259            0.000466431543           
       1.060113             0.00833418902            0.000494391581           
       1.062754             0.00760675659            0.000467099134           
       1.065394              0.0079713981            0.000473132728           
       1.068034             0.00779842558            0.000466159531           
       1.070675             0.00768050175            0.000470758563           
       1.073315             0.00780145739             0.00045994852           
       1.075955             0.00802861743             0.00047442225           
       1.078596             0.00784511332            0.000468042182           
       1.081236             0.00774546322            0.000458162287           
       1.083877              0.0082443154            0.000487452361           
       1.086517              0.0082901671            0.000477748538           
       1.089157             0.00834791868            0.000482924615           
       1.091798             0.00743060826            0.000445966281           
       1.094438             0.00779602843             0.00046406043           
       1.097078             0.00827514249            0.000465821342           
       1.099719             0.00898906833            0.000497942578           
       1.102359             0.00867419068            0.000463375222           
       1.105000             0.00798884623            0.000462206711           
       1.107640             0.00876493011            0.000468355498           
       1.110280             0.00894985091            0.000482746879           
       1.112921             0.00806410099            0.000449944892           
       1.115561             0.00899334396            0.000481192389           
       1.118202             0.00760704735            0.000429637207           
       1.120842             0.00810406268            0.000457422682           
       1.123482             0.00751047735            0.000427999481           
       1.126123             0.00801428295            0.000444880894           
       1.128763             0.00838536598            0.000452806856           
       1.131403              0.0080851046            0.000443934762           
       1.134044             0.00855518041            0.000455865228           
       1.136684             0.00835688004            0.000453936972           
       1.139325             0.00921222578            0.000463173408           
       1.141965             0.00866513371            0.000455084494           
       1.144605             0.00858186962            0.000455552968           
       1.147246             0.00818507265            0.000436470888           
       1.149886             0.00895439331            0.000459769139           
       1.152527             0.00824350402            0.000441583274           
       1.155167             0.00870329198            0.000447351548           
       1.157807             0.00830622205            0.000437328748           
       1.160448             0.00875569951            0.000455148955           
       1.163088               0.008597943            0.000434296902           
       1.165728             0.00872260261            0.000455464159           
       1.168369             0.00833326513            0.000429290388           
       1.171009             0.00927041945            0.000456540266           
       1.173650             0.00837052628            0.000430687908           
       1.176290             0.00850343767            0.000439187303           
       1.178930             0.00914007941            0.000442531406           
       1.181571             0.00971533056            0.000471146439           
       1.184211              0.0091619844            0.000443714242           
       1.186851             0.00850892559            0.000431550914           
       1.189492             0.00876909149            0.000440531478           
       1.192132             0.00975653232            0.000457791034           
       1.194773             0.00949900064            0.000448983556           
       1.197413              0.0087415447            0.000434224085           
       1.200053             0.00920964643            0.000442894407           
       1.202694             0.00864218663             0.00042579977           
       1.205334             0.00873326304            0.000432716656           
       1.207975              0.0100865255            0.000455923789           
       1.210615              0.0100956795            0.000465776038           
       1.213255             0.00873474771            0.000421784342           
       1.215896             0.00963202574            0.000451314331           
       1.218536             0.00957014118            0.000436905067           
       1.221176             0.00919083629            0.000438378992           
       1.223817             0.00939374502            0.000433956642           
       1.226457             0.00919851922               0.000434878           
       1.229098             0.00928220103            0.000430224224           
       1.231738               0.008810771            0.000425058995           
       1.234378             0.00922598999            0.000426508008           
       1.237019             0.00901557369            0.000425017014           
       1.239659             0.00951706869            0.000436441654           
       1.242299              0.0102660374            0.000450972502           
       1.244940             0.00991522091            0.000438416057           
       1.247580              0.0101470844            0.000445470833           
       1.250221             0.00969962432            0.000442647508           
       1.252861             0.00994371401            0.000431484784           
       1.255501              0.0101794021            0.000448894545           
       1.258142             0.00993418088            0.000434687593           
       1.260782              0.0098502526            0.000437736787           
       1.263423              0.0104164023            0.000441222556           
       1.266063              0.0101420216            0.000443487363           
       1.268703              0.0104275043             0.00043835596           
       1.271344             0.00961409199            0.000430079029           
       1.273984              0.0100144522            0.000432090372           
       1.276624              0.0103718251            0.000437049511           
       1.279265             0.00926995474            0.000414084548           
       1.281905             0.00972633658             0.00042676968           
       1.284546             0.00980488119            0.000423808396           
       1.287186              0.0107169361            0.000443507258           
       1.289826              0.0103375882             0.00043784593           
       1.292467              0.0103040481            0.000429333034           
       1.295107              0.0104370899             0.00043971214           
       1.297747              0.0105957522            0.000431420963           
       1.300388              0.0105906675            0.000442393335           
       1.303028               0.010467227            0.000428623649           
       1.305669              0.0100724472            0.000425895394           
       1.308309              0.0104179337            0.000426625276           
       1.310949              0.0100972249            0.000425242219           
       1.313590              0.0100142638            0.000416937799           
       1.316230             0.00931361415            0.000409325382           
       1.318871             0.00968589969            0.000408420679           
       1.321511              0.0106156213            0.000429715877           
       1.324151              0.0102323084            0.000423553438           
       1.326792              0.0105598063             0.00042679274           
       1.329432              0.0109176415            0.000436227441           
       1.332072              0.0108947005            0.000428296507           
       1.334713              0.0105538174            0.000426770721           
       1.337353              0.0103204535            0.000415534265           
       1.339994              0.0104710428            0.000424516599           
       1.342634              0.0106383819            0.000418262315           
       1.345274              0.0106778529             0.00042451572           
       1.347915              0.0105447475            0.000422983056           
       1.350555              0.0108264289            0.000426920954           
       1.353195              0.0105102531            0.000412593819           
       1.355836              0.0100113953            0.000410280909           
       1.358476              0.0110460371            0.000429748223           
       1.361117              0.0103463766            0.000405481759           
       1.363757              0.0112401476            0.000436639143           
       1.366397             0.00969665461            0.000392923743           
       1.369038              0.0106761959              0.0004209826           
       1.371678              0.0104832862            0.000408738472           
       1.374319             0.00989117891            0.000400176584           
       1.376959              0.0106427151            0.000409386413           
       1.379599              0.0108233159            0.000420892499           
       1.382240               0.010738413            0.000411275578           
       1.384880              0.0105313012            0.000412290822           
       1.387520               0.010861158            0.000413802494           
       1.390161              0.0108831968            0.000413096273           
       1.392801              0.0103861837            0.000405958678           
       1.395442              0.0110083634            0.000413610768           
       1.398082              0.0107891719            0.000410873545           
       1.400722              0.0102530483            0.000398725686           
       1.403363              0.0101204721            0.000399815546           
       1.406003              0.0108384068            0.000403594028           
       1.408644              0.0108556848            0.000412395286           
       1.411284              0.0110221253            0.000413265781           
       1.413924              0.0102148267            0.000392936641           
       1.416565              0.0106117624            0.000400027597           
       1.419205              0.0102683427            0.000397377667           
       1.421845               0.010816168            0.000402712897           
       1.424486              0.0102535125            0.000393829494           
       1.427126              0.0106129959            0.000400420958           
       1.429767              0.0101556422            0.000385662119           
       1.432407               0.010030581            0.000392935524           
       1.435047              0.0101747358            0.000383856496           
       1.437688              0.0103671516            0.000396049533           
       1.440328              0.0105036062            0.000390922172           
       1.442968             0.00970405041             0.00038095028           
       1.445609              0.0101109967            0.000382460028           
       1.448249               0.010439052            0.000391127766           
       1.450890              0.0107044482            0.000393243094           
       1.453530              0.0104333038            0.000391106386           
       1.456170             0.00980409002            0.000378275984           
       1.458811             0.00962304934            0.000371785551           
       1.461451              0.0104892657            0.000391011444           
       1.464092              0.0105968048            0.000389584977           
       1.466732             0.00986471761            0.000373581266           
       1.469372              0.0107975457            0.000389644234           
       1.472013               0.010199639            0.000385477794           
       1.474653              0.0105041932            0.000381531334           
       1.477293              0.0104635148            0.000387201465           
       1.479934             0.00980408998            0.000370879099           
       1.482574              0.0103626554            0.000380356721           
       1.485215              0.0108880795            0.000390884163           
       1.487855              0.0103403347            0.000380846533           
       1.490495             0.00991574599            0.000372142819           
       1.493136              0.0100495067            0.000369731326           
       1.495776              0.0105894021            0.000386150062           
       1.498416               0.010338911            0.000374143019           
       1.501057              0.0101914067            0.000374659581           
       1.503697              0.0103120556            0.000373247221           
       1.506338              0.0102775697            0.000375362885           
       1.508978               0.010607216            0.000379083601           
       1.511618             0.00988506768            0.000365767048           
       1.514259              0.0099719603            0.000368034622           
       1.516899              0.0104009958             0.00037604348           
       1.519540              0.0102682055             0.00037156183           
       1.522180              0.0102325517             0.00036628407           
       1.524820              0.0104323917            0.000377313439           
       1.527461             0.00995551331            0.000360434943           
       1.530101              0.0101245734            0.000367240589           
       1.532741             0.00998444983            0.000362962587           
       1.535382                0.01054886            0.000373902115           
       1.538022             0.00977586684            0.000356757614           
       1.540663              0.0105662958            0.000374405516           
       1.543303              0.0100195105            0.000360052401           
       1.545943              0.0100629342            0.000362854001           
       1.548584             0.00987488148            0.000361361639           
       1.551224              0.0101228953            0.000356491526           
       1.553864             0.00957908135            0.000355842946           
       1.556505               0.010240037            0.000362255113           
       1.559145              0.0108893876            0.000374428012           
       1.561786             0.00967291667            0.000351296149           
       1.564426             0.00977790695            0.000352878472           
       1.567066              0.0102588599            0.000358631756           
       1.569707              0.0104624883            0.000367416867           
       1.572347             0.00961175845            0.000347593398           
       1.574988             0.00910671041            0.000336999586           
       1.577628             0.00893209279             0.00034126741           
       1.580268             0.00917429699             0.00033392772           
       1.582909             0.00903061945            0.000337499307           
       1.585549             0.00870559599             0.00032827338           
       1.588189             0.00955648391            0.000347783702           
       1.590830                0.00926826             0.00033661976           
       1.593470             0.00947820704            0.000343190903           
       1.596111             0.00898901685            0.000331329294           
       1.598751             0.00880478244            0.000331268543           
       1.601391             0.00887257209            0.000330415225           
       1.604032             0.00915676916            0.000332862185           
       1.606672             0.00876788262            0.000332272834           
       1.609312             0.00863455303            0.000319925412           
       1.611953             0.00861234086            0.000324144153           
       1.614593             0.00877295249            0.000324664442           
       1.617234             0.00836262283            0.000318777668           
       1.619874             0.00901205606            0.000327031168           
       1.622514             0.00864370173            0.000323110572           
       1.625155             0.00859641188             0.00032142861           
       1.627795             0.00858100614             0.00031789529           
       1.630436             0.00907038088            0.000330119542           
       1.633076             0.00856480907              0.0003191576           
       1.635716             0.00837603853            0.000315070444           
       1.638357             0.00886166303            0.000322698412           
       1.640997             0.00885368696            0.000325075641           
       1.643637             0.00855044261             0.00031352805           
       1.646278              0.0083998571            0.000315406444           
       1.648918             0.00893346036            0.000321076942           
       1.651559             0.00845069184            0.000316207253           
       1.654199             0.00883648746            0.000318912357           
       1.656839             0.00863549394            0.000315179642           
       1.659480             0.00786546693            0.000303448511           
       1.662120             0.00890272098            0.000318511479           
       1.664761             0.00791711094            0.000303615526           
       1.667401             0.00851573686            0.000311951394           
       1.670041             0.00841964468            0.000310541329           
       1.672682             0.00894546165            0.000317079316           
       1.675322             0.00829539437            0.000310739666           
       1.677962              0.0082025398            0.000302858981           
       1.680603             0.00863232246            0.000313449405           
       1.683243             0.00833280001             0.00030568517           
       1.685884              0.0085694733            0.000311175548           
       1.688524             0.00835788267            0.000306445274           
       1.691164             0.00844141605            0.000307181281           
       1.693805             0.00820825927            0.000305358829           
       1.696445               0.007837781            0.000294246672           
       1.699085             0.00806836044            0.000299735418           
       1.701726             0.00866245751            0.000306534821           
       1.704366             0.00842824363            0.000309719567           
       1.707007             0.00820095663            0.000298995378           
       1.709647             0.00790742519            0.000297243692           
       1.712287             0.00884599133            0.000309135671           
       1.714928             0.00781236236            0.000293435207           
       1.717568             0.00829634975            0.000299607359           
       1.720209             0.00872784791            0.000309197595           
       1.722849             0.00835194074            0.000302950733           
       1.725489             0.00804186337            0.000292535608           
       1.728130             0.00853227859            0.000307457438           
       1.730770             0.00852439886             0.00030081954           
       1.733410             0.00886156813             0.00031073747           
       1.736051              0.0081359987            0.000293122949           
       1.738691             0.00827083318            0.000298558511           
       1.741332             0.00821133711            0.000295651487           
       1.743972             0.00890077981            0.000307927311           
       1.746612             0.00871358223            0.000304742095           
       1.749253             0.00859070348            0.000303893389           
       1.751893              0.0090772041            0.000310505677           
       1.754533             0.00808362409             0.00028899788           
       1.757174             0.00798062442            0.000292519561           
       1.759814             0.00817551676            0.000291556037           
       1.762455             0.00840025758            0.000298052264           
       1.765095             0.00836101335            0.000293179393           
       1.767735             0.00865777348            0.000303406427           
       1.770376              0.0083274593            0.000293049712           
       1.773016             0.00819494089            0.000291167449           
       1.775657             0.00845628922            0.000296379856           
       1.778297             0.00854887594            0.000299455762           
       1.780937             0.00788421393            0.000286237157           
       1.783578             0.00873341916            0.000299843638           
       1.786218             0.00882136169            0.000306158307           
       1.788858             0.00852393258             0.00029347545           
       1.791499             0.00821899099            0.000293489302           
       1.794139              0.0084898015            0.000292777135           
       1.796780             0.00875578167            0.000299094707           
       1.799420             0.00889130491            0.000301016803           
       1.802060             0.00886258607            0.000296833931           
       1.804701             0.00923822891            0.000307125131           
       1.807341             0.00885749951            0.000297824029           
       1.809981             0.00955012339            0.000311303055           
       1.812622             0.00933318693            0.000306070345           
       1.815262             0.00902275107            0.000302010132           
       1.817903             0.00835826867            0.000287085506           
       1.820543             0.00867321141            0.000296058867           
       1.823183             0.00891025826            0.000295453769           
       1.825824              0.0087689664            0.000297509631           
       1.828464             0.00922236657            0.000304167967           
       1.831105             0.00853021284            0.000293663742           
       1.833745             0.00886592518            0.000299199776           
       1.836385             0.00849068925            0.000291660959           
       1.839026              0.0089173028            0.000303391552           
       1.841666             0.00905876224            0.000301817931           
       1.844306             0.00844058197            0.000295015817           
       1.846947             0.00862503261            0.000294389478           
       1.849587             0.00887313886            0.000302643418           
       1.852228             0.00887085367            0.000299385994           
       1.854868             0.00940620757            0.000313941807           
       1.857508             0.00897121243            0.000300935421           
       1.860149             0.00849316353            0.000295154683           
       1.862789              0.0084426065            0.000295577037           
       1.865429             0.00785777028            0.000286015425           
       1.868070             0.00827585339            0.000292511476           
       1.870710             0.00896396496            0.000305258461           
       1.873351             0.00886863138            0.000305569286           
       1.875991              0.0092561099            0.000313861868           
       1.878631             0.00861011495            0.000299897825           
       1.881272             0.00856983901            0.000298494725           
       1.883912             0.00869107361            0.000304124026           
       1.886553             0.00889187354            0.000303927211           
       1.889193             0.00906157399            0.000310357911           
       1.891833             0.00847443329            0.000296719286           
       1.894474             0.00875260365            0.000303936432           
       1.897114             0.00889336481            0.000303994244           
       1.899754              0.0093322934            0.000314898026           
       1.902395             0.00859788997             0.00030231818           
       1.905035              0.0089608395            0.000307423713           
       1.907676             0.00856374695            0.000300884299           
       1.910316             0.00882617196            0.000307407278           
       1.912956             0.00889388833             0.00030857201           
       1.915597             0.00911875711            0.000309191154           
       1.918237             0.00896629411            0.000311249521           
       1.920878             0.00880969347            0.000303059439           
       1.923518             0.00887254839            0.000312219182           
       1.926158             0.00855966479            0.000299617837           
       1.928799             0.00823839333            0.000297847287           
       1.931439              0.0087802378            0.000305021953           
       1.934079             0.00854469863            0.000303950076           
       1.936720             0.00870813048            0.000305037088           
       1.939360             0.00875458094            0.000308797285           
       1.942001             0.00846911445             0.00030255257           
       1.944641             0.00884100214            0.000307791855           
       1.947281             0.00851428322            0.000303510412           
       1.949922             0.00875584499            0.000308171031           
       1.952562             0.00814558934            0.000299795547           
       1.955202             0.00873538652            0.000302659305           
       1.957843               0.008543143            0.000308818507           
       1.960483             0.00830713011            0.000299665551           
       1.963124             0.00847465485            0.000302447605           
       1.965764             0.00860394583            0.000304854926           
       1.968404             0.00821538271             0.00030321856           
       1.971045             0.00768688904            0.000285951171           
       1.973685             0.00890000645            0.000313430703           
       1.976326             0.00825495315            0.000300542626           
       1.978966             0.00805810661            0.000298342761           
       1.981606             0.00785659865            0.000291473394           
       1.984247             0.00829940107            0.000302186811           
       1.986887             0.00833642853             0.00030569262           
       1.989527             0.00779953351            0.000289524847           
       1.992168             0.00769328796            0.000294483755           
       1.994808             0.00811408269            0.000298912409           
       1.997449             0.00791159761            0.000294726356           
       2.000089              0.0077139374            0.000289307771           
       2.002729             0.00806083688            0.000302518135           
       2.005370             0.00805441347            0.000296649165           
       2.008010             0.00800355276            0.000299637123           
       2.010650             0.00829384817            0.000304150186           
       2.013291             0.00726712706            0.000286323096           
       2.015931              0.0079058276            0.000296503073           
       2.018572             0.00779504949            0.000298328618           
       2.021212             0.00835959162            0.000306170079           
       2.023852             0.00770075699            0.000295401295           
       2.026493             0.00805975629            0.000300884096           
       2.029133             0.00769761585            0.000291803636           
       2.031774             0.00733035461            0.000287518919           
       2.034414             0.00793093967            0.000297280691           
       2.037054              0.0077517469            0.000297608995           
       2.039695             0.00749968335            0.000286964307           
       2.042335             0.00734065304            0.000288737943           
       2.044975             0.00820707363            0.000302862701           
       2.047616              0.0070766168             0.00028243692           
       2.050256             0.00802824782            0.000297289892           
       2.052897             0.00756906537            0.000297212188           
       2.055537             0.00846202029            0.000305687414           
       2.058177             0.00772818749            0.000294712629           
       2.060818             0.00758230176            0.000292794097           
       2.063458             0.00767234404            0.000294933141           
       2.066098             0.00744278167            0.000289198205           
       2.068739             0.00748581953            0.000293057225           
       2.071379             0.00740125991            0.000287094079           
       2.074020             0.00726465852            0.000288327338           
       2.076660             0.00767284768            0.000294308381           
       2.079300             0.00730704899            0.000287165609           
       2.081941             0.00701279383            0.000283034411           
       2.084581             0.00743409725            0.000291628123           
       2.087222             0.00753821522             0.00029386327           
       2.089862             0.00728088314            0.000285204256           
       2.092502             0.00729633787            0.000290694435           
       2.095143             0.00769395273            0.000294243817           
       2.097783             0.00783671637            0.000301479962           
       2.100423             0.00760943408            0.000291379685           
       2.103064             0.00707840187            0.000285880887           
       2.105704             0.00740302511            0.000291244337           
       2.108345             0.00818650405            0.000307674425           
       2.110985             0.00744331157             0.00028925571           
       2.113625              0.0075802904            0.000296504328           
       2.116266             0.00798330346            0.000302032068           
       2.118906             0.00760841519            0.000294640844           
       2.121546             0.00730198583            0.000288417345           
       2.124187             0.00718700491            0.000290095303           
       2.126827             0.00731404422            0.000288058422           
       2.129468             0.00738543201            0.000292481504           
       2.132108             0.00723692966            0.000288926938           
       2.134748             0.00708425244            0.000284785629           
       2.137389             0.00721535387            0.000289815906           
       2.140029             0.00782225054             0.00030102552           
       2.142670             0.00726188974            0.000290516851           
       2.145310             0.00662793478            0.000278606773           
       2.147950             0.00747921077            0.000297102371           
       2.150591             0.00777403437            0.000300123645           
       2.153231             0.00725992425            0.000294317958           
       2.155871              0.0072317196            0.000289503351           
       2.158512             0.00732687244            0.000296652568           
       2.161152             0.00770908696            0.000296690658           
       2.163793             0.00734676836            0.000294347444           
       2.166433             0.00748789502             0.00029200805           
       2.169073             0.00688522373            0.000286547871           
       2.171714              0.0073838677            0.000290701482           
       2.174354             0.00772641489            0.000301912129           
       2.176995             0.00791199824            0.000302982171           
       2.179635             0.00758143102            0.000302198198           
       2.182275             0.00733640853            0.000291373603           
       2.184916             0.00739195078            0.000298655892           
       2.187556             0.00743840837            0.000294769754           
       2.190196             0.00780287997            0.000306650359           
       2.192837             0.00740628047            0.000295484084           
       2.195477             0.00726857231            0.000295547834           
       2.198118             0.00761069411            0.000296840103           
       2.200758             0.00733634229            0.000295966589           
       2.203398             0.00751019467            0.000294486913           
       2.206039             0.00754165553            0.000299613693           
       2.208679              0.0071939849            0.000289761607           
       2.211319             0.00733700346            0.000294005095           
       2.213960             0.00673997352            0.000278793256           
       2.216600             0.00742348749            0.000299482282           
       2.219241             0.00739940462             0.00029464919           
       2.221881             0.00741203957            0.000296437815           
       2.224521             0.00705444646            0.000288195535           
       2.227162             0.00766248333            0.000305076634           
       2.229802             0.00694514934            0.000285731085           
       2.232443             0.00756047711             0.00029929215           
       2.235083             0.00772756719            0.000300766953           
       2.237723             0.00725279819            0.000293614184           
       2.240364             0.00796440031            0.000306116078           
       2.243004             0.00726825348            0.000293315287           
       2.245644             0.00667655078             0.00028047341           
       2.248285             0.00736851544            0.000296562176           
       2.250925             0.00705913576            0.000288912227           
       2.253566             0.00672839324            0.000282752517           
       2.256206             0.00674908797            0.000282338743           
       2.258846             0.00675019867            0.000282364492           
       2.261487             0.00712213039            0.000290540973           
       2.264127             0.00714891601            0.000293840999           
       2.266767              0.0076511941            0.000299074972           
       2.269408             0.00699406531            0.000289339647           
       2.272048             0.00733277408            0.000294440473           
       2.274689             0.00773611646            0.000303619227           
       2.277329             0.00716162785            0.000291740131           
       2.279969             0.00695018697            0.000288272275           
       2.282610             0.00670607154            0.000280403014           
       2.285250             0.00759519131            0.000303106448           
       2.287891             0.00776808222            0.000303443581           
       2.290531             0.00739946589            0.000297616919           
       2.293171             0.00753983865             0.00030041184           
       2.295812             0.00747195657            0.000297469197           
       2.298452             0.00690075822            0.000287704002           
       2.301092             0.00729268418            0.000297639936           
       2.303733             0.00696948725            0.000285214569           
       2.306373             0.00732823567            0.000299616443           
       2.309014             0.00732421592            0.000293762182           
       2.311654             0.00714024741            0.000292802088           
       2.314294             0.00717447926            0.000292862369           
       2.316935             0.00770060684            0.000304609841           
       2.319575             0.00695613162            0.000288427079           
       2.322215             0.00701348204             0.00029374055           
       2.324856             0.00619568372            0.000269151148           
       2.327496             0.00690438649             0.00029109144           
       2.330137             0.00802746034            0.000308085828           
       2.332777             0.00781511729             0.00030730849           
       2.335417              0.0073866319            0.000297868308           
       2.338058             0.00674196155            0.000285712286           
       2.340698             0.00734447419            0.000295269746           
       2.343339             0.00722134093            0.000298371248           
       2.345979             0.00788714379            0.000305600506           
       2.348619             0.00723500746            0.000298221352           
       2.351260             0.00697307191            0.000286549658           
       2.353900             0.00776588886            0.000308806749           
       2.356540              0.0073832037            0.000296960859           
       2.359181             0.00697998305            0.000292599064           
       2.361821             0.00725984881             0.00029477148           
       2.364462             0.00655516392            0.000284781493           
       2.367102             0.00809406236            0.000307297708           
       2.369742             0.00707489938            0.000297596309           
       2.372383              0.0068613751            0.000284527807           
       2.375023             0.00727933118            0.000300701205           
       2.377663             0.00663311694            0.000280944011           
       2.380304             0.00727531574            0.000298311424           
       2.382944             0.00656408104            0.000280583529           
       2.385585              0.0069901622            0.000292284123           
       2.388225             0.00714850469            0.000294240542           
       2.390865             0.00716223734            0.000295277222           
       2.393506              0.0073191936              0.0002971195           
       2.396146             0.00693269139            0.000290126608           
       2.398787             0.00708139082            0.000293478046           
       2.401427             0.00727929901            0.000295744076           
       2.404067             0.00698316175            0.000294087048           
       2.406708             0.00716865252            0.000294222148           
       2.409348             0.00680914406            0.000288906763           
       2.411988             0.00752891171             0.00030282261           
       2.414629             0.00671991707            0.000287027043           
       2.417269             0.00743389063            0.000299148557           
       2.419910             0.00722216612            0.000298576149           
       2.422550              0.0071203027            0.000291962824           
       2.425190             0.00710995066            0.000300936245           
       2.427831             0.00712245723            0.000289873027           
       2.430471             0.00750339249            0.000306220844           
       2.433112             0.00744023964            0.000297734281           
       2.435752             0.00643541973            0.000283910607           
       2.438392             0.00682705628            0.000287506854           
       2.441033             0.00657296408            0.000283398565           
       2.443673             0.00673020359            0.000287534064           
       2.446313              0.0066973284            0.000285302721           
       2.448954             0.00667625533            0.000287353012           
       2.451594             0.00704592232            0.000293430004           
       2.454235             0.00724319526            0.000296583678           
       2.456875             0.00728585903            0.000298962576           
       2.459515             0.00737532946            0.000301256395           
       2.462156             0.00712252823             0.00029452226           
       2.464796             0.00771750371            0.000311984725           
       2.467436             0.00814539459            0.000313796202           
       2.470077             0.00778372585            0.000310980534           
       2.472717              0.0078729335            0.000308844096           
       2.475358             0.00800654858            0.000314982453           
       2.477998             0.00745036693            0.000302224248           
       2.480638             0.00758199981            0.000305623197           
       2.483279             0.00759399871            0.000307178924           
       2.485919              0.0067262416            0.000287071967           
       2.488560               0.006953074            0.000293083032           
       2.491200             0.00731686682            0.000300240299           
       2.493840             0.00676308226            0.000287083172           
       2.496481             0.00729741294            0.000302108016           
       2.499121             0.00734675055            0.000299091565           
       2.501761             0.00730064088            0.000303214286           
       2.504402             0.00750539072            0.000301545043           
       2.507042             0.00685730336             0.00029302338           
       2.509683             0.00734544138             0.00030051168           
       2.512323             0.00730865784            0.000300932038           
       2.514963              0.0151815864            0.000434581318           
       2.517604              0.0269776732            0.000577046957           
       2.520244              0.0131677614            0.000403236494           
       2.522884             0.00751537373             0.00030396816           
       2.525525             0.00756343129            0.000307443269           
       2.528165              0.0149205813             0.00042984356           
       2.530806              0.0249004864            0.000553207647           
       2.533446               0.011829983            0.000384696945           
       2.536086             0.00958281944            0.000343331009           
       2.538727             0.00993170462            0.000351765784           
       2.541367             0.00993215408            0.000350767864           
       2.544008             0.00748974473            0.000304859215           
       2.546648             0.00647742022            0.000283830935           
       2.549288             0.00726788727            0.000300694369           
       2.551929             0.00692450423            0.000294474524           
       2.554569             0.00706136745            0.000294652999           
       2.557209             0.00639681377            0.000283614083           
       2.559850             0.00690939579            0.000291368784           
       2.562490             0.00715999484            0.000298765237           
       2.565131             0.00690723791            0.000293955019           
       2.567771             0.00738898246            0.000302421803           
       2.570411             0.00707298071            0.000299484961           
       2.573052              0.0072874945            0.000300444048           
       2.575692             0.00683697516            0.000291781013           
       2.578332             0.00700570466            0.000294486989           
       2.580973             0.00703605043            0.000297516969           
       2.583613             0.00680630773            0.000289952771           
       2.586254             0.00667259249            0.000289630334           
       2.588894             0.00637799676            0.000281654063           
       2.591534             0.00713500876            0.000298448381           
       2.594175             0.00678271978            0.000292676328           
       2.596815             0.00725085043            0.000299794305           
       2.599456             0.00704804089            0.000297990171           
       2.602096             0.00770893423            0.000310482134           
       2.604736             0.00713087962            0.000299397737           
       2.607377             0.00688176323            0.000292996778           
       2.610017             0.00678726709            0.000290876537           
       2.612657             0.00672333169            0.000291548315           
       2.615298             0.00704198127            0.000295458599           
       2.617938             0.00665465338            0.000289730797           
       2.620579             0.00716796443            0.000298241242           
       2.623219             0.00680290642            0.000295194976           
       2.625859             0.00671231373             0.00028828095           
       2.628500             0.00685300071            0.000295941767           
       2.631140             0.00670738123            0.000287617598           
       2.633780             0.00686041499             0.00029461628           
       2.636421             0.00745963916            0.000304418069           
       2.639061             0.00730337258            0.000304814095           
       2.641702              0.0072707297            0.000300880966           
       2.644342             0.00675456214             0.00029238315           
       2.646982             0.00690340912            0.000295336201           
       2.649623             0.00705083474            0.000300262369           
       2.652263             0.00701435875            0.000297101606           
       2.654904             0.00714264588            0.000301434046           
       2.657544             0.00747048737            0.000306105323           
       2.660184              0.0073043455            0.000303069495           
       2.662825             0.00653115859            0.000287267443           
       2.665465             0.00740677583            0.000306484405           
       2.668105             0.00793058954            0.000317262281           
       2.670746             0.00710551217            0.000297764579           
       2.673386             0.00694856586            0.000298026407           
       2.676027             0.00736716152            0.000304263264           
       2.678667             0.00726279142            0.000303670868           
       2.681307             0.00640943854            0.000283030198           
       2.683948             0.00788405641            0.000317022047           
       2.686588             0.00709282961            0.000297934379           
       2.689229             0.00738621557            0.000306762438           
       2.691869             0.00770180959            0.000310120786           
       2.694509             0.00724985214            0.000305010252           
       2.697150             0.00704808211            0.000295936086           
       2.699790             0.00745727537            0.000310728717           
       2.702430             0.00693639531            0.000293934573           
       2.705071             0.00703572866            0.000300083222           
       2.707711             0.00699314304            0.000296206987           
       2.710352             0.00667262088            0.000290986102           
       2.712992              0.0064011426            0.000285931824           
       2.715632             0.00684724073            0.000294045203           
       2.718273             0.00687891212            0.000295702887           
       2.720913             0.00649170212            0.000287739479           
       2.723553             0.00684953866             0.00029453647           
       2.726194             0.00723387449              0.0003041469           
       2.728834             0.00654169284            0.000286658713           
       2.731475             0.00642284639            0.000286525292           
       2.734115             0.00636258997            0.000283478792           
       2.736755             0.00685090014            0.000296100309           
       2.739396             0.00638706126            0.000284389101           
       2.742036             0.00715235277            0.000302998931           
       2.744677             0.00757250178            0.000312227263           
       2.747317             0.00731543837            0.000305391029           
       2.749957              0.0068092665            0.000296773761           
       2.752598             0.00693517894            0.000300406991           
       2.755238             0.00734906669            0.000309101787           
       2.757878             0.00703274785            0.000301515507           
       2.760519              0.0078285119            0.000314758045           
       2.763159             0.00735971251            0.000310150452           
       2.765800             0.00743403874            0.000306432295           
       2.768440             0.00756882808             0.00031327104           
       2.771080             0.00656428585            0.000289283958           
       2.773721             0.00658638813            0.000293325442           
       2.776361             0.00702603738            0.000299703355           
       2.779001             0.00671279996            0.000296025777           
       2.781642             0.00684769933            0.000296945305           
       2.784282             0.00673952059            0.000294693193           
       2.786923             0.00684886032            0.000294814727           
       2.789563             0.00698863808            0.000298406197           
       2.792203             0.00672603691            0.000294609612           
       2.794844             0.00693661715             0.00029782457           
       2.797484             0.00633310775            0.000284974887           
       2.800125             0.00677244669            0.000294312941           
       2.802765             0.00706825435             0.00030624564           
       2.805405             0.00676329314            0.000295242043           
       2.808046             0.00680894772            0.000300779216           
       2.810686             0.00743881087            0.000311033473           
       2.813326             0.00711530708            0.000307958645           
       2.815967             0.00640374607            0.000290313365           
       2.818607             0.00738887217            0.000314962507           
       2.821248             0.00693634776            0.000301360262           
       2.823888             0.00687977354            0.000304962877           
       2.826528              0.0065652787            0.000296133566           
       2.829169             0.00709164678            0.000306417101           
       2.831809             0.00690582506            0.000302640872           
       2.834449             0.00690648164            0.000297372458           
       2.837090              0.0068557967            0.000298062283           
       2.839730             0.00687330653            0.000296323283           
       2.842371             0.00678845861            0.000296540446           
       2.845011             0.00756277156            0.000312297968           
       2.847651             0.00687169334            0.000298234163           
       2.850292              0.0070229273            0.000299785038           
       2.852932             0.00668007427            0.000292900157           
       2.855573              0.0065253764            0.000292031244           
       2.858213             0.00675827231             0.00029386234           
       2.860853             0.00709030551            0.000303247419           
       2.863494              0.0068756039            0.000299339848           
       2.866134             0.00731309172            0.000313046602           
       2.868774             0.00712325304            0.000304227361           
       2.871415             0.00690701839            0.000302539208           
       2.874055             0.00681101302            0.000301917412           
       2.876696              0.0067270177            0.000297348139           
       2.879336             0.00699038625            0.000305125052           
       2.881976             0.00634947987            0.000290561969           
       2.884617             0.00650509464            0.000292467224           
       2.887257              0.0070365392             0.00030205861           
       2.889897             0.00680547778            0.000300462711           
       2.892538             0.00658245478            0.000293449623           
       2.895178             0.00686061874            0.000296530728           
       2.897819             0.00664160976            0.000294760045           
       2.900459             0.00718720782            0.000304089417           
       2.903099             0.00663311275            0.000293657852           
       2.905740              0.0070035961            0.000298379131           
       2.908380             0.00713650067            0.000305212136           
       2.911021             0.00697932458            0.000302406172           
       2.913661             0.00660753988            0.000291003377           
       2.916301             0.00693423098            0.000302351405           
       2.918942             0.00724290099            0.000304345781           
       2.921582              0.0067712615            0.000297357267           
       2.924222             0.00686603272            0.000297694208           
       2.926863             0.00656937664            0.000291965527           
       2.929503             0.00732922665            0.000311812187           
       2.932144             0.00746014462            0.000309425226           
       2.934784             0.00781908125            0.000318127857           
       2.937424             0.00689572264            0.000299306577           
       2.940065             0.00693113782            0.000300318409           
       2.942705             0.00681378948            0.000298670044           
       2.945346             0.00729830508            0.000307280902           
       2.947986             0.00781401089            0.000319063885           
       2.950626             0.00879715864             0.00033958238           
       2.953267              0.0100364943            0.000358861273           
       2.955907             0.00898932932            0.000344114811           
       2.958547             0.00828233335            0.000326918818           
       2.961188             0.00745591056            0.000312887898           
       2.963828             0.00785108218            0.000319253018           
       2.966469             0.00692616583             0.00029993341           
       2.969109             0.00699487463            0.000302958977           
       2.971749             0.00845725448            0.000332146191           
       2.974390             0.00854619939            0.000334804407           
       2.977030             0.00915981428            0.000345955848           
       2.979670             0.00823498696            0.000325911564           
       2.982311             0.00759366425            0.000315222355           
       2.984951             0.00751976687            0.000314495893           
       2.987592             0.00777901547            0.000318791535           
       2.990232             0.00780451435            0.000320128966           
       2.992872             0.00852907571            0.000332041109           
       2.995513              0.0100662267            0.000363556839           
       2.998153              0.0139472264            0.000430700896           
       3.000794              0.0246751307            0.000564541025           
       3.003434              0.0311401299            0.000640924392           
       3.006074              0.0206457271            0.000523551109           
       3.008715              0.0155489716            0.000457814267           
       3.011355              0.0177291509            0.000493941653           
       3.013995               0.015858315            0.000464869656           
       3.016636              0.0286791542            0.000626324463           
       3.019276               0.177361433             0.00159478542           
       3.021917               0.427216737             0.00243314508           
       3.024557                0.15539063             0.00147914141           
       3.027197              0.0758987131             0.00105109781           
       3.029838               0.137151118             0.00140618953           
       3.032478              0.0924490063             0.00116140233           
       3.035118              0.0661696462            0.000987621932           
       3.037759              0.0868331798             0.00113336133           
       3.040399              0.0684996104             0.00101814788           
       3.043040              0.0643649946            0.000996527869           
       3.045680              0.0508520685            0.000872124045           
       3.048320              0.0710167546             0.00104717208           
       3.050961              0.0813375955             0.00113192195           
       3.053601               0.110174479             0.00131155485           
       3.056242              0.0685495272             0.00104118744           
       3.058882               0.131092702             0.00146126451           
       3.061522               0.274017269              0.0020980174           
       3.064163              0.0550524155            0.000942101817           
       3.066803               0.020207899            0.000581819204           
       3.069443              0.0284652311             0.00068593454           
       3.072084              0.0816073492             0.00117176043           
       3.074724              0.0606700607             0.00101629164           
       3.077365              0.0125538575            0.000461964588           
       3.080005             0.00874544647            0.000389852738           
       3.082645             0.00940086236            0.000406255369           
       3.085286             0.00875918361            0.000392216883           
       3.087926             0.00713163824            0.000356158708           
       3.090566             0.00759952825            0.000371443584           
       3.093207             0.00725355785            0.000358969351           
       3.095847             0.00804093396            0.000385872915           
       3.098488             0.00797268044            0.000383535032           
       3.101128             0.00730890975            0.000369222797           
       3.103768             0.00873871669            0.000405999861           
       3.106409             0.00961840347            0.000428797983           
       3.109049             0.00958180164            0.000431308405           
       3.111690              0.0133586794            0.000507262466           
       3.114330              0.0192290306            0.000614011927           
       3.116970              0.0186938367            0.000613828935           
       3.119611              0.0125326117            0.000499325572           
       3.122251              0.0105277894            0.000461396007           
       3.124891             0.00913713059            0.000431930092           
       3.127532             0.00836594524            0.000420745736           
       3.130172              0.0095195088            0.000439584295           
       3.132813             0.00853924693            0.000424810146           
       3.135453             0.00741601382            0.000404237146           
       3.138093             0.00689556937            0.000380546026           
       3.140734             0.00600740544            0.000361804502           
       3.143374             0.00600691099            0.000367320183           
       3.146014             0.00625842125            0.000372209578           
       3.148655             0.00657128163            0.000384402387           
       3.151295             0.00757674821            0.000416031746           
       3.153936             0.00671203208            0.000397353004           
       3.156576             0.00608527699            0.000374003243           
       3.159216             0.00670098269            0.000395678089           
       3.161857              0.0062551782            0.000386979359           
       3.164497               0.006263447            0.000395400026           
       3.167138             0.00683552937            0.000403152743           
       3.169778             0.00617109504            0.000389974945           
       3.172418              0.0062157188            0.000393669373           
       3.175059             0.00644964023            0.000406256539           
       3.177699             0.00584666101            0.000385272317           
       3.180339             0.00567849532            0.000383085031           
       3.182980             0.00659891666            0.000418541519           
       3.185620             0.00585225624             0.00039845931           
       3.188261             0.00570097774            0.000388123135           
       3.190901             0.00598669218             0.00040385858           
       3.193541             0.00590489559            0.000402411787           
       3.196182             0.00621045149            0.000421278787           
       3.198822             0.00617449452            0.000414965331           
       3.201463             0.00546088284            0.000395296256           
       3.204103             0.00640833413             0.00043391917           
       3.206743             0.00623895457            0.000431766111           
       3.209384             0.00585972071            0.000416572677           
       3.212024             0.00604916188            0.000424756462           
       3.214664             0.00650054125            0.000448711342           
       3.217305             0.00542049004            0.000419302504           
       3.219945             0.00644108263            0.000453253076           
       3.222586             0.00557448608            0.000424047597           
       3.225226             0.00478492814            0.000401721669           
       3.227866              0.0057491477            0.000443747733           
       3.230507             0.00575730974            0.000449361526           
       3.233147              0.0062029757            0.000459530616           
       3.235787             0.00645341823             0.00046884291           
       3.238428             0.00596173523            0.000458587272           
       3.241068             0.00577516237            0.000460506893           
       3.243709             0.00592023842            0.000463667224           
       3.246349             0.00561180084            0.000448901652           
       3.248989             0.00525830269            0.000444465221           
       3.251630             0.00590704403            0.000473170056           
       3.254270             0.00605745737            0.000493885095           
       3.256911             0.00618781289            0.000486663792           
       3.259551             0.00540470128            0.000464877508           
       3.262191             0.00512759703            0.000456969071           
       3.264832             0.00589089101             0.00049439761           
       3.267472             0.00555847769             0.00048705665           
       3.270112             0.00570561468            0.000494865678           
       3.272753             0.00474733184            0.000456946636           
       3.275393             0.00605426161            0.000518681764           
       3.278034             0.00597100711            0.000525596304           
       3.280674             0.00504256644            0.000484409816           
       3.283314             0.00537243042             0.00050276566           
       3.285955             0.00475815126            0.000482037754           
       3.288595             0.00569626161            0.000533304306           
       3.291235             0.00536729952            0.000520716997           
       3.293876              0.0062831508            0.000566730404           
       3.296516             0.00553841472            0.000542936987           
       3.299157             0.00581874561            0.000564919251           
       3.301797             0.00450343608            0.000497196668           
       3.304437             0.00537214306            0.000553216734           
       3.307078             0.00507305238            0.000542818725           
       3.309718             0.00612335103            0.000602321614           
       3.312359             0.00648268856            0.000632265047           
       3.314999             0.00654193521             0.00064181069           
       3.317639             0.00594555078             0.00061844538           
       3.320280             0.00490705854            0.000570048876           
       3.322920             0.00481020799            0.000572839703           
       3.325560              0.0061228415             0.00065877006           
       3.328201             0.00666217725            0.000690076809           
       3.330841              0.0048950904            0.000605906616           
       3.333482             0.00595859405            0.000676981493           
       3.336122             0.00477654656             0.00061929845           
       3.338762             0.00517688122            0.000650625741           
       3.341403             0.00495248507            0.000642272136           
       3.344043             0.00525097244            0.000686585606           
       3.346683              0.0061811391            0.000752474399           
       3.349324             0.00643583063            0.000779706519           
       3.351964             0.00598197575            0.000775877844           
       3.354605             0.00530582458            0.000738988566           
       3.357245             0.00554737943             0.00078218296           
       3.359885             0.00514329028            0.000753426695           
       3.362526             0.00505478455            0.000785106767           
       3.365166             0.00536605986            0.000798932127           
       3.367807             0.00767865088             0.00102305034           
       3.370447             0.00608306095            0.000910927838           
       3.373087              0.0060069337            0.000955357117           
       3.375728              0.0051853393            0.000880911927           
       3.378368             0.00638568031             0.00105633663           
       3.381008             0.00522285015            0.000946998132           
       3.383649             0.00558448324             0.00105975486           
       3.386289             0.00414669134            0.000913574245           
       3.388930             0.00237488785            0.000759302028           
       3.391570             0.00646324597             0.00125314237           
       3.394210             0.00440770863             0.00110882964           
       3.396851             0.00350820952             0.00107157909           
       3.399491             0.00524640987             0.00133420941           
       3.402131             0.00465560709             0.00148774621           
       3.404772             0.00643281508             0.00174955386           
       3.407412             0.00424986757             0.00176458338           
       3.410053             0.00384569982             0.00174786935           
       3.412693             0.00605807535             0.00310374218           
       3.415333             0.00436718003             0.00322879947           
