################################################################################
# EDF_DataBlockID                     0.Image.Psd
# EDF_BinarySize                      2105344
# EDF_HeaderSize                      2560
# ByteOrder                           LowByteFirst
# DataType                            FloatValue
# Dim_1                               512
# Dim_2                               1028
# Image                               0
# HeaderID                            EH:000000:000000:000000
# Size                                2105344
# Center_1                            304.9000
# Center_2                            588.7000
# Comment                             Xenocs_Cell_Window - front_window_open_only
# DDummy                              0.6
# Date                                2025-10-19T03:54:49
# Delta                               21.910000
# Dummy                               -1.5
# ExposureTime                        360
# Gamma                               15.360000
# Intensity1                          9.0599e-10
# PSize_1                             7.5e-05
# PSize_2                             7.5e-05
# Pressure                            0.0331879
# SampleDistance                      0.115750
# SampleEnvKind                       large
# SampleEnvPN                         ElectroChemical cell
# SampleEnvSN                         1141
# Thickness                           0
# Wavelength                          1.541891e-10
# Wavelength                          1.54189e-10
# aux                                 0
# aux_dial                            0.002375
# beamx                               588.429
# beamx_dial                          588.429
# beamz                               657.855
# beamz_dial                          657.855
# det0x                               -0.000396875
# det0x_dial                          6.36905
# det0xvd                             -0.0005
# det0xvd_dial                        -0.0005
# det0y                               450.002
# det0y_dial                          481.635
# det0z                               0
# det0z_dial                          1.2295
# det0zvd                             0
# det0zvd_dial                        0
# mag                                 1.818
# mag_dial                            1.818
# om                                  0.2499
# om_dial                             -0.610199
# phi                                 -0.0120535
# phi_dial                            0
# ry                                  0.599993
# ry_dial                             0.599993
# s1bot                               0.8
# s1bot_dial                          -1.66094
# s1hl                                0.8
# s1hl_dial                           -0.608437
# s1hr                                0.8
# s1hr_dial                           0.970938
# s1top                               0.8
# s1top_dial                          -0.461562
# s2bot                               0.45
# s2bot_dial                          1.36109
# s2hl                                0.45
# s2hl_dial                           -0.83375
# s2hr                                0.45
# s2hr_dial                           -0.118594
# s2top                               0.45
# s2top_dial                          1.44734
# w2theta                             32
# w2theta_dial                        32
# waxsch                              19.2605
# waxsch_dial                         -32.7238
# waxsh                               137.085
# waxsh_dial                          -43.5335
# waxsth                              26.0607
# waxsth_dial                         -19.4068
# waxsz                               67.0407
# waxsz_dial                          -23.7962
# wind                                65.9854
# wind_dial                           66.0041
# wpsi                                124
# wpsi_dial                           124
# wstod                               115
# wstod_dial                          115
# x                                   0
# x_dial                              1.00969
# z                                   0
# z_dial                              13.3172
# CountCutoff                         6807993
# DetectorModel                       Dectris EIGER2 Si 500K, S/N E-01-0554
# ThresholdSetting                    4023.88989258
# Saturation                          0
# FlatField                           Corrected
# BackgroundReductionExtra            0.02
# BackgroundCorrectionConstant        0.0026712
# Detector                            0
# Monitor                             0
# Pil_Roi0                            0
# SumForIntensity1                    3.26156e+08
# TransmittedFlux                     905990
# det                                 0
# mon                                 0
# pilai0                              3.26156e+08
# pilai1                              698287
# pilct0                              5.63882e+08
# pilct1                              698287
# pilroi0                             0
# pilroi1                             0
# sec                                 1
# title                               20251017__1_00307.edf
# usaxs0                              0
# Operation                           Azimuthal average I(q)
# Error_model                         ErrorModel.poisson
# Geometrical_correction              True
# Transmission_correction             True
# Thickness_correction                False
# Binning mode                        Uniform
# Binning factor                      1.0
# Psi                                 0.0
# Omega                               0.2499
# MaskInvalidPixels                   True
# DetectorEdge                        3
# MaskFiles                           ['20251017__1_00233_mask.edf']
################################################################################
    q(A⁻¹)                Intensity(a.u.)            Sigma_I(a.u.)            
       0.690460           -2.24177907e-05                         0           
       0.693100              0.0061906412             0.00322254328           
       0.695741             0.00570749214             0.00261408511           
       0.698381             0.00704673653             0.00271667224           
       0.701021             0.00815035158             0.00238449418           
       0.703662             0.00695263501             0.00203856775           
       0.706302             0.00543544388             0.00174077962           
       0.708942             0.00773756501             0.00184489803           
       0.711583             0.00649454378              0.0016899155           
       0.714223             0.00555507265              0.0013619456           
       0.716864             0.00508018835             0.00132906586           
       0.719504             0.00502010303             0.00122275593           
       0.722144             0.00572016573             0.00126058885           
       0.724785             0.00854704219              0.0015156537           
       0.727425             0.00634339778             0.00121113038           
       0.730065             0.00746116439              0.0013515272           
       0.732706             0.00469389051             0.00096397509           
       0.735346             0.00843771518             0.00139606006           
       0.737987             0.00460557087            0.000892732513           
       0.740627             0.00700497933              0.0012061209           
       0.743267             0.00748179556             0.00107220014           
       0.745908             0.00841984941             0.00121901277           
       0.748548             0.00761757546             0.00108142071           
       0.751189             0.00612814613            0.000960815236           
       0.753829             0.00594454183            0.000954848836           
       0.756469             0.00605569534            0.000906436676           
       0.759110             0.00515831794            0.000865312758           
       0.761750             0.00870282743              0.0010286495           
       0.764390             0.00760176288             0.00103198684           
       0.767031             0.00706840377            0.000900472655           
       0.769671              0.0061586128            0.000891405813           
       0.772312             0.00768506895            0.000907411164           
       0.774952             0.00575083499            0.000841515268           
       0.777592             0.00604474082            0.000789115309           
       0.780233             0.00624324212            0.000845441507           
       0.782873             0.00608471826            0.000763233613           
       0.785513             0.00720553371            0.000883516627           
       0.788154             0.00772055991            0.000840022809           
       0.790794             0.00601888846            0.000767632094           
       0.793435             0.00742362704            0.000818834215           
       0.796075             0.00572312734            0.000722758323           
       0.798715             0.00669636891            0.000777337601           
       0.801356             0.00746243301            0.000798636916           
       0.803996             0.00631146463            0.000746207513           
       0.806637             0.00760330174            0.000774192166           
       0.809277             0.00721642177            0.000789056321           
       0.811917             0.00691175219             0.00073074469           
       0.814558             0.00620974694             0.00070956681           
       0.817198             0.00785393072            0.000760888383           
       0.819838             0.00628456319            0.000709976301           
       0.822479              0.0061759045            0.000648600657           
       0.825119             0.00604645594            0.000689422863           
       0.827760              0.0072516887            0.000699597679           
       0.830400             0.00698087553            0.000723220072           
       0.833040             0.00654587658            0.000653602448           
       0.835681             0.00710107216            0.000712897084           
       0.838321             0.00648015005            0.000637418459           
       0.840961             0.00790813055            0.000736014792           
       0.843602             0.00738297368            0.000669881373           
       0.846242             0.00667090904            0.000659240206           
       0.848883             0.00698494609            0.000656213683           
       0.851523             0.00716436904            0.000669568971           
       0.854163             0.00729007165            0.000667570629           
       0.856804             0.00698026454            0.000636517446           
       0.859444             0.00714330205            0.000648537677           
       0.862085             0.00562305397            0.000567032585           
       0.864725             0.00636202838            0.000600927819           
       0.867365             0.00774602759            0.000658328491           
       0.870006             0.00726497719            0.000646454135           
       0.872646             0.00658780735            0.000588798337           
       0.875286             0.00631335653            0.000596042951           
       0.877927             0.00655635535            0.000581565662           
       0.880567             0.00876223186            0.000685452461           
       0.883208             0.00695315064            0.000592971284           
       0.885848             0.00688365796            0.000605301278           
       0.888488             0.00554773126            0.000516675833           
       0.891129             0.00692772851            0.000606921412           
       0.893769             0.00647693978            0.000554712489           
       0.896410             0.00714570304            0.000600594477           
       0.899050             0.00681175432            0.000565397145           
       0.901690              0.0070844101            0.000588637563           
       0.904331             0.00648708943            0.000543610187           
       0.906971             0.00676760754             0.00057333775           
       0.909611             0.00664475598            0.000545290141           
       0.912252             0.00640005565            0.000544428744           
       0.914892             0.00761453823            0.000578800756           
       0.917533             0.00666909836            0.000553900013           
       0.920173             0.00825726512              0.0005912173           
       0.922813             0.00637641409            0.000542926431           
       0.925454             0.00758966493            0.000562156814           
       0.928094              0.0066876363            0.000539021249           
       0.930734             0.00683273526            0.000531834417           
       0.933375             0.00664719921            0.000535746327           
       0.936015             0.00789683786            0.000558721274           
       0.938656             0.00615596475            0.000513998323           
       0.941296             0.00619536353            0.000497075934           
       0.943936             0.00896709646            0.000608789562           
       0.946577             0.00727306121            0.000528024484           
       0.949217             0.00763267929            0.000560024418           
       0.951858             0.00728929406            0.000517390851           
       0.954498             0.00605063279            0.000495918243           
       0.957138             0.00675778991            0.000503735383           
       0.959779             0.00742518062            0.000539573343           
       0.962419             0.00693625907            0.000502051914           
       0.965059             0.00754404304            0.000538458198           
       0.967700             0.00672462085            0.000491934806           
       0.970340             0.00617110551            0.000484496184           
       0.972981              0.0069910017            0.000497901905           
       0.975621             0.00725087039            0.000517688624           
       0.978261             0.00746749817            0.000501264058           
       0.980902             0.00679219526             0.00050082484           
       0.983542             0.00801439828            0.000528181342           
       0.986182              0.0072996739            0.000510718193           
       0.988823             0.00786658734            0.000513072774           
       0.991463             0.00713028804            0.000500138739           
       0.994104             0.00713650426            0.000483491001           
       0.996744             0.00833129984            0.000539339371           
       0.999384             0.00800760625            0.000510811928           
       1.002025             0.00815394227            0.000529810093           
       1.004665             0.00779742683            0.000496875827           
       1.007306             0.00710656434            0.000490248106           
       1.009946             0.00794100711            0.000498295994           
       1.012586             0.00711520869            0.000485243594           
       1.015227             0.00812671829            0.000502891931           
       1.017867             0.00769653205            0.000503425315           
       1.020507               0.007726033            0.000485401169           
       1.023148             0.00806285785            0.000501858433           
       1.025788             0.00680184944             0.00045622622           
       1.028429             0.00737835455            0.000485554757           
       1.031069             0.00772058253            0.000478534091           
       1.033709             0.00707732035            0.000466963498           
       1.036350             0.00755445414             0.00046979677           
       1.038990             0.00874216367            0.000517856601           
       1.041630             0.00864344936             0.00050501816           
       1.044271             0.00849889348             0.00050083354           
       1.046911             0.00808874245            0.000479521076           
       1.049552             0.00827700019            0.000502549922           
       1.052192              0.0071282559            0.000445401878           
       1.054832             0.00798983677            0.000480722045           
       1.057473             0.00815824977            0.000479612461           
       1.060113             0.00782184041             0.00047470521           
       1.062754             0.00870023892            0.000495113788           
       1.065394             0.00803408767            0.000470775826           
       1.068034             0.00750575346            0.000453271464           
       1.070675             0.00837052326            0.000487090731           
       1.073315             0.00738492657            0.000443531608           
       1.075955             0.00811047275            0.000472604531           
       1.078596             0.00735593132            0.000449194414           
       1.081236             0.00862414451            0.000479163559           
       1.083877             0.00854875023            0.000491967396           
       1.086517             0.00881161532            0.000488175094           
       1.089157             0.00861450619            0.000486223069           
       1.091798             0.00809217643            0.000461267272           
       1.094438             0.00858051753            0.000482530425           
       1.097078             0.00861755527            0.000471144158           
       1.099719             0.00837716652            0.000476431674           
       1.102359             0.00873737734            0.000460934272           
       1.105000              0.0086965716            0.000477967518           
       1.107640             0.00739777863            0.000426463817           
       1.110280             0.00832482647            0.000461454939           
       1.112921             0.00732438806            0.000425008043           
       1.115561             0.00840486529            0.000461055976           
       1.118202             0.00848373805            0.000449694503           
       1.120842             0.00833050352            0.000459655071           
       1.123482             0.00807936223            0.000439975143           
       1.126123             0.00847889923            0.000453535499           
       1.128763             0.00881587519             0.00046016632           
       1.131403             0.00880495792            0.000459166404           
       1.134044             0.00818706425            0.000441993731           
       1.136684             0.00764741998             0.00043038891           
       1.139325             0.00896644256            0.000452899191           
       1.141965             0.00890971802            0.000457368777           
       1.144605             0.00823315914            0.000442243347           
       1.147246             0.00860348101            0.000443517995           
       1.149886             0.00839120687            0.000441127443           
       1.152527             0.00854511669            0.000445600651           
       1.155167             0.00914598325            0.000454519477           
       1.157807             0.00928310032            0.000458229357           
       1.160448             0.00871429007            0.000450043259           
       1.163088             0.00885981568            0.000436950181           
       1.165728             0.00824642283            0.000438928815           
       1.168369             0.00961272666            0.000456979787           
       1.171009             0.00825006597            0.000426862728           
       1.173650              0.0075875755            0.000406413325           
       1.176290              0.0098005471            0.000467312932           
       1.178930             0.00891927242            0.000433275325           
       1.181571             0.00916880454            0.000453642368           
       1.184211             0.00833517531            0.000419465352           
       1.186851             0.00911796105            0.000442765398           
       1.189492             0.00889263413            0.000439688379           
       1.192132             0.00922893916            0.000441291497           
       1.194773             0.00891954086            0.000431214003           
       1.197413             0.00940615521             0.00044643272           
       1.200053             0.00872198139            0.000427185422           
       1.202694             0.00923075182            0.000436156419           
       1.205334              0.0086885008            0.000427777456           
       1.207975             0.00957101582            0.000440180303           
       1.210615             0.00931366253            0.000443404139           
       1.213255             0.00911610236            0.000427070916           
       1.215896             0.00924875788            0.000438320863           
       1.218536             0.00924165868            0.000425532761           
       1.221176             0.00837454977            0.000414746836           
       1.223817             0.00910213422            0.000423378406           
       1.226457             0.00899219149            0.000426158721           
       1.229098             0.00887141048            0.000416865392           
       1.231738             0.00968617172            0.000441721426           
       1.234378             0.00908337529            0.000419444456           
       1.237019             0.00997275897            0.000443044574           
       1.239659             0.00978491573            0.000438614783           
       1.242299             0.00940093126            0.000427724579           
       1.244940             0.00932790517            0.000421461051           
       1.247580             0.00955667715            0.000428481648           
       1.250221             0.00981196447            0.000441254025           
       1.252861             0.00939305929            0.000415647176           
       1.255501             0.00926953966            0.000424563255           
       1.258142             0.00967981334            0.000425279877           
       1.260782             0.00944463957            0.000424827074           
       1.263423             0.00953098145            0.000418309546           
       1.266063             0.00939595245            0.000423077099           
       1.268703              0.0103174963            0.000432169403           
       1.271344             0.00964089445            0.000426857507           
       1.273984             0.00972778776            0.000422083294           
       1.276624             0.00922331323             0.00040848551           
       1.279265              0.0106898316            0.000440723063           
       1.281905             0.00967435131            0.000421851858           
       1.284546              0.0101719583            0.000427839426           
       1.287186             0.00926836712            0.000408787074           
       1.289826              0.0097121129            0.000420628499           
       1.292467             0.00973847997            0.000413681485           
       1.295107              0.0100367751            0.000427371907           
       1.297747             0.00968209759            0.000408742884           
       1.300388             0.00949419911            0.000415151111           
       1.303028               0.010245918            0.000420306277           
       1.305669              0.0102288474            0.000425381819           
       1.308309              0.0105609473            0.000425733039           
       1.310949              0.0100608702            0.000420710415           
       1.313590              0.0105897666            0.000424947307           
       1.316230              0.0103132932            0.000426912004           
       1.318871             0.00989386923            0.000409120227           
       1.321511             0.00991522706            0.000411614013           
       1.324151              0.0100625399             0.00041629897           
       1.326792              0.0102078022            0.000415896533           
       1.329432              0.0105574187            0.000425165063           
       1.332072              0.0102840159             0.00041242823           
       1.334713              0.0101549314             0.00041491435           
       1.337353              0.0104246442            0.000413921705           
       1.339994              0.0101521378            0.000414293949           
       1.342634              0.0107110918             0.00041596611           
       1.345274              0.0110874376            0.000428743486           
       1.347915              0.0110148171            0.000428473189           
       1.350555              0.0111959709            0.000430294573           
       1.353195              0.0106153864            0.000410973826           
       1.355836              0.0101521996            0.000409490856           
       1.358476              0.0103611594            0.000412520131           
       1.361117              0.0102346529            0.000399708946           
       1.363757              0.0102798297            0.000413865999           
       1.366397             0.00966122559            0.000388725965           
       1.369038              0.0102241227            0.000408318479           
       1.371678              0.0110481222            0.000415882992           
       1.374319              0.0101800143            0.000402375906           
       1.376959              0.0099964235            0.000393241786           
       1.379599              0.0101004156            0.000402986752           
       1.382240              0.0100377577            0.000394104462           
       1.384880              0.0110686987            0.000418929615           
       1.387520              0.0105293212            0.000403817703           
       1.390161             0.00977831278            0.000388092392           
       1.392801              0.0106216099            0.000406891984           
       1.395442              0.0102576706            0.000395717231           
       1.398082              0.0108306963            0.000408011534           
       1.400722              0.0107197249            0.000404082145           
       1.403363              0.0111649133            0.000416214397           
       1.406003              0.0107618632            0.000398598693           
       1.408644              0.0104944373            0.000401878514           
       1.411284              0.0106786107            0.000403166354           
       1.413924              0.0111052439            0.000406070281           
       1.416565              0.0102301721             0.00038928511           
       1.419205               0.010309756            0.000394645906           
       1.421845              0.0107269185            0.000397490219           
       1.424486              0.0112169657            0.000408262724           
       1.427126              0.0110550524            0.000405049719           
       1.429767              0.0104422838            0.000387597674           
       1.432407              0.0101292089            0.000391359735           
       1.435047              0.0109579972            0.000394823546           
       1.437688              0.0105182507            0.000395386348           
       1.440328              0.0103369362            0.000384367922           
       1.442968                0.01045848            0.000391973032           
       1.445609              0.0107460278            0.000390789761           
       1.448249               0.010339527            0.000385805649           
       1.450890              0.0108965259            0.000393235864           
       1.453530               0.010252197            0.000384257702           
       1.456170              0.0107300511            0.000392225793           
       1.458811              0.0100728649            0.000377001246           
       1.461451              0.0101405778            0.000381046876           
       1.464092              0.0103970072            0.000382471461           
       1.466732             0.00987676961            0.000370493295           
       1.469372              0.0114190995            0.000397147457           
       1.472013              0.0109659431            0.000396150389           
       1.474653              0.0106078807            0.000380008495           
       1.477293              0.0107778455            0.000389488197           
       1.479934              0.0103675515            0.000378004478           
       1.482574              0.0115340576             0.00039771938           
       1.485215              0.0118134541            0.000403544109           
       1.487855              0.0108626492            0.000386883951           
       1.490495              0.0102405648            0.000374834047           
       1.493136              0.0103223467            0.000371392583           
       1.495776              0.0094788756            0.000362100339           
       1.498416              0.0105561161            0.000374698933           
       1.501057              0.0100909295            0.000369500893           
       1.503697              0.0108206263            0.000378948584           
       1.506338              0.0104062758            0.000374355232           
       1.508978              0.0104378772            0.000372709541           
       1.511618              0.0103615434            0.000371156532           
       1.514259              0.0105553666            0.000375288448           
       1.516899              0.0105887146            0.000376055854           
       1.519540              0.0102197693            0.000367396058           
       1.522180              0.0100323828            0.000359466344           
       1.524820             0.00994464547            0.000365119573           
       1.527461              0.0107039065            0.000370421632           
       1.530101              0.0100772258            0.000363130671           
       1.532741              0.0101950367            0.000363516659           
       1.535382              0.0104199914            0.000368314627           
       1.538022              0.0105885403            0.000367996585           
       1.540663              0.0109628167             0.00037798282           
       1.543303              0.0102796694            0.000361461598           
       1.545943              0.0101040558            0.000360369143           
       1.548584              0.0101098965            0.000362392821           
       1.551224             0.00973593128            0.000346509955           
       1.553864               0.010438913            0.000368174919           
       1.556505              0.0102309576            0.000358882295           
       1.559145              0.0104019194            0.000362704945           
       1.561786             0.00946064866            0.000344338238           
       1.564426             0.00905863434            0.000336638442           
       1.567066              0.0099752775            0.000350503062           
       1.569707             0.00966127982            0.000349936349           
       1.572347             0.00898190543            0.000333030849           
       1.574988             0.00975626222            0.000345716785           
       1.577628             0.00913104572            0.000341986208           
       1.580268              0.0102235688            0.000349379538           
       1.582909             0.00917013554            0.000337079329           
       1.585549             0.00875924372            0.000326362196           
       1.588189             0.00949784658             0.00034363933           
       1.590830             0.00939695154            0.000335941861           
       1.593470               0.009251675             0.00033605703           
       1.596111             0.00955159346            0.000338510217           
       1.598751              0.0094655805            0.000340427503           
       1.601391             0.00900261258             0.00032987522           
       1.604032              0.0094065057             0.00033437794           
       1.606672             0.00945780765            0.000342036804           
       1.609312             0.00891306189            0.000322160579           
       1.611953             0.00931497742            0.000334117036           
       1.614593             0.00901995451             0.00032628277           
       1.617234             0.00928093471            0.000332845448           
       1.619874             0.00840077875            0.000312944343           
       1.622514              0.0089694631            0.000326223044           
       1.625155             0.00922204729            0.000329966405           
       1.627795             0.00839430198            0.000311628674           
       1.630436             0.00941793772            0.000333400701           
       1.633076             0.00846886737            0.000314549604           
       1.635716             0.00850188177            0.000314612513           
       1.638357             0.00857259718            0.000314575974           
       1.640997             0.00896893509            0.000324282054           
       1.643637             0.00886692539             0.00031644538           
       1.646278               0.009011637            0.000323792352           
       1.648918             0.00859511928            0.000312144254           
       1.651559             0.00927010455            0.000328245016           
       1.654199             0.00847669621            0.000309581467           
       1.656839             0.00852106718            0.000310307084           
       1.659480             0.00858517792             0.00031421545           
       1.662120             0.00861783257            0.000310593858           
       1.664761             0.00827065552            0.000307567687           
       1.667401             0.00878162524            0.000313973788           
       1.670041             0.00865861838            0.000312123849           
       1.672682             0.00918092196            0.000318375626           
       1.675322             0.00845229991            0.000310882127           
       1.677962             0.00871370197            0.000309383938           
       1.680603             0.00829799766            0.000304593341           
       1.683243             0.00875544956             0.00031056195           
       1.685884             0.00807580129            0.000299399686           
       1.688524             0.00800849119            0.000297310518           
       1.691164             0.00847705915             0.00030509833           
       1.693805              0.0088918402            0.000315000253           
       1.696445             0.00870451054            0.000307338739           
       1.699085             0.00805677851            0.000296863129           
       1.701726             0.00854351186            0.000301722432           
       1.704366             0.00825291524            0.000303762337           
       1.707007             0.00840613197            0.000300027075           
       1.709647             0.00854342747            0.000306225463           
       1.712287             0.00768246996             0.00028553308           
       1.714928             0.00835722741            0.000300803074           
       1.717568             0.00778065268            0.000287572329           
       1.720209             0.00893811174            0.000310124117           
       1.722849             0.00842167409            0.000301514116           
       1.725489             0.00809369516            0.000290873357           
       1.728130             0.00883258386            0.000310046266           
       1.730770             0.00792923136             0.00028755428           
       1.733410             0.00885611827            0.000307886161           
       1.736051             0.00863378455            0.000299278225           
       1.738691             0.00842502239            0.000298655479           
       1.741332             0.00865466899            0.000300835087           
       1.743972             0.00801222907            0.000289561614           
       1.746612               0.008224804            0.000293445187           
       1.749253             0.00810383693            0.000292538051           
       1.751893             0.00831541437            0.000294554439           
       1.754533             0.00804159059            0.000285688468           
       1.757174             0.00795687076            0.000289492795           
       1.759814             0.00746013326            0.000276037352           
       1.762455             0.00881392029            0.000302594348           
       1.765095              0.0084412062            0.000291968748           
       1.767735              0.0081975929            0.000292613912           
       1.770376             0.00853463698            0.000294040867           
       1.773016             0.00907321536            0.000303655148           
       1.775657             0.00830716862            0.000291149073           
       1.778297             0.00756275057            0.000279156782           
       1.780937             0.00797935418            0.000285404496           
       1.783578             0.00793019768            0.000283187984           
       1.786218             0.00802871907            0.000289488619           
       1.788858             0.00832650606            0.000287483752           
       1.791499             0.00840788226            0.000294209346           
       1.794139             0.00827115399            0.000286418833           
       1.796780             0.00812879054            0.000285630356           
       1.799420             0.00834510444            0.000289037375           
       1.802060             0.00863222629            0.000290352017           
       1.804701             0.00906513385            0.000301535351           
       1.807341             0.00858236297            0.000290561276           
       1.809981              0.0086462161            0.000293577024           
       1.812622             0.00901629467            0.000298160734           
       1.815262             0.00903827004            0.000299588274           
       1.817903             0.00880190939            0.000291992489           
       1.820543             0.00831900184            0.000287378217           
       1.823183             0.00807136491            0.000278707085           
       1.825824             0.00853884023            0.000290975484           
       1.828464              0.0085602812            0.000290446689           
       1.831105             0.00869996678            0.000293940427           
       1.833745             0.00857010156            0.000291556244           
       1.836385             0.00851686742            0.000289518886           
       1.839026              0.0082658588            0.000289508185           
       1.841666             0.00801069862            0.000281304017           
       1.844306             0.00786015035            0.000282165987           
       1.846947             0.00808809421            0.000282549889           
       1.849587             0.00816186529            0.000287685144           
       1.852228             0.00829843494            0.000286996763           
       1.854868              0.0086957733            0.000299175557           
       1.857508             0.00815304543            0.000284339895           
       1.860149             0.00819605509            0.000287374017           
       1.862789             0.00845865425            0.000293233229           
       1.865429             0.00929342662            0.000308288879           
       1.868070             0.00787513671            0.000282810608           
       1.870710              0.0081115565            0.000287806013           
       1.873351             0.00774580437            0.000283038028           
       1.875991             0.00870771253            0.000301721651           
       1.878631             0.00775293408             0.00028205384           
       1.881272             0.00815809355            0.000288652152           
       1.883912             0.00864928145            0.000300700507           
       1.886553             0.00812057509            0.000287870041           
       1.889193             0.00843300867            0.000296744312           
       1.891833             0.00845633701            0.000293772888           
       1.894474             0.00813080515            0.000290342783           
       1.897114              0.0087091841             0.00029816123           
       1.899754             0.00795361586            0.000288129803           
       1.902395             0.00812417586            0.000291264872           
       1.905035             0.00822922715            0.000291993154           
       1.907676             0.00814636709            0.000290857141           
       1.910316             0.00845883489            0.000298272597           
       1.912956             0.00781826104            0.000286745034           
       1.915597             0.00854328794            0.000296620995           
       1.918237             0.00768613168            0.000285618439           
       1.920878             0.00828743746            0.000291331657           
       1.923518             0.00816614934             0.00029687538           
       1.926158              0.0083054038            0.000292516112           
       1.928799             0.00791144062            0.000289287923           
       1.931439             0.00831287319            0.000294160033           
       1.934079             0.00836915507            0.000298143138           
       1.936720             0.00771766332            0.000284618566           
       1.939360             0.00812179203            0.000294789393           
       1.942001             0.00788044527            0.000289259315           
       1.944641             0.00797485558             0.00028973297           
       1.947281             0.00799547554            0.000291508905           
       1.949922             0.00821472842            0.000295848597           
       1.952562             0.00813264711            0.000296899875           
       1.955202              0.0076781517            0.000281236342           
       1.957843             0.00821740559            0.000300187063           
       1.960483             0.00865333719            0.000303133028           
       1.963124             0.00790276571            0.000289473507           
       1.965764             0.00828730344            0.000296538532           
       1.968404             0.00775159062            0.000291922402           
       1.971045               0.007555461            0.000280981151           
       1.973685             0.00789637731            0.000292610868           
       1.976326             0.00828042762            0.000298335739           
       1.978966             0.00749013641            0.000285084754           
       1.981606             0.00769696893            0.000285937838           
       1.984247             0.00771123582            0.000288698316           
       1.986887             0.00784873513            0.000293984819           
       1.989527             0.00805763586            0.000291665778           
       1.992168             0.00754484761             0.00028904184           
       1.994808              0.0071128035            0.000277379758           
       1.997449             0.00760813161            0.000286454743           
       2.000089             0.00767501239            0.000286016914           
       2.002729             0.00760165322            0.000291169248           
       2.005370             0.00707832777            0.000275626921           
       2.008010             0.00781369737            0.000293435487           
       2.010650             0.00786591793            0.000293572168           
       2.013291             0.00797449684            0.000297273899           
       2.015931             0.00774391232             0.00029084786           
       2.018572             0.00803929394            0.000300278724           
       2.021212             0.00817725579            0.000300126357           
       2.023852             0.00780890381            0.000294829442           
       2.026493             0.00730547134            0.000283917739           
       2.029133             0.00773661964            0.000289946809           
       2.031774             0.00797920397            0.000297312965           
       2.034414             0.00759518331            0.000288339166           
       2.037054             0.00784864828            0.000296806785           
       2.039695             0.00790324098            0.000291970625           
       2.042335             0.00819748506            0.000302417525           
       2.044975             0.00758611564            0.000288596782           
       2.047616             0.00778224439            0.000293556154           
       2.050256              0.0071641466            0.000278344164           
       2.052897             0.00777293004            0.000298516263           
       2.055537             0.00767851279            0.000288608563           
       2.058177             0.00698668296            0.000277731775           
       2.060818             0.00770175085            0.000292473584           
       2.063458             0.00718721716            0.000282924173           
       2.066098              0.0072617062            0.000283124479           
       2.068739             0.00754982905            0.000291696652           
       2.071379             0.00715666081            0.000279805827           
       2.074020             0.00771008798            0.000294400143           
       2.076660             0.00698602115            0.000278336024           
       2.079300             0.00795522096            0.000296973481           
       2.081941             0.00772935885            0.000294506964           
       2.084581             0.00747854547            0.000289903849           
       2.087222              0.0073704664            0.000287997459           
       2.089862              0.0071823295            0.000280754525           
       2.092502             0.00696578553            0.000281513631           
       2.095143             0.00754710183            0.000288836998           
       2.097783             0.00743421288             0.00029103084           
       2.100423             0.00690103675            0.000275023871           
       2.103064             0.00722120623            0.000286188723           
       2.105704             0.00741620297            0.000288917476           
       2.108345             0.00743577083            0.000290626549           
       2.110985             0.00676688552            0.000273352711           
       2.113625             0.00773273071            0.000296814209           
       2.116266             0.00738501257            0.000287917118           
       2.118906             0.00799350415            0.000299326095           
       2.121546             0.00725883025            0.000285012778           
       2.124187             0.00782775583            0.000300065103           
       2.126827             0.00753449606            0.000289773736           
       2.129468             0.00745795698            0.000291306732           
       2.132108             0.00730920824            0.000287790303           
       2.134748             0.00740761667            0.000288629313           
       2.137389             0.00741166174            0.000291126221           
       2.140029             0.00696403999            0.000281512843           
       2.142670             0.00750203673            0.000292661925           
       2.145310             0.00702457518            0.000284277652           
       2.147950             0.00762088361            0.000297242583           
       2.150591             0.00776495939            0.000297287541           
       2.153231             0.00764464093            0.000299336304           
       2.155871             0.00732163275            0.000288713376           
       2.158512             0.00745850938            0.000296650405           
       2.161152             0.00720260403            0.000284234832           
       2.163793             0.00795967834            0.000303661675           
       2.166433             0.00687882062              0.0002773972           
       2.169073             0.00701511739            0.000286672319           
       2.171714             0.00744671785            0.000289346259           
       2.174354             0.00737586038            0.000292366777           
       2.176995             0.00696142782            0.000281678224           
       2.179635             0.00693894413            0.000286545176           
       2.182275             0.00793110556            0.000300265506           
       2.184916             0.00750707425              0.0002983026           
       2.187556             0.00717700034            0.000286975303           
       2.190196             0.00757681525            0.000299494943           
       2.192837             0.00726351165            0.000290026354           
       2.195477             0.00687751182            0.000284937117           
       2.198118             0.00706352179            0.000283433523           
       2.200758             0.00722819191            0.000291170827           
       2.203398             0.00714263889            0.000284642588           
       2.206039             0.00754725467            0.000297065997           
       2.208679             0.00776180622            0.000298309859           
       2.211319             0.00694050609            0.000283413931           
       2.213960             0.00730842068            0.000287736574           
       2.216600              0.0073937107            0.000296229632           
       2.219241             0.00782901987             0.00030039361           
       2.221881             0.00683727104            0.000282186522           
       2.224521             0.00699536847             0.00028444035           
       2.227162             0.00800536665            0.000309061507           
       2.229802             0.00679885092            0.000280197712           
       2.232443              0.0076668208            0.000298716017           
       2.235083             0.00715343751            0.000286811291           
       2.237723             0.00743821947            0.000294705919           
       2.240364             0.00752702035            0.000294951952           
       2.243004             0.00726753071            0.000290698796           
       2.245644              0.0076742974            0.000298033483           
       2.248285             0.00712195036            0.000288971732           
       2.250925             0.00722830636            0.000289760085           
       2.253566             0.00734417755            0.000292787485           
       2.256206             0.00712968344            0.000287616095           
       2.258846             0.00679153948            0.000280715277           
       2.261487             0.00722930383            0.000290122088           
       2.264127              0.0073928045            0.000296160432           
       2.266767             0.00696211919            0.000282758922           
       2.269408             0.00702403813            0.000287386699           
       2.272048             0.00686635074            0.000282394657           
       2.274689             0.00715412261            0.000289385049           
       2.277329             0.00763359123            0.000298527867           
       2.279969             0.00678815771            0.000282364909           
       2.282610             0.00677104233            0.000279258551           
       2.285250             0.00762429129            0.000300992508           
       2.287891             0.00703311794            0.000286170675           
       2.290531             0.00686388963            0.000284100963           
       2.293171             0.00791139053            0.000304994888           
       2.295812             0.00762336252            0.000297802437           
       2.298452             0.00700322849            0.000287261071           
       2.301092             0.00735738742            0.000296305315           
       2.303733             0.00695694871            0.000282429998           
       2.306373             0.00743798353            0.000299173874           
       2.309014             0.00700719421             0.00028478527           
       2.311654             0.00718028248             0.00029101705           
       2.314294             0.00691095096            0.000284883577           
       2.316935             0.00702364111             0.00028833193           
       2.319575             0.00747893399            0.000296416323           
       2.322215              0.0072481343            0.000295964965           
       2.324856             0.00710805201            0.000285730792           
       2.327496             0.00735073542            0.000297688744           
       2.330137             0.00667821714            0.000278511437           
       2.332777             0.00651921479             0.00027818556           
       2.335417             0.00706790203            0.000288786215           
       2.338058             0.00626328874            0.000272939962           
       2.340698             0.00784312594            0.000302421957           
       2.343339              0.0068684546            0.000288408258           
       2.345979             0.00742261817            0.000293834563           
       2.348619             0.00735196192            0.000297955219           
       2.351260              0.0069742026            0.000284030666           
       2.353900             0.00708928494            0.000292430417           
       2.356540             0.00704029794             0.00028741037           
       2.359181             0.00696723092            0.000289738349           
       2.361821             0.00697464499            0.000286360332           
       2.364462             0.00702756746            0.000292248725           
       2.367102             0.00687110682            0.000280620586           
       2.369742              0.0067397263            0.000287884754           
       2.372383             0.00698048688            0.000284440952           
       2.375023             0.00722579477            0.000296935669           
       2.377663             0.00721080013            0.000290323914           
       2.380304             0.00694816039            0.000288940892           
       2.382944             0.00689651208            0.000285049371           
       2.385585             0.00664580173            0.000282465505           
       2.388225             0.00694750597            0.000287501095           
       2.390865              0.0071861493            0.000293145911           
       2.393506             0.00680510048            0.000283953311           
       2.396146             0.00702288759            0.000289417385           
       2.398787             0.00755218011            0.000300388039           
       2.401427             0.00708202254            0.000289121279           
       2.404067              0.0069695229            0.000291193382           
       2.406708             0.00668320029            0.000281565191           
       2.409348             0.00709545858            0.000292302016           
       2.411988              0.0068495071            0.000286274052           
       2.414629             0.00708948968            0.000292198833           
       2.417269             0.00701135816            0.000287945327           
       2.419910             0.00719375324            0.000295344762           
       2.422550              0.0067748442            0.000282265704           
       2.425190             0.00738567211            0.000303994934           
       2.427831             0.00661188069            0.000276812383           
       2.430471             0.00701562089            0.000293473643           
       2.433112             0.00693815358            0.000284962337           
       2.435752             0.00720593785            0.000297761515           
       2.438392             0.00686307522            0.000285707058           
       2.441033             0.00683391834            0.000286405952           
       2.443673             0.00687269285            0.000287984291           
       2.446313             0.00743237976            0.000297885382           
       2.448954             0.00675126547            0.000286399336           
       2.451594             0.00701657736            0.000290220698           
       2.454235             0.00703196385            0.000289634702           
       2.456875             0.00708806201            0.000292260638           
       2.459515             0.00799385413            0.000310852097           
       2.462156             0.00736729913             0.00029688299           
       2.464796             0.00748980452            0.000304621308           
       2.467436             0.00798817223            0.000307996271           
       2.470077             0.00713456621            0.000295089228           
       2.472717             0.00756898116            0.000300137219           
       2.475358             0.00800278661            0.000312114853           
       2.477998             0.00738043014            0.000298133954           
       2.480638              0.0075102664            0.000301475643           
       2.483279             0.00747871012            0.000302134024           
       2.485919             0.00716578437            0.000293674711           
       2.488560              0.0078687645            0.000309019335           
       2.491200             0.00702684057            0.000291619518           
       2.493840             0.00714287959            0.000292416716           
       2.496481             0.00735566474              0.0003006207           
       2.499121             0.00700577093            0.000289477367           
       2.501761             0.00722980898            0.000299063015           
       2.504402             0.00732906288            0.000295338383           
       2.507042             0.00724113031            0.000298441287           
       2.509683             0.00747244972             0.00030040976           
       2.512323             0.00730041975            0.000298094289           
       2.514963              0.0128646472            0.000396498497           
       2.517604              0.0280020507            0.000582685162           
       2.520244              0.0393230573            0.000690649376           
       2.522884             0.00917557916            0.000332889177           
       2.525525             0.00973046122            0.000345622812           
       2.528165              0.0176372142            0.000463193736           
       2.530806              0.0242623842            0.000541229085           
       2.533446              0.0114520588            0.000375144507           
       2.536086              0.0115943708            0.000374300235           
       2.538727              0.0112621973            0.000371264472           
       2.541367              0.0110659779            0.000366963697           
       2.544008             0.00749307305              0.0003022219           
       2.546648             0.00707493571            0.000294001855           
       2.549288             0.00753972206            0.000303549136           
       2.551929              0.0074928765            0.000303604219           
       2.554569             0.00741002416            0.000299161981           
       2.557209             0.00713676353            0.000296911297           
       2.559850             0.00673430975            0.000285101603           
       2.562490             0.00706180595            0.000294077452           
       2.565131             0.00761255109            0.000305860865           
       2.567771             0.00697574487            0.000291236769           
       2.570411             0.00731373215            0.000301837668           
       2.573052             0.00657150768            0.000282772469           
       2.575692             0.00687259728            0.000289944987           
       2.578332             0.00713428863            0.000294540938           
       2.580973             0.00667393768            0.000287189444           
       2.583613             0.00753152536            0.000302303429           
       2.586254             0.00754844524            0.000305320263           
       2.588894             0.00714395443            0.000295442753           
       2.591534             0.00703263609            0.000293671076           
       2.594175             0.00686718476             0.00029188055           
       2.596815             0.00626650984            0.000276230671           
       2.599456             0.00728446658            0.000300259487           
       2.602096             0.00717140608            0.000296805354           
       2.604736             0.00745920891            0.000303496352           
       2.607377             0.00687413637            0.000290236603           
       2.610017              0.0069360461            0.000291438777           
       2.612657             0.00728737955            0.000300838969           
       2.615298             0.00656893134            0.000282830794           
       2.617938             0.00663990588            0.000286842191           
       2.620579             0.00687805169            0.000289556038           
       2.623219             0.00695035907            0.000295730054           
       2.625859             0.00734300266            0.000298845551           
       2.628500             0.00694269827             0.00029522977           
       2.631140             0.00671324969            0.000285190785           
       2.633780             0.00764451052            0.000308238242           
       2.636421             0.00701292798            0.000292544095           
       2.639061             0.00678204917            0.000291127958           
       2.641702             0.00714846744            0.000295693867           
       2.644342             0.00794012199            0.000314193688           
       2.646982             0.00707263057            0.000296282154           
       2.649623             0.00718038109            0.000300320181           
       2.652263             0.00662484879             0.00028617331           
       2.654904             0.00663067783            0.000287853714           
       2.657544             0.00677597876            0.000288943256           
       2.660184             0.00750617043            0.000304502534           
       2.662825             0.00704766632            0.000295763169           
       2.665465              0.0069284623            0.000293793606           
       2.668105             0.00662723721            0.000287449854           
       2.670746             0.00691078191            0.000291050979           
       2.673386             0.00722731793            0.000301249176           
       2.676027             0.00687977691             0.00029141824           
       2.678667             0.00755201502            0.000306911312           
       2.681307             0.00754604857            0.000304377615           
       2.683948             0.00764606268            0.000309430886           
       2.686588             0.00778888203            0.000309441494           
       2.689229             0.00706958669            0.000297452986           
       2.691869             0.00759407384            0.000305212295           
       2.694509              0.0068940396            0.000294792804           
       2.697150             0.00719091741            0.000296267988           
       2.699790             0.00716445511            0.000301865176           
       2.702430             0.00722872394             0.00029740256           
       2.705071             0.00721485553            0.000301183463           
       2.707711              0.0065929663            0.000285055648           
       2.710352             0.00656598771            0.000286090992           
       2.712992             0.00644731992            0.000284415646           
       2.715632             0.00693013522            0.000293195489           
       2.718273             0.00735251151            0.000303000727           
       2.720913             0.00728725835            0.000302156802           
       2.723553             0.00693553434            0.000293750429           
       2.726194             0.00708012988            0.000298228161           
       2.728834             0.00644117959            0.000281924557           
       2.731475             0.00668353686             0.00028968933           
       2.734115             0.00673223229            0.000289010274           
       2.736755             0.00721388428            0.000301147843           
       2.739396             0.00689356999            0.000292829368           
       2.742036             0.00763426234            0.000310263225           
       2.744677             0.00764731576            0.000310982371           
       2.747317             0.00771963508            0.000310931422           
       2.749957             0.00676443769            0.000293171207           
       2.752598             0.00681179027            0.000295081487           
       2.755238             0.00640254897            0.000285951254           
       2.757878             0.00692179056            0.000296473913           
       2.760519              0.0072813408             0.00030086595           
       2.763159              0.0070162558            0.000300140658           
       2.765800             0.00695686178            0.000293804837           
       2.768440              0.0070078374            0.000298763863           
       2.771080             0.00661207878            0.000287759551           
       2.773721             0.00692229847            0.000298044673           
       2.776361             0.00673151531            0.000290752143           
       2.779001             0.00723495182            0.000304597005           
       2.781642             0.00664930332            0.000290016243           
       2.784282             0.00670109842            0.000291245169           
       2.786923             0.00670653149            0.000289147294           
       2.789563              0.0067992244            0.000291723476           
       2.792203             0.00656900645            0.000288567397           
       2.794844             0.00617629866            0.000278535744           
       2.797484             0.00669438346            0.000290391282           
       2.800125             0.00675339072            0.000291291377           
       2.802765             0.00612742544             0.00028260704           
       2.805405             0.00665761118            0.000290327677           
       2.808046              0.0067307937             0.00029639515           
       2.810686             0.00632264123               0.000284207           
       2.813326             0.00704052998            0.000303618605           
       2.815967             0.00643319531            0.000288398818           
       2.818607             0.00663110385            0.000295728259           
       2.821248              0.0065569966            0.000290404382           
       2.823888             0.00665210849            0.000297214296           
       2.826528             0.00713575584            0.000305992776           
       2.829169             0.00687532808            0.000299031055           
       2.831809             0.00668086626             0.00029503009           
       2.834449             0.00675765232            0.000291541486           
       2.837090             0.00689534056            0.000296268888           
       2.839730             0.00689140913            0.000294081067           
       2.842371             0.00725160713            0.000303770512           
       2.845011             0.00659760531            0.000289102576           
       2.847651             0.00706555112            0.000299728925           
       2.850292             0.00677240791            0.000291778005           
       2.852932             0.00710820708             0.00029946021           
       2.855573             0.00685311705             0.00029662021           
       2.858213             0.00719078553            0.000300430754           
       2.860853             0.00696342432            0.000297855894           
       2.863494             0.00665619129            0.000291912126           
       2.866134             0.00705028813            0.000304643592           
       2.868774             0.00663367615            0.000290982149           
       2.871415             0.00687734698            0.000299210587           
       2.874055             0.00687357892            0.000300610327           
       2.876696              0.0066221081            0.000292403254           
       2.879336              0.0066676605            0.000295354878           
       2.881976             0.00699297309            0.000302225254           
       2.884617             0.00620841011             0.00028318531           
       2.887257             0.00661675747            0.000290311608           
       2.889897             0.00685116399            0.000298795176           
       2.892538             0.00665331133            0.000292407607           
       2.895178             0.00649758491            0.000286018531           
       2.897819             0.00679910745             0.00029558883           
       2.900459             0.00667881395            0.000290536705           
       2.903099              0.0066072433            0.000290484663           
       2.905740              0.0066283711            0.000287701042           
       2.908380             0.00679283366            0.000295130954           
       2.911021             0.00723036958            0.000305066367           
       2.913661             0.00682702441            0.000293173012           
       2.916301             0.00669411212            0.000294435017           
       2.918942             0.00655300241            0.000286920319           
       2.921582             0.00724840056            0.000304926371           
       2.924222             0.00683619587            0.000294411539           
       2.926863             0.00680486546            0.000294516341           
       2.929503             0.00704798364            0.000303058579           
       2.932144             0.00716732814            0.000300601308           
       2.934784             0.00735098074            0.000305721941           
       2.937424              0.0072076195            0.000303286042           
       2.940065             0.00744152909            0.000308418846           
       2.942705             0.00618533871             0.00028203901           
       2.945346             0.00676946492            0.000293313372           
       2.947986             0.00701865826            0.000299707645           
       2.950626             0.00811231045            0.000323203717           
       2.953267             0.00992240647            0.000353650445           
       2.955907             0.00953317221            0.000351227545           
       2.958547             0.00878122305             0.00033363469           
       2.961188             0.00797033894             0.00032063206           
       2.963828             0.00740474142            0.000307294882           
       2.966469              0.0067717519            0.000293940245           
       2.969109             0.00702950137             0.00030101369           
       2.971749             0.00744125603            0.000308793273           
       2.974390             0.00872484104            0.000335284554           
       2.977030             0.00960006235            0.000351030214           
       2.979670             0.00943326981            0.000345724033           
       2.982311             0.00796454603            0.000319964618           
       2.984951                0.00713861            0.000303703465           
       2.987592             0.00785030923            0.000317408078           
       2.990232             0.00695601554            0.000299545246           
       2.992872             0.00810000401            0.000320710824           
       2.995513             0.00808740096            0.000322978477           
       2.998153             0.00954829354            0.000353203388           
       3.000794              0.0151142904            0.000437914966           
       3.003434              0.0369930625            0.000692367801           
       3.006074              0.0404305224            0.000726154107           
       3.008715              0.0226164267            0.000547243501           
       3.011355              0.0206631004            0.000528517723           
       3.013995              0.0182728086             0.00049457876           
       3.016636              0.0301304971            0.000636281774           
       3.019276               0.136329347             0.00138579015           
       3.021917               0.358226218             0.00220827262           
       3.024557               0.133272231             0.00135767945           
       3.027197              0.0936097832             0.00115695555           
       3.029838              0.0871651408             0.00111108102           
       3.032478              0.0716328963             0.00101325313           
       3.035118              0.0471269015            0.000826087198           
       3.037759              0.0936723881             0.00116670609           
       3.040399               0.107324665             0.00126312611           
       3.043040              0.0511139724            0.000880165875           
       3.045680              0.0613012251            0.000949049042           
       3.048320              0.0742725342             0.00106140687           
       3.050961               0.112642902             0.00132023992           
       3.053601               0.130190775             0.00141307819           
       3.056242              0.0634139578            0.000992542812           
       3.058882               0.132234173             0.00145459323           
       3.061522               0.283657789             0.00211566843           
       3.064163              0.0532542358            0.000918368247           
       3.066803              0.0189332243            0.000558174368           
       3.069443              0.0248450637             0.00063514883           
       3.072084              0.0905687311             0.00122347039           
       3.074724              0.0578794654            0.000983837838           
       3.077365               0.011872268            0.000445263468           
       3.080005              0.0090826832            0.000393773793           
       3.082645             0.00864460903            0.000386116246           
       3.085286             0.00864395683            0.000386172099           
       3.087926             0.00758076566            0.000363944851           
       3.090566             0.00767585294            0.000369992564           
       3.093207             0.00781920968            0.000369397022           
       3.095847             0.00768554643            0.000373902658           
       3.098488             0.00761964112            0.000371621001           
       3.101128             0.00773638721            0.000376496928           
       3.103768             0.00857099116            0.000398517785           
       3.106409             0.00865473699             0.00040314224           
       3.109049             0.00916221787            0.000418017796           
       3.111690               0.011799092             0.00047250389           
       3.114330               0.013079069            0.000501899377           
       3.116970              0.0157309442            0.000558091821           
       3.119611              0.0168780398            0.000574320276           
       3.122251              0.0125869739            0.000500029968           
       3.124891             0.00814086737            0.000404086196           
       3.127532             0.00813618896            0.000411247108           
       3.130172             0.00713736429            0.000377254092           
       3.132813             0.00930817012            0.000439589571           
       3.135453              0.0090947761            0.000443687394           
       3.138093             0.00720235473            0.000385469045           
       3.140734             0.00569113967            0.000349027982           
       3.143374             0.00687013819             0.00038934272           
       3.146014              0.0058986599            0.000358147527           
       3.148655             0.00573825081            0.000356025355           
       3.151295             0.00613401523            0.000371011694           
       3.153936             0.00608419612            0.000374956789           
       3.156576             0.00694796481            0.000396090227           
       3.159216             0.00625502133             0.00037889361           
       3.161857              0.0062812175            0.000384343909           
       3.164497             0.00642069512            0.000396781252           
       3.167138             0.00636486844            0.000385574574           
       3.169778             0.00633760791            0.000391695337           
       3.172418             0.00596502993            0.000382227907           
       3.175059              0.0058256915            0.000382680639           
       3.177699             0.00683071013            0.000412740328           
       3.180339             0.00594399778             0.00038846151           
       3.182980             0.00614380275            0.000400268105           
       3.185620             0.00571742261            0.000390348567           
       3.188261             0.00583243284            0.000389089813           
       3.190901             0.00547801534            0.000382893153           
       3.193541             0.00592762393             0.00039960879           
       3.196182             0.00529308644            0.000385471814           
       3.198822             0.00588010694            0.000401359782           
       3.201463             0.00622345856            0.000418251303           
       3.204103             0.00577679514            0.000408328672           
       3.206743             0.00536582931            0.000396863535           
       3.209384             0.00558322752            0.000403018623           
       3.212024             0.00679533579            0.000446198373           
       3.214664             0.00653709208            0.000445979317           
       3.217305             0.00648821657            0.000454674899           
       3.219945             0.00622589095            0.000441664211           
       3.222586             0.00601568481            0.000436601129           
       3.225226             0.00530110827            0.000419083937           
       3.227866             0.00595015646            0.000447433746           
       3.230507             0.00568429464            0.000442542014           
       3.233147             0.00595683436             0.00044632612           
       3.235787              0.0062578811            0.000457589689           
       3.238428             0.00595983236            0.000454446545           
       3.241068             0.00580643608             0.00045765582           
       3.243709             0.00548786106            0.000442454363           
       3.246349             0.00680914936              0.0004900909           
       3.248989             0.00593930326            0.000468180016           
       3.251630             0.00499317993            0.000431172333           
       3.254270             0.00523608986            0.000455107939           
       3.256911             0.00522283809            0.000443142965           
       3.259551             0.00522924727            0.000453213048           
       3.262191              0.0055994184            0.000473294494           
       3.264832              0.0056700713            0.000480739999           
       3.267472             0.00532989749            0.000472705985           
       3.270112             0.00564026186            0.000487658589           
       3.272753             0.00552405076            0.000488539461           
       3.275393             0.00581041814             0.00050362144           
       3.278034             0.00529129927            0.000490387962           
       3.280674             0.00489781338            0.000473171269           
       3.283314             0.00551527553            0.000504886715           
       3.285955             0.00626165688            0.000548070838           
       3.288595             0.00549738636            0.000519264206           
       3.291235             0.00526127403            0.000510974737           
       3.293876             0.00497457013            0.000499799341           
       3.296516             0.00695307332            0.000602941567           
       3.299157             0.00658565082            0.000595663746           
       3.301797             0.00642880515            0.000588777858           
       3.304437              0.0061141123             0.00058494948           
       3.307078             0.00566391284            0.000568471318           
       3.309718             0.00560595256             0.00057120067           
       3.312359             0.00563282103             0.00058413698           
       3.314999             0.00570828848            0.000594205836           
       3.317639             0.00672551135            0.000651925678           
       3.320280             0.00539905834            0.000592639527           
       3.322920             0.00545885215            0.000604828126           
       3.325560             0.00483154183            0.000580003142           
       3.328201             0.00598311208            0.000648161215           
       3.330841             0.00526338936            0.000622713405           
       3.333482             0.00555676215            0.000647956618           
       3.336122             0.00525223823            0.000643643404           
       3.338762             0.00527315358            0.000650822383           
       3.341403             0.00512431202            0.000647523309           
       3.344043               0.005141955            0.000673393764           
       3.346683             0.00427856363            0.000620492587           
       3.349324             0.00468631386            0.000659439074           
       3.351964             0.00536676644            0.000728379147           
       3.354605             0.00542534615            0.000740636534           
       3.357245             0.00490408447             0.00072890934           
       3.359885             0.00538692568            0.000764224765           
       3.362526             0.00650819025             0.00088295312           
       3.365166             0.00588159832            0.000829010324           
       3.367807              0.0061053389            0.000904148075           
       3.370447             0.00595988199            0.000893659035           
       3.373087             0.00413025013             0.00078515903           
       3.375728             0.00641054865             0.00097078181           
       3.378368             0.00542765279            0.000965239112           
       3.381008              0.0048426755            0.000903791293           
       3.383649             0.00624442246             0.00111068317           
       3.386289             0.00447783696            0.000940929881           
       3.388930             0.00488744358             0.00107960283           
       3.391570             0.00612979273              0.0012095619           
       3.394210             0.00536514565              0.0012124931           
       3.396851             0.00721539927             0.00152314686           
       3.399491             0.00554593661             0.00135959786           
       3.402131             0.00774859908             0.00190231494           
       3.404772             0.00774793803             0.00190304905           
       3.407412             0.00274025678              0.0014043658           
       3.410053             0.00224265764             0.00132291791           
       3.412693              0.0029389799             0.00214262783           
       3.415333             0.00645392459             0.00389029557           
