################################################################################
# EDF_DataBlockID                     0.Image.Psd
# EDF_BinarySize                      2105344
# EDF_HeaderSize                      2560
# ByteOrder                           LowByteFirst
# DataType                            FloatValue
# Dim_1                               512
# Dim_2                               1028
# Image                               0
# HeaderID                            EH:000000:000000:000000
# Size                                2105344
# Center_1                            304.9000
# Center_2                            588.7000
# Comment                             Xenocs_Cell_Window - front_window_open_only
# DDummy                              0.6
# Date                                2025-10-18T20:25:51
# Delta                               21.910000
# Dummy                               -1.5
# ExposureTime                        360
# Gamma                               15.360000
# Intensity1                          9.0129e-10
# PSize_1                             7.5e-05
# PSize_2                             7.5e-05
# Pressure                            0.033267
# SampleDistance                      0.115750
# SampleEnvKind                       large
# SampleEnvPN                         ElectroChemical cell
# SampleEnvSN                         1141
# Thickness                           0
# Wavelength                          1.541891e-10
# Wavelength                          1.54189e-10
# aux                                 0
# aux_dial                            0.002375
# beamx                               588.429
# beamx_dial                          588.429
# beamz                               657.855
# beamz_dial                          657.855
# det0x                               -0.000396875
# det0x_dial                          6.36905
# det0xvd                             -0.0005
# det0xvd_dial                        -0.0005
# det0y                               450.002
# det0y_dial                          481.635
# det0z                               0
# det0z_dial                          1.2295
# det0zvd                             0
# det0zvd_dial                        0
# mag                                 1.818
# mag_dial                            1.818
# om                                  0.2499
# om_dial                             -0.610199
# phi                                 -0.0120535
# phi_dial                            0
# ry                                  0.599993
# ry_dial                             0.599993
# s1bot                               0.8
# s1bot_dial                          -1.66094
# s1hl                                0.8
# s1hl_dial                           -0.608437
# s1hr                                0.8
# s1hr_dial                           0.970938
# s1top                               0.8
# s1top_dial                          -0.461562
# s2bot                               0.45
# s2bot_dial                          1.36109
# s2hl                                0.45
# s2hl_dial                           -0.83375
# s2hr                                0.45
# s2hr_dial                           -0.118594
# s2top                               0.45
# s2top_dial                          1.44734
# w2theta                             32
# w2theta_dial                        32
# waxsch                              19.2605
# waxsch_dial                         -32.7238
# waxsh                               137.085
# waxsh_dial                          -43.5335
# waxsth                              26.0607
# waxsth_dial                         -19.4068
# waxsz                               67.0407
# waxsz_dial                          -23.7962
# wind                                65.9854
# wind_dial                           66.0041
# wpsi                                124
# wpsi_dial                           124
# wstod                               115
# wstod_dial                          115
# x                                   0
# x_dial                              1.00969
# z                                   0
# z_dial                              13.3172
# CountCutoff                         6807993
# DetectorModel                       Dectris EIGER2 Si 500K, S/N E-01-0554
# ThresholdSetting                    4023.88989258
# Saturation                          0
# FlatField                           Corrected
# BackgroundReductionExtra            0.02
# BackgroundCorrectionConstant        0.0026712
# Detector                            0
# Monitor                             0
# Pil_Roi0                            0
# SumForIntensity1                    3.24464e+08
# TransmittedFlux                     901290
# det                                 0
# mon                                 0
# pilai0                              3.24464e+08
# pilai1                              708609
# pilct0                              5.61507e+08
# pilct1                              708609
# pilroi0                             0
# pilroi1                             0
# sec                                 1
# title                               20251017__1_00239.edf
# usaxs0                              0
# Operation                           Azimuthal average I(q)
# Error_model                         ErrorModel.poisson
# Geometrical_correction              True
# Transmission_correction             True
# Thickness_correction                False
# Binning mode                        Uniform
# Binning factor                      1.0
# Psi                                 0.0
# Omega                               0.2499
# MaskInvalidPixels                   True
# DetectorEdge                        3
# MaskFiles                           ['20251017__1_00233_mask.edf']
################################################################################
    q(A⁻¹)                Intensity(a.u.)            Sigma_I(a.u.)            
       0.690460              0.0153263722              0.0113708336           
       0.693100             0.00151117215             0.00159631038           
       0.695741             0.00687541201               0.002876576           
       0.698381             0.00400596155             0.00205364817           
       0.701021             0.00682175534             0.00218718536           
       0.703662             0.00638796019             0.00195911964           
       0.706302             0.00598754432             0.00183180855           
       0.708942             0.00869652617             0.00196097719           
       0.711583             0.00609913771             0.00164192876           
       0.714223             0.00555477056             0.00136545495           
       0.716864              0.0085920862             0.00173294722           
       0.719504             0.00826794927              0.0015733009           
       0.722144             0.00742872164             0.00144030884           
       0.724785             0.00829141203             0.00149670337           
       0.727425              0.0048462426             0.00106135807           
       0.730065             0.00731062057             0.00134130652           
       0.732706             0.00547968788             0.00104425526           
       0.735346             0.00688409139             0.00126428333           
       0.737987             0.00480800197            0.000914516112           
       0.740627             0.00475721225            0.000996536259           
       0.743267             0.00779576009             0.00109731572           
       0.745908             0.00525774811            0.000965796014           
       0.748548             0.00671570708              0.0010180324           
       0.751189             0.00614231038            0.000964429819           
       0.753829             0.00581248673             0.00094664216           
       0.756469             0.00730036064            0.000997831119           
       0.759110             0.00633103161            0.000961137939           
       0.761750              0.0053483201            0.000808491307           
       0.764390             0.00654814536            0.000960297023           
       0.767031             0.00824335454            0.000974970037           
       0.769671             0.00815779805             0.00102860803           
       0.772312             0.00652036199            0.000838002884           
       0.774952             0.00562501132            0.000834425703           
       0.777592             0.00607455988            0.000793119196           
       0.780233             0.00569600526             0.00080964212           
       0.782873             0.00812790266            0.000884414642           
       0.785513             0.00746800716             0.00090180666           
       0.788154             0.00610886215            0.000749162911           
       0.790794             0.00670920789            0.000812568582           
       0.793435             0.00730517578            0.000814390446           
       0.796075             0.00626092315            0.000757922865           
       0.798715             0.00810668653            0.000857513776           
       0.801356             0.00621115469             0.00073050763           
       0.803996             0.00678129181            0.000775497109           
       0.806637             0.00653726931            0.000719739393           
       0.809277             0.00619796234            0.000733163678           
       0.811917             0.00711491741            0.000743337335           
       0.814558             0.00680929087            0.000744966443           
       0.817198             0.00707794771            0.000724203337           
       0.819838             0.00591837954            0.000690775834           
       0.822479             0.00640327773            0.000662151997           
       0.825119             0.00636779558            0.000709347786           
       0.827760             0.00682582213            0.000680511852           
       0.830400              0.0064385991            0.000696370943           
       0.833040             0.00677939286            0.000666890591           
       0.835681             0.00742956874            0.000731098855           
       0.838321              0.0053957704            0.000583160717           
       0.840961             0.00643030843             0.00066541863           
       0.843602             0.00576702523             0.00059359139           
       0.846242             0.00642946923            0.000648885641           
       0.848883             0.00701144253            0.000659169141           
       0.851523              0.0060062602            0.000614664091           
       0.854163             0.00719885788            0.000665108576           
       0.856804             0.00719286548            0.000647820617           
       0.859444              0.0074067909            0.000662110039           
       0.862085             0.00640058201            0.000606542238           
       0.864725             0.00731989771            0.000646258756           
       0.867365             0.00632420643            0.000596397172           
       0.870006             0.00568520633            0.000573354376           
       0.872646             0.00721072388            0.000617610951           
       0.875286             0.00757650546            0.000654653199           
       0.877927             0.00659008393            0.000584577927           
       0.880567             0.00706524942            0.000617110796           
       0.883208             0.00839463085            0.000653240451           
       0.885848             0.00772047509             0.00064270753           
       0.888488             0.00779875762             0.00061418977           
       0.891129             0.00701550459            0.000612344627           
       0.893769             0.00679428948            0.000569618995           
       0.896410             0.00676673921            0.000585973529           
       0.899050             0.00798598851            0.000613787288           
       0.901690             0.00537381939            0.000514004693           
       0.904331             0.00741704934            0.000582784046           
       0.906971             0.00792789648            0.000622158968           
       0.909611             0.00658202684            0.000544123369           
       0.912252             0.00597042274            0.000527206964           
       0.914892             0.00703706791            0.000557869478           
       0.917533             0.00702126392            0.000569816327           
       0.920173             0.00664655976            0.000531810493           
       0.922813             0.00627007043            0.000539781957           
       0.925454             0.00703898409            0.000542788447           
       0.928094             0.00680335621            0.000545080435           
       0.930734             0.00782937904            0.000570784574           
       0.933375             0.00607545297            0.000513521479           
       0.936015             0.00758513438            0.000549009252           
       0.938656             0.00644429136            0.000527267071           
       0.941296              0.0068628396            0.000524530432           
       0.943936             0.00676004711            0.000529963017           
       0.946577             0.00636738395            0.000495342263           
       0.949217             0.00695912979            0.000536136469           
       0.951858             0.00810013754            0.000546829117           
       0.954498             0.00744017736            0.000551354288           
       0.957138             0.00796462073            0.000548292228           
       0.959779              0.0073104504            0.000536782647           
       0.962419             0.00688266991            0.000501411016           
       0.965059             0.00780147964            0.000548994294           
       0.967700             0.00726627719             0.00051269497           
       0.970340             0.00799870379            0.000553029257           
       0.972981             0.00756274685            0.000519210291           
       0.975621             0.00714585837            0.000515264448           
       0.978261              0.0080497454            0.000521794505           
       0.980902             0.00697181434            0.000508725037           
       0.983542             0.00745858662            0.000510863989           
       0.986182             0.00750790837             0.00051930022           
       0.988823             0.00773618514            0.000510127385           
       0.991463             0.00660551911            0.000482636163           
       0.994104             0.00674349535            0.000471213351           
       0.996744             0.00708807563            0.000498768869           
       0.999384             0.00781507733            0.000505947833           
       1.002025             0.00712499653            0.000496544488           
       1.004665             0.00748814589            0.000488189899           
       1.007306             0.00731763525            0.000498770642           
       1.009946             0.00710688741            0.000472627238           
       1.012586             0.00666190276            0.000470754586           
       1.015227             0.00814134226            0.000504654903           
       1.017867             0.00775379426            0.000506610366           
       1.020507             0.00794491507            0.000493510724           
       1.023148               0.008673885            0.000521882796           
       1.025788             0.00657818557            0.000449830833           
       1.028429             0.00872122647            0.000529269248           
       1.031069             0.00745945301            0.000471596708           
       1.033709             0.00820154046            0.000503994327           
       1.036350             0.00776376375            0.000477500756           
       1.038990             0.00934118233            0.000536698523           
       1.041630             0.00697404596            0.000454815522           
       1.044271             0.00819263644            0.000493007447           
       1.046911             0.00712745841            0.000451298581           
       1.049552             0.00703943118            0.000464666044           
       1.052192             0.00791353402            0.000470516725           
       1.054832              0.0088705143            0.000507842345           
       1.057473             0.00775035274             0.00046868615           
       1.060113             0.00739120186            0.000462654169           
       1.062754             0.00779565833            0.000469888975           
       1.065394             0.00785499796             0.00046671132           
       1.068034             0.00862397909            0.000487129583           
       1.070675             0.00706709633            0.000448728334           
       1.073315             0.00760507727            0.000451266117           
       1.075955             0.00772926077            0.000462565461           
       1.078596             0.00743696258            0.000452837869           
       1.081236              0.0086145682            0.000480144493           
       1.083877             0.00871825949            0.000498114667           
       1.086517             0.00811473772            0.000469693471           
       1.089157             0.00854776237            0.000485597019           
       1.091798             0.00874038441            0.000480634191           
       1.094438             0.00807522341            0.000469326049           
       1.097078             0.00847351671            0.000468406639           
       1.099719             0.00772631255            0.000458741061           
       1.102359             0.00846799039            0.000454954598           
       1.105000             0.00865290037            0.000478007403           
       1.107640             0.00832716184            0.000453638026           
       1.110280             0.00850724361            0.000467698055           
       1.112921             0.00807680252             0.00044746661           
       1.115561             0.00824652211            0.000457881521           
       1.118202             0.00831621848             0.00044639192           
       1.120842             0.00851821314            0.000466015226           
       1.123482             0.00802318188            0.000439584475           
       1.126123             0.00853715856            0.000456276024           
       1.128763             0.00815091582            0.000443623702           
       1.131403             0.00888006103            0.000462321257           
       1.134044             0.00880094616            0.000459458318           
       1.136684             0.00863950411            0.000458645816           
       1.139325             0.00893943272            0.000453394101           
       1.141965             0.00817854351            0.000439341212           
       1.144605              0.0086947591            0.000455655121           
       1.147246              0.0084871296            0.000441655848           
       1.149886             0.00820049802            0.000437221392           
       1.152527             0.00816687595            0.000436761374           
       1.155167             0.00849453445            0.000439173892           
       1.157807             0.00881379962            0.000447659082           
       1.160448             0.00855072509            0.000446960509           
       1.163088             0.00802508492            0.000416940252           
       1.165728             0.00789021659            0.000430462359           
       1.168369             0.00878414813            0.000437978655           
       1.171009             0.00835585662             0.00043070949           
       1.173650             0.00913092403            0.000446995567           
       1.176290             0.00836426385            0.000432838544           
       1.178930             0.00897874561             0.00043584945           
       1.181571             0.00862926999            0.000441238811           
       1.184211             0.00858015739            0.000426693254           
       1.186851             0.00863486021            0.000431998152           
       1.189492             0.00974932206             0.00046157939           
       1.192132             0.00893758985            0.000435400882           
       1.194773             0.00927279556             0.00044081501           
       1.197413             0.00879968519            0.000432925274           
       1.200053             0.00889504737            0.000432526185           
       1.202694             0.00939642782            0.000441199029           
       1.205334             0.00864184457            0.000427738284           
       1.207975              0.0095404233            0.000440620639           
       1.210615              0.0103837612            0.000469403438           
       1.213255             0.00929992825            0.000432478602           
       1.215896             0.00939983695            0.000443037026           
       1.218536             0.00949341041            0.000432412851           
       1.221176             0.00868217054              0.0004233952           
       1.223817             0.00940984845            0.000431596413           
       1.226457             0.00880493095            0.000422796136           
       1.229098             0.00904229828            0.000421957145           
       1.231738             0.00954613015            0.000439658511           
       1.234378             0.00933518156            0.000426325824           
       1.237019             0.00991365812            0.000442880089           
       1.239659             0.00982836666             0.00044073224           
       1.242299             0.00929471473            0.000426408867           
       1.244940             0.00846483872            0.000402535469           
       1.247580              0.0100500015            0.000440545996           
       1.250221             0.00950295294            0.000435380939           
       1.252861             0.00904846118            0.000409013923           
       1.255501             0.00980929049            0.000437886489           
       1.258142             0.00987954722            0.000430763889           
       1.260782             0.00991889224            0.000436496237           
       1.263423             0.00975522695            0.000424303953           
       1.266063              0.0098335503            0.000433944023           
       1.268703             0.00951462718            0.000416094686           
       1.271344              0.0100499649             0.00043695424           
       1.273984             0.00929141287            0.000413581806           
       1.276624              0.0101345874            0.000429304695           
       1.279265             0.00944348537            0.000415313386           
       1.281905              0.0107133753            0.000445083633           
       1.284546              0.0100181208            0.000425697476           
       1.287186              0.0100645392             0.00042709247           
       1.289826              0.0100962302              0.0004299826           
       1.292467             0.00942457299            0.000408019353           
       1.295107             0.00970627618             0.00042137098           
       1.297747              0.0105283268            0.000427341019           
       1.300388             0.00985714651            0.000424113473           
       1.303028              0.0103042284            0.000422598159           
       1.305669              0.0110124454            0.000442524055           
       1.308309              0.0103722298            0.000423010753           
       1.310949              0.0102212589            0.000425154823           
       1.313590              0.0102342788             0.00041884172           
       1.316230              0.0100989992            0.000423553504           
       1.318871              0.0103951737             0.00042044885           
       1.321511              0.0106358367            0.000427419247           
       1.324151              0.0101519695            0.000419233624           
       1.326792              0.0101357624            0.000415505535           
       1.329432              0.0102223507            0.000419453198           
       1.332072             0.00973681727            0.000402350875           
       1.334713              0.0111214653            0.000435341821           
       1.337353              0.0103177713            0.000412866794           
       1.339994              0.0109592245            0.000431567941           
       1.342634               0.010137538            0.000405729655           
       1.345274              0.0110019717            0.000428199964           
       1.347915              0.0104032783             0.00041749333           
       1.350555              0.0105413848            0.000418613517           
       1.353195              0.0102585662            0.000405059684           
       1.355836              0.0113719951            0.000434522123           
       1.358476              0.0103184713            0.000412741441           
       1.361117              0.0105151115            0.000406203516           
       1.363757              0.0105175524            0.000419714097           
       1.366397              0.0109069344            0.000414102847           
       1.369038              0.0107719883            0.000420207085           
       1.371678              0.0108268834            0.000412769957           
       1.374319              0.0106097867            0.000411851381           
       1.376959              0.0102641553            0.000399510657           
       1.379599              0.0105741644             0.00041340298           
       1.382240              0.0102835188            0.000399938577           
       1.384880              0.0108055093            0.000414996876           
       1.387520              0.0115960779            0.000424883783           
       1.390161              0.0106037768            0.000405193883           
       1.392801              0.0107775887            0.000410935999           
       1.395442              0.0105841209            0.000403011473           
       1.398082              0.0103646401             0.00040017577           
       1.400722              0.0103075379            0.000397269056           
       1.403363              0.0105168565            0.000405006339           
       1.406003              0.0101347958            0.000387818984           
       1.408644              0.0104392312            0.000401863805           
       1.411284              0.0108101161            0.000406697505           
       1.413924              0.0108019331            0.000401529376           
       1.416565              0.0104706855             0.00039486015           
       1.419205               0.010612906            0.000401448642           
       1.421845               0.010932679            0.000402329318           
       1.424486             0.00993024012            0.000385133533           
       1.427126              0.0104966925            0.000395715986           
       1.429767              0.0106567948            0.000392578167           
       1.432407              0.0100561485            0.000390961185           
       1.435047              0.0106854777            0.000390898361           
       1.437688              0.0102926803            0.000392142196           
       1.440328              0.0106004057             0.00039024908           
       1.442968             0.00986047447            0.000381592857           
       1.445609              0.0103916311            0.000385292437           
       1.448249              0.0107037018            0.000393563373           
       1.450890              0.0105338747            0.000387643576           
       1.453530             0.00980007279            0.000376667531           
       1.456170              0.0104032041            0.000387211493           
       1.458811              0.0101084138            0.000378649347           
       1.461451              0.0103788228            0.000386500918           
       1.464092              0.0102956293            0.000381593298           
       1.466732              0.0105006217            0.000383009744           
       1.469372              0.0106824873            0.000385124791           
       1.472013              0.0110581444            0.000398848211           
       1.474653              0.0103336398            0.000376040894           
       1.477293              0.0105807435            0.000386915247           
       1.479934               0.010612715            0.000383443624           
       1.482574               0.010755111            0.000385054826           
       1.485215               0.010527394             0.00038193761           
       1.487855              0.0105611802            0.000382470981           
       1.490495             0.00990187716            0.000369543246           
       1.493136             0.00989660301            0.000364599868           
       1.495776             0.00973592426            0.000367932828           
       1.498416             0.00991723788            0.000364128916           
       1.501057              0.0107634042            0.000382608098           
       1.503697              0.0101476393            0.000367930701           
       1.506338             0.00964371984            0.000361316638           
       1.508978              0.0103928135            0.000372872549           
       1.511618              0.0104329864             0.00037340371           
       1.514259              0.0100042544            0.000366311308           
       1.516899             0.00983432453            0.000363356075           
       1.519540              0.0102199839            0.000368356619           
       1.522180              0.0100158048            0.000360104492           
       1.524820             0.00920848368            0.000352260502           
       1.527461             0.00987718494            0.000356755935           
       1.530101             0.00958874388            0.000355142562           
       1.532741             0.00936522584            0.000349315997           
       1.535382              0.0099452975            0.000360764339           
       1.538022             0.00945592458            0.000348664047           
       1.540663              0.0104217257            0.000369496416           
       1.543303              0.0101574802            0.000360242549           
       1.545943             0.00994986704            0.000358540149           
       1.548584             0.00999737139            0.000361308825           
       1.551224             0.00976722585            0.000347970164           
       1.553864             0.00914431488             0.00034548689           
       1.556505             0.00948977859            0.000346538392           
       1.559145              0.0094214018            0.000346085913           
       1.561786             0.00979656902            0.000351310575           
       1.564426             0.00988884558            0.000352642431           
       1.567066             0.00975896515            0.000347584685           
       1.569707             0.00961899236            0.000350078905           
       1.572347             0.00927653356            0.000339330198           
       1.574988              0.0097852727            0.000347131981           
       1.577628              0.0100167408            0.000359121144           
       1.580268             0.00850296368             0.00031945581           
       1.582909             0.00993846664              0.0003518304           
       1.585549             0.00894542828            0.000330671326           
       1.588189             0.00909083729            0.000337071208           
       1.590830             0.00885721322            0.000327000643           
       1.593470             0.00971685519            0.000345298818           
       1.596111             0.00875548073            0.000324940086           
       1.598751             0.00924377015            0.000337291197           
       1.601391             0.00944395218            0.000338744091           
       1.604032             0.00872919923            0.000322953567           
       1.606672             0.00904787523            0.000335413338           
       1.609312              0.0085327389            0.000316033114           
       1.611953             0.00887458439            0.000326972445           
       1.614593             0.00855654342            0.000318618194           
       1.617234             0.00879384359             0.00032483705           
       1.619874             0.00820166351            0.000310018586           
       1.622514             0.00871612084             0.00032242036           
       1.625155             0.00912858998             0.00032914505           
       1.627795             0.00914032326            0.000326028316           
       1.630436             0.00865632676            0.000320468131           
       1.633076             0.00891511484            0.000323570838           
       1.635716             0.00874180007            0.000319851448           
       1.638357             0.00835673828            0.000311398967           
       1.640997             0.00872463337            0.000320667905           
       1.643637             0.00921645458            0.000323462249           
       1.646278             0.00751435464            0.000296442189           
       1.648918             0.00802285902            0.000302359346           
       1.651559             0.00891153815            0.000322672226           
       1.654199             0.00877134987            0.000315736134           
       1.656839             0.00867106275            0.000313841439           
       1.659480             0.00826656694             0.00030913267           
       1.662120             0.00825022879            0.000304688638           
       1.664761             0.00826739891            0.000308307871           
       1.667401             0.00850040183            0.000309709907           
       1.670041             0.00820894714            0.000304702354           
       1.672682             0.00810674574            0.000299950345           
       1.675322             0.00847753351            0.000312156576           
       1.677962             0.00809399142            0.000298955954           
       1.680603             0.00817282395            0.000303074396           
       1.683243             0.00802791915             0.00029815352           
       1.685884             0.00861457296            0.000310030793           
       1.688524              0.0085045065             0.00030717715           
       1.691164             0.00873436769            0.000310500558           
       1.693805              0.0084126978            0.000307193589           
       1.696445             0.00770568777            0.000289921389           
       1.699085             0.00762250901            0.000289503586           
       1.701726             0.00827724243            0.000297756774           
       1.704366             0.00850394843             0.00030915051           
       1.707007             0.00837123834            0.000300183368           
       1.709647             0.00799555069            0.000297015318           
       1.712287             0.00813097706            0.000294514573           
       1.714928              0.0081070925            0.000297038778           
       1.717568             0.00829686382            0.000297731981           
       1.720209             0.00858907656            0.000304800247           
       1.722849             0.00861476829            0.000305745209           
       1.725489             0.00774658636            0.000285308776           
       1.728130             0.00823567625            0.000300166125           
       1.730770             0.00792754774            0.000288272457           
       1.733410             0.00903931194            0.000311864238           
       1.736051             0.00847446431            0.000297276151           
       1.738691             0.00847839084            0.000300380058           
       1.741332             0.00867620506            0.000301993494           
       1.743972             0.00835492463            0.000296459249           
       1.746612             0.00861241183            0.000301062062           
       1.749253             0.00844417651             0.00029939538           
       1.751893             0.00810003384            0.000291471749           
       1.754533             0.00807389427             0.00028700713           
       1.757174             0.00814166446            0.000293597689           
       1.759814             0.00836207039            0.000293008957           
       1.762455             0.00831435038            0.000294659087           
       1.765095             0.00792290945            0.000283599777           
       1.767735             0.00847085326            0.000298225518           
       1.770376             0.00850623243            0.000294315556           
       1.773016               0.008464409             0.00029405447           
       1.775657             0.00844591352            0.000294334818           
       1.778297             0.00844677407            0.000295789777           
       1.780937             0.00833838925            0.000292514532           
       1.783578             0.00922901584            0.000306295021           
       1.786218             0.00888439828            0.000305317571           
       1.788858             0.00835773598             0.00028877238           
       1.791499              0.0083242279            0.000293504362           
       1.794139             0.00840820011            0.000289533929           
       1.796780              0.0083256866            0.000289821667           
       1.799420             0.00912615855            0.000303048087           
       1.802060             0.00887871755            0.000295235098           
       1.804701             0.00876261734            0.000297233307           
       1.807341             0.00929932573            0.000303242069           
       1.809981             0.00932280289             0.00030564106           
       1.812622             0.00917673599            0.000301585144           
       1.815262             0.00868496923            0.000294439263           
       1.817903             0.00873931797            0.000291710075           
       1.820543             0.00915553293            0.000302266123           
       1.823183             0.00894823179            0.000294220247           
       1.825824             0.00848234377            0.000290766464           
       1.828464             0.00879631561            0.000295190408           
       1.831105              0.0086644126            0.000294103039           
       1.833745             0.00840700655            0.000289520607           
       1.836385             0.00858735002            0.000291471411           
       1.839026             0.00810710439            0.000287461153           
       1.841666             0.00838911621            0.000288621227           
       1.844306             0.00879332652            0.000299223198           
       1.846947             0.00880187576              0.0002955215           
       1.849587               0.008108008            0.000287481058           
       1.852228             0.00874781582            0.000295432414           
       1.854868             0.00845080454             0.00029569941           
       1.857508             0.00821904449            0.000286231851           
       1.860149             0.00873140493            0.000297383286           
       1.862789             0.00935038249            0.000309105449           
       1.865429             0.00862436571             0.00029775765           
       1.868070               0.008736874            0.000298657969           
       1.870710             0.00869637602            0.000298776438           
       1.873351             0.00856367802            0.000298380968           
       1.875991             0.00939486219            0.000314216558           
       1.878631             0.00853665351            0.000296737357           
       1.881272             0.00943111034            0.000311165398           
       1.883912             0.00861061445            0.000300808874           
       1.886553             0.00942147151            0.000310879347           
       1.889193             0.00923207936            0.000311293692           
       1.891833             0.00870260521            0.000298795903           
       1.894474             0.00854660939            0.000298449333           
       1.897114             0.00890072067             0.00030220695           
       1.899754             0.00863355716            0.000300974836           
       1.902395             0.00913388564            0.000309639005           
       1.905035             0.00887613477            0.000304042653           
       1.907676             0.00890151683            0.000304831033           
       1.910316              0.0090879719            0.000309970951           
       1.912956             0.00896485599            0.000307851949           
       1.915597             0.00923365582            0.000309175899           
       1.918237             0.00935558178            0.000315934575           
       1.920878             0.00906215048            0.000305437676           
       1.923518             0.00863531383            0.000306079337           
       1.926158             0.00913335117            0.000307548717           
       1.928799             0.00912463827            0.000311486889           
       1.931439             0.00873071626            0.000302247314           
       1.934079             0.00862909431            0.000303526102           
       1.936720             0.00859669135            0.000301172563           
       1.939360             0.00908220705            0.000312543914           
       1.942001             0.00910178517            0.000311676954           
       1.944641             0.00866689957            0.000302829244           
       1.947281             0.00894866562            0.000309199116           
       1.949922             0.00847745385            0.000301324921           
       1.952562             0.00845542876            0.000303522782           
       1.955202              0.0087687701            0.000301329648           
       1.957843             0.00858255838            0.000307583064           
       1.960483             0.00868743749            0.000304520627           
       1.963124             0.00843470361            0.000299835885           
       1.965764             0.00870842318            0.000304771043           
       1.968404             0.00887058081             0.00031309596           
       1.971045             0.00857169803            0.000300061006           
       1.973685             0.00924415081            0.000317423768           
       1.976326             0.00854263418            0.000303811515           
       1.978966             0.00863512064            0.000306897082           
       1.981606             0.00875774394             0.00030579988           
       1.984247             0.00890793077            0.000311100065           
       1.986887             0.00871267979            0.000310549168           
       1.989527             0.00830379361            0.000296858409           
       1.992168             0.00811131196             0.00030047646           
       1.994808             0.00837194456            0.000301715038           
       1.997449              0.0076114291            0.000287262898           
       2.000089             0.00752098846            0.000283869714           
       2.002729             0.00816989622            0.000302641983           
       2.005370             0.00789111089            0.000291779515           
       2.008010             0.00823378621            0.000302004602           
       2.010650             0.00816365903            0.000299855507           
       2.013291             0.00804140809            0.000299295792           
       2.015931             0.00799826182            0.000296355433           
       2.018572             0.00818344751             0.00030374783           
       2.021212              0.0081414039            0.000300247515           
       2.023852              0.0085228017             0.00030881361           
       2.026493             0.00765124032            0.000291315609           
       2.029133             0.00787751907            0.000293337015           
       2.031774             0.00845630427            0.000306869546           
       2.034414             0.00746411521            0.000286584766           
       2.037054             0.00839216491            0.000307710858           
       2.039695             0.00781947715              0.0002911755           
       2.042335             0.00780132242            0.000295787746           
       2.044975             0.00749407806            0.000287587687           
       2.047616             0.00766689242            0.000292131149           
       2.050256             0.00795317415            0.000294035359           
       2.052897             0.00767467888            0.000297396018           
       2.055537             0.00753541629            0.000286651162           
       2.058177             0.00762271296            0.000290853477           
       2.060818             0.00776491044            0.000294435089           
       2.063458             0.00792945165            0.000297948137           
       2.066098             0.00736979837              0.0002859666           
       2.068739             0.00771087847            0.000295559036           
       2.071379             0.00734807242            0.000284261261           
       2.074020             0.00793446826            0.000299430951           
       2.076660             0.00795557376            0.000297796542           
       2.079300              0.0071655279            0.000282582373           
       2.081941             0.00782309419             0.00029705888           
       2.084581             0.00777726263             0.00029640684           
       2.087222             0.00742207429            0.000289756538           
       2.089862             0.00786999143            0.000294652857           
       2.092502             0.00728383634             0.00028861832           
       2.095143             0.00740020509            0.000286756996           
       2.097783             0.00788152482            0.000300438833           
       2.100423             0.00765476323            0.000290407967           
       2.103064             0.00735151341            0.000289511251           
       2.105704             0.00752518269            0.000291790372           
       2.108345               0.007905712            0.000300449999           
       2.110985             0.00751809888            0.000288876633           
       2.113625             0.00724243659            0.000287998364           
       2.116266             0.00702777116            0.000281598346           
       2.118906             0.00704304245            0.000281699162           
       2.121546             0.00707942484            0.000282201569           
       2.124187             0.00745125328            0.000293522193           
       2.126827              0.0074293097            0.000288493195           
       2.129468             0.00742929651            0.000291503555           
       2.132108             0.00774764582            0.000297067604           
       2.134748             0.00713419152            0.000283989964           
       2.137389             0.00707679457            0.000285214269           
       2.140029             0.00725944605             0.00028816999           
       2.142670             0.00766033631            0.000296503604           
       2.145310             0.00726219861            0.000289798527           
       2.147950             0.00754188296            0.000296467903           
       2.150591             0.00787669798            0.000300198582           
       2.153231             0.00729142966            0.000293100539           
       2.155871             0.00748926752            0.000292760198           
       2.158512             0.00722969464            0.000292825119           
       2.161152             0.00784030163            0.000297322886           
       2.163793             0.00777724971            0.000300943295           
       2.166433             0.00724134968            0.000285354198           
       2.169073             0.00773593087            0.000301824162           
       2.171714              0.0077459946             0.00029587171           
       2.174354             0.00747556496            0.000295102652           
       2.176995             0.00691929567            0.000281555802           
       2.179635             0.00728220789            0.000294311592           
       2.182275             0.00763308833            0.000295337197           
       2.184916             0.00725746913            0.000294065251           
       2.187556             0.00724205281            0.000289023602           
       2.190196              0.0076798276            0.000302309159           
       2.192837             0.00762829216            0.000297993801           
       2.195477             0.00748279188            0.000297985143           
       2.198118             0.00718789358            0.000286662455           
       2.200758             0.00754812093            0.000298319659           
       2.203398              0.0074412085            0.000291287397           
       2.206039             0.00771378902             0.00030110762           
       2.208679              0.0074579067            0.000293173093           
       2.211319             0.00705692471            0.000286525179           
       2.213960             0.00785954974            0.000299165534           
       2.216600             0.00751468752            0.000299420935           
       2.219241             0.00708914556             0.00028659154           
       2.221881             0.00715678528            0.000289456488           
       2.224521             0.00737743653            0.000292865405           
       2.227162             0.00743717675            0.000298667373           
       2.229802             0.00753132569            0.000295673203           
       2.232443             0.00752095127            0.000296631089           
       2.235083             0.00704421553            0.000285354414           
       2.237723             0.00692667319            0.000285132117           
       2.240364             0.00715795567            0.000288379018           
       2.243004              0.0072560879             0.00029122623           
       2.245644             0.00746094354            0.000294626664           
       2.248285             0.00709359509            0.000289146882           
       2.250925             0.00730174938            0.000291986768           
       2.253566             0.00718843707            0.000290420714           
       2.256206             0.00740702913            0.000293920253           
       2.258846             0.00779780313            0.000301576498           
       2.261487             0.00701479799            0.000286529648           
       2.264127             0.00729561161            0.000294973297           
       2.266767             0.00676007844             0.00027935142           
       2.269408              0.0072849932            0.000293438595           
       2.272048             0.00755631312            0.000297014657           
       2.274689             0.00712267603            0.000289500236           
       2.277329             0.00717993259             0.00029027527           
       2.279969             0.00698321769            0.000287138864           
       2.282610             0.00697843596            0.000284241306           
       2.285250             0.00734850406            0.000296268065           
       2.287891             0.00733956908            0.000293100045           
       2.290531             0.00744396556            0.000296632794           
       2.293171              0.0074574078            0.000296885865           
       2.295812             0.00700497551            0.000286211907           
       2.298452             0.00704046801             0.00028877382           
       2.301092             0.00666122521             0.00028267286           
       2.303733             0.00728711986            0.000289806955           
       2.306373             0.00663280071            0.000283252636           
       2.309014              0.0070608526            0.000286617988           
       2.311654             0.00754316573            0.000299056964           
       2.314294             0.00686247097            0.000284621822           
       2.316935             0.00698114398            0.000288206855           
       2.319575             0.00720956154             0.00029178712           
       2.322215             0.00730523514            0.000297902202           
       2.324856             0.00736704524            0.000291647219           
       2.327496              0.0070255165            0.000291786754           
       2.330137             0.00658586629            0.000277299219           
       2.332777             0.00746666952            0.000298490029           
       2.335417             0.00702742634            0.000288707972           
       2.338058             0.00696964337             0.00028866931           
       2.340698             0.00689929286            0.000284380911           
       2.343339             0.00716184509            0.000295270503           
       2.345979             0.00715640514             0.00028926854           
       2.348619             0.00715639797            0.000294731151           
       2.351260             0.00719991731            0.000289341769           
       2.353900             0.00721342633            0.000295747821           
       2.356540              0.0068501328             0.00028424042           
       2.359181             0.00717381658             0.00029476807           
       2.361821             0.00670918618            0.000281589302           
       2.364462             0.00722628757            0.000297123607           
       2.367102             0.00679691019            0.000279828129           
       2.369742             0.00685979097            0.000291193987           
       2.372383              0.0075172751            0.000295943573           
       2.375023             0.00693395086            0.000291634812           
       2.377663             0.00700014364             0.00028679659           
       2.380304             0.00747857531            0.000300547385           
       2.382944             0.00688828089            0.000285621033           
       2.385585             0.00676108933            0.000285646884           
       2.388225             0.00708082716            0.000291002326           
       2.390865              0.0064342829            0.000278109116           
       2.393506             0.00707452158            0.000290273661           
       2.396146             0.00686666479            0.000286925473           
       2.398787             0.00739270294            0.000297973416           
       2.401427             0.00741267932            0.000296564004           
       2.404067             0.00711759336            0.000295036664           
       2.406708             0.00746963505            0.000298446056           
       2.409348             0.00696402486             0.00029033618           
       2.411988              0.0071766824            0.000293794469           
       2.414629             0.00691312378            0.000289292772           
       2.417269             0.00662262159            0.000280577832           
       2.419910             0.00664084268            0.000284506718           
       2.422550             0.00703753149            0.000288435066           
       2.425190              0.0076714709            0.000310627628           
       2.427831             0.00662663952            0.000277842776           
       2.430471             0.00728792596            0.000299893773           
       2.433112             0.00701516122            0.000287285538           
       2.435752             0.00708572184            0.000296036175           
       2.438392             0.00693799117            0.000288010212           
       2.441033             0.00682681791            0.000287002534           
       2.443673             0.00698449757            0.000291073281           
       2.446313             0.00725872353            0.000295151367           
       2.448954             0.00694915105            0.000291322961           
       2.451594               0.006962993            0.000289863231           
       2.454235             0.00716406391            0.000293103788           
       2.456875             0.00738068108            0.000299008972           
       2.459515             0.00766073492            0.000305098684           
       2.462156              0.0075557418            0.000301438794           
       2.464796             0.00782454352            0.000312164828           
       2.467436             0.00777514179            0.000304652912           
       2.470077             0.00807287793            0.000314711917           
       2.472717             0.00733871945             0.00029630618           
       2.475358              0.0079468566            0.000311832181           
       2.477998             0.00757976459            0.000302919958           
       2.480638             0.00777814865            0.000307604089           
       2.483279             0.00695187224            0.000292056315           
       2.485919             0.00711365618            0.000293366517           
       2.488560             0.00751142243            0.000302707303           
       2.491200             0.00702063015            0.000292249658           
       2.493840             0.00696949881            0.000289598115           
       2.496481             0.00706163119             0.00029531796           
       2.499121             0.00676246163            0.000285146786           
       2.501761             0.00673379283            0.000289373394           
       2.504402             0.00704340401             0.00029027952           
       2.507042             0.00709005941            0.000296080691           
       2.509683             0.00735301296            0.000298775257           
       2.512323             0.00771797614            0.000307298812           
       2.514963              0.0139851271            0.000414481584           
       2.517604              0.0319436893             0.00062396611           
       2.520244              0.0207607249            0.000503135161           
       2.522884             0.00826748749            0.000316810183           
       2.525525             0.00878824027            0.000329318457           
       2.528165              0.0162639395            0.000445953919           
       2.530806              0.0202247022            0.000495432945           
       2.533446              0.0156458076            0.000439627879           
       2.536086              0.0128170391            0.000394566117           
       2.538727              0.0128283471            0.000397270761           
       2.541367              0.0120499968            0.000383929157           
       2.544008             0.00841216967            0.000321054961           
       2.546648             0.00731148726            0.000299654711           
       2.549288             0.00680277635            0.000289083867           
       2.551929             0.00723276214            0.000299064616           
       2.554569             0.00694594282             0.00029039666           
       2.557209             0.00640212114            0.000281946974           
       2.559850             0.00704846978            0.000292435412           
       2.562490             0.00748000659            0.000303447982           
       2.565131              0.0076637661            0.000307687143           
       2.567771             0.00723087096             0.00029728681           
       2.570411             0.00701219911            0.000296319654           
       2.573052             0.00697337294             0.00029204884           
       2.575692             0.00710327301            0.000295538344           
       2.578332             0.00623759022            0.000276126555           
       2.580973             0.00722947852             0.00029968176           
       2.583613             0.00729304676            0.000298253485           
       2.586254             0.00750936515            0.000305321868           
       2.588894             0.00709907523            0.000295280195           
       2.591534             0.00695873451            0.000292884684           
       2.594175             0.00690130308            0.000293366666           
       2.596815             0.00709628153            0.000294716112           
       2.599456             0.00755598331            0.000306600445           
       2.602096             0.00738556498            0.000301988817           
       2.604736              0.0071524624            0.000297964351           
       2.607377             0.00693289458            0.000292233389           
       2.610017             0.00675883576            0.000288440821           
       2.612657             0.00686049296            0.000292654687           
       2.615298             0.00687983528            0.000290200247           
       2.617938             0.00666533029            0.000288139192           
       2.620579             0.00672316546            0.000287022692           
       2.623219             0.00651600362            0.000287085942           
       2.625859             0.00651259664            0.000282173657           
       2.628500             0.00701370471            0.000297508355           
       2.631140             0.00697855692            0.000291528708           
       2.633780             0.00680260796            0.000291527028           
       2.636421              0.0075108663             0.00030354011           
       2.639061             0.00697636781            0.000296038065           
       2.641702             0.00692381899            0.000291768312           
       2.644342              0.0068217712            0.000291985893           
       2.646982             0.00692615507            0.000293961557           
       2.649623             0.00703475497            0.000298033225           
       2.652263             0.00733769922            0.000301960767           
       2.654904             0.00700394283            0.000296615332           
       2.657544             0.00728819345            0.000300445646           
       2.660184             0.00716415956            0.000298259133           
       2.662825             0.00755457821            0.000307012431           
       2.665465              0.0075786359            0.000308069609           
       2.668105             0.00704229022            0.000297086023           
       2.670746             0.00724723748            0.000298827899           
       2.673386             0.00693095376            0.000295776193           
       2.676027             0.00678253784            0.000290104919           
       2.678667             0.00755272422            0.000307724952           
       2.681307             0.00708717692            0.000295746065           
       2.683948              0.0075215386            0.000307700005           
       2.686588             0.00708696064            0.000295937787           
       2.689229              0.0073588608            0.000304267832           
       2.691869             0.00788733448            0.000311859639           
       2.694509             0.00741886487            0.000306604234           
       2.697150             0.00797611274            0.000312836664           
       2.699790             0.00698575648            0.000298852971           
       2.702430              0.0070355732            0.000294166391           
       2.705071             0.00637586401            0.000283867878           
       2.707711             0.00655468335            0.000284966958           
       2.710352             0.00652197527            0.000285873007           
       2.712992             0.00643329176            0.000284845867           
       2.715632             0.00644166332            0.000283409802           
       2.718273             0.00636415498            0.000282634786           
       2.720913             0.00618356838            0.000279061099           
       2.723553             0.00679079432            0.000291425977           
       2.726194             0.00659155219             0.00028850365           
       2.728834             0.00737656413            0.000302486982           
       2.731475             0.00638051448            0.000283783147           
       2.734115             0.00756972532            0.000307258016           
       2.736755             0.00757308242            0.000309357706           
       2.739396             0.00673894933             0.00029028063           
       2.742036             0.00697806507             0.00029740187           
       2.744677             0.00694176223            0.000297060941           
       2.747317             0.00715260435            0.000300073577           
       2.749957             0.00707304649             0.00030056482           
       2.752598             0.00665740752            0.000292478082           
       2.755238             0.00747569029            0.000309792306           
       2.757878             0.00743427665            0.000308053426           
       2.760519             0.00737653094            0.000303614753           
       2.763159             0.00733191853            0.000307617022           
       2.765800             0.00753343776            0.000306533738           
       2.768440             0.00660619573            0.000290831339           
       2.771080             0.00686157821             0.00029390175           
       2.773721             0.00664531783            0.000292781416           
       2.776361             0.00700134808            0.000297294426           
       2.779001             0.00663610158            0.000292478364           
       2.781642             0.00687662941             0.00029570011           
       2.784282             0.00690051005            0.000296316445           
       2.786923             0.00664797782            0.000288631918           
       2.789563             0.00701217699            0.000297028111           
       2.792203             0.00606174525            0.000277923765           
       2.794844             0.00652044219            0.000286935802           
       2.797484             0.00697172854            0.000297117301           
       2.800125             0.00706833277            0.000298782124           
       2.802765             0.00667293094            0.000295686639           
       2.805405             0.00635812729            0.000284461346           
       2.808046             0.00637204476            0.000289139075           
       2.810686             0.00627978417            0.000283979693           
       2.813326             0.00636215582            0.000289372517           
       2.815967             0.00677786464             0.00029679459           
       2.818607             0.00676774769            0.000299537649           
       2.821248             0.00669286237            0.000294161654           
       2.823888             0.00658230863            0.000296420736           
       2.826528             0.00703467275            0.000304608878           
       2.829169             0.00702624514            0.000303082356           
       2.831809             0.00664739932            0.000295056532           
       2.834449             0.00661675763            0.000289237422           
       2.837090             0.00665468727            0.000291810852           
       2.839730             0.00663960156            0.000289409967           
       2.842371             0.00682705609            0.000295511673           
       2.845011             0.00703894125            0.000299393172           
       2.847651              0.0066959272            0.000292543479           
       2.850292             0.00683401181            0.000293865285           
       2.852932             0.00689829444             0.00029577358           
       2.855573             0.00739230626             0.00030887024           
       2.858213             0.00669636531            0.000290673349           
       2.860853             0.00682621371            0.000295674679           
       2.863494             0.00689219695            0.000297815642           
       2.866134             0.00651778983            0.000293675837           
       2.868774             0.00740849435            0.000308307164           
       2.871415             0.00673441614            0.000296856039           
       2.874055             0.00655041217            0.000294222698           
       2.876696             0.00720429378            0.000305780088           
       2.879336             0.00687298807            0.000300648907           
       2.881976             0.00730835249             0.00030976974           
       2.884617             0.00629410156            0.000285875424           
       2.887257             0.00685671957            0.000296298472           
       2.889897             0.00679668585            0.000298379804           
       2.892538             0.00652277551            0.000290278844           
       2.895178              0.0062998622            0.000282366481           
       2.897819             0.00654899569            0.000290856547           
       2.900459             0.00737871876            0.000306176065           
       2.903099             0.00682243651            0.000295945837           
       2.905740             0.00647408645            0.000285073404           
       2.908380             0.00640327841             0.00028728959           
       2.911021             0.00667349691            0.000293846309           
       2.913661             0.00651176604            0.000287069519           
       2.916301             0.00696373777            0.000301088105           
       2.918942             0.00714033717            0.000300282433           
       2.921582             0.00705418736            0.000301596859           
       2.924222             0.00693296695            0.000297260066           
       2.926863             0.00629746129            0.000284061125           
       2.929503             0.00705555086            0.000304010811           
       2.932144              0.0071520375            0.000301062414           
       2.934784             0.00707084894            0.000300620901           
       2.937424             0.00715033495             0.00030286502           
       2.940065             0.00697035554            0.000299272428           
       2.942705             0.00692906507            0.000299291363           
       2.945346             0.00646586076            0.000287406967           
       2.947986             0.00810591237            0.000322924615           
       2.950626             0.00804299461            0.000322657957           
       2.953267              0.0105316301            0.000365294326           
       2.955907             0.00939337507            0.000349550644           
       2.958547             0.00778654191            0.000314989034           
       2.961188             0.00705683902            0.000302484469           
       2.963828             0.00698984323            0.000299339151           
       2.966469             0.00666432089            0.000292358623           
       2.969109             0.00676921958            0.000296157485           
       2.971749              0.0074079315            0.000308903345           
       2.974390             0.00929507501            0.000346968989           
       2.977030             0.00943762004            0.000348953968           
       2.979670              0.0081911184            0.000322997729           
       2.982311             0.00770947235            0.000315619041           
       2.984951             0.00757883401            0.000313742637           
       2.987592             0.00772648477            0.000315714839           
       2.990232             0.00780312261            0.000318086912           
       2.992872             0.00846397858            0.000328690918           
       2.995513             0.00968549623            0.000354372048           
       2.998153              0.0114739865            0.000388193781           
       3.000794              0.0201970272            0.000507538576           
       3.003434              0.0373503033            0.000697514454           
       3.006074              0.0267026395            0.000591671491           
       3.008715              0.0179689802            0.000489057314           
       3.011355              0.0190059672            0.000508201831           
       3.013995               0.015412188            0.000455401424           
       3.016636              0.0288446628            0.000624178052           
       3.019276               0.152706297             0.00147048531           
       3.021917               0.431284101              0.0024293224           
       3.024557               0.151262037             0.00145017966           
       3.027197              0.0804312915             0.00107522165           
       3.029838               0.109565684             0.00124893839           
       3.032478              0.0857832607             0.00111171227           
       3.035118              0.0553466816            0.000897566569           
       3.037759              0.0933841431             0.00116794304           
       3.040399              0.0748264243             0.00105743544           
       3.043040              0.0572646657            0.000934044356           
       3.045680              0.0532234202            0.000886614631           
       3.048320              0.0811829086             0.00111257553           
       3.050961               0.211178454             0.00181240468           
       3.053601               0.112817151             0.00131884293           
       3.056242              0.0491482231            0.000876072716           
       3.058882               0.202346629             0.00180404398           
       3.061522               0.235715911             0.00193363333           
       3.064163              0.0326150317            0.000720573207           
       3.066803              0.0183195825            0.000550484141           
       3.069443              0.0361947083            0.000768612442           
       3.072084              0.0967164589             0.00126760499           
       3.074724              0.0386774335            0.000806342435           
       3.077365              0.0107933327            0.000425654695           
       3.080005             0.00859079574            0.000383959881           
       3.082645             0.00862006414            0.000386571712           
       3.085286             0.00881895511            0.000391077284           
       3.087926             0.00845197688            0.000385289896           
       3.090566             0.00717222922            0.000358580097           
       3.093207             0.00749645394            0.000362634671           
       3.095847             0.00740002172              0.0003678469           
       3.098488             0.00809355393            0.000384000728           
       3.101128              0.0076045538            0.000374247262           
       3.103768             0.00851255805            0.000398191196           
       3.106409              0.0094410343            0.000422153682           
       3.109049             0.00929206706            0.000422065697           
       3.111690              0.0118697524            0.000475150674           
       3.114330              0.0164496654             0.00056433398           
       3.116970              0.0170686325            0.000582850338           
       3.119611              0.0157349795            0.000555975511           
       3.122251              0.0100922022            0.000448908435           
       3.124891             0.00881673179            0.000421620691           
       3.127532             0.00771899648            0.000401607848           
       3.130172             0.00956110289            0.000437772473           
       3.132813             0.00842828053            0.000419386205           
       3.135453             0.00732663306            0.000399266369           
       3.138093             0.00676375305            0.000374520463           
       3.140734             0.00597753964            0.000358633853           
       3.143374             0.00668251584            0.000384989378           
       3.146014             0.00582581424            0.000356856014           
       3.148655             0.00577856334            0.000358204081           
       3.151295             0.00630254578            0.000377053176           
       3.153936             0.00753598947            0.000418387967           
       3.156576              0.0060269148             0.00036986418           
       3.159216             0.00658099651            0.000389653103           
       3.161857             0.00605841907            0.000378448831           
       3.164497             0.00693235072            0.000413361294           
       3.167138             0.00587601691            0.000371436532           
       3.169778             0.00625503008            0.000390148413           
       3.172418              0.0059405734            0.000382436811           
       3.175059             0.00572492169            0.000380344333           
       3.177699             0.00578590721            0.000380854539           
       3.180339             0.00584205923            0.000386118917           
       3.182980              0.0055000614            0.000379704328           
       3.185620             0.00565201762            0.000389120061           
       3.188261              0.0062473153            0.000403739393           
       3.190901              0.0063915891            0.000414667338           
       3.193541             0.00557060332            0.000388396452           
       3.196182             0.00563302636            0.000398692854           
       3.198822             0.00568585439            0.000395702261           
       3.201463             0.00637986815             0.00042457721           
       3.204103             0.00655693507            0.000436160428           
       3.206743             0.00600428756            0.000420903888           
       3.209384             0.00555963216            0.000403213354           
       3.212024             0.00638159364            0.000433527369           
       3.214664             0.00601821366            0.000429028007           
       3.217305             0.00624372275            0.000447187382           
       3.219945             0.00555213554             0.00041816811           
       3.222586             0.00560382926            0.000422487818           
       3.225226             0.00542995733            0.000425250969           
       3.227866             0.00581930699            0.000443638883           
       3.230507             0.00504847094            0.000418143715           
       3.233147             0.00591824842            0.000446036668           
       3.235787             0.00481983927            0.000402631992           
       3.238428             0.00544293241            0.000435423315           
       3.241068             0.00580556059            0.000458812955           
       3.243709             0.00516695806            0.000430441189           
       3.246349             0.00540353122            0.000437722092           
       3.248989             0.00671340753            0.000499052291           
       3.251630             0.00598552948            0.000473307069           
       3.254270             0.00605455419            0.000490660816           
       3.256911             0.00558832046            0.000459579507           
       3.259551              0.0062886581            0.000498300398           
       3.262191             0.00591563852            0.000487742087           
       3.264832             0.00556944869            0.000477695916           
       3.267472             0.00682133995            0.000536161895           
       3.270112             0.00550569209            0.000483060615           
       3.272753             0.00521366096            0.000475851714           
       3.275393             0.00606269031            0.000515777788           
       3.278034             0.00589707015            0.000519046433           
       3.280674               0.005481248            0.000501864414           
       3.283314             0.00511560766            0.000487515442           
       3.285955             0.00546466353            0.000513337748           
       3.288595             0.00608038992             0.00054752682           
       3.291235             0.00574780678            0.000535469173           
       3.293876                0.00590511            0.000545960625           
       3.296516             0.00683584488            0.000599393938           
       3.299157             0.00612343671            0.000575875843           
       3.301797             0.00527302497            0.000534620585           
       3.304437             0.00552996983              0.0005577537           
       3.307078             0.00590855453            0.000582130463           
       3.309718             0.00586530394            0.000585785592           
       3.312359             0.00549068255            0.000578221609           
       3.314999             0.00571057488            0.000595872438           
       3.317639             0.00548474187            0.000590259458           
       3.320280             0.00694616729            0.000673959266           
       3.322920             0.00589040763            0.000629917123           
       3.325560             0.00520606154            0.000603631018           
       3.328201             0.00468675304            0.000575155042           
       3.330841             0.00581781004            0.000656394087           
       3.333482              0.0055871081            0.000651415352           
       3.336122             0.00524196944            0.000644688291           
       3.338762              0.0052073984            0.000648435971           
       3.341403             0.00531889418            0.000661420611           
       3.344043             0.00401395503            0.000596513987           
       3.346683             0.00565010943             0.00071490026           
       3.349324             0.00396897321             0.00060845365           
       3.351964             0.00581299476            0.000760029671           
       3.354605             0.00656604319            0.000816907152           
       3.357245             0.00529085666            0.000759078984           
       3.359885             0.00496298889            0.000735447528           
       3.362526             0.00499250796            0.000775347399           
       3.365166             0.00561194084            0.000811891933           
       3.367807             0.00531845175            0.000846070809           
       3.370447             0.00438952726            0.000768937995           
       3.373087             0.00550128625            0.000908512696           
       3.375728             0.00524899365            0.000880727343           
       3.378368             0.00408911595            0.000839987883           
       3.381008             0.00585463621            0.000996333772           
       3.383649             0.00351636945            0.000835642896           
       3.386289             0.00725710665             0.00120097592           
       3.388930             0.00448106043             0.00103643713           
       3.391570             0.00332047294            0.000892554204           
       3.394210             0.00511652924             0.00118715021           
       3.396851             0.00536983286             0.00131741137           
       3.399491              0.0055589688             0.00136473888           
       3.402131              0.0055177988             0.00160947108           
       3.404772             0.00642956069             0.00173810892           
       3.407412             0.00420177187             0.00174353341           
       3.410053             0.00596633376             0.00216338893           
       3.412693             0.00443547859             0.00263905294           
       3.415333             0.00434781216             0.00320136703           
