################################################################################
# EDF_DataBlockID                     0.Image.Psd
# EDF_BinarySize                      2105344
# EDF_HeaderSize                      2560
# ByteOrder                           LowByteFirst
# DataType                            FloatValue
# Dim_1                               512
# Dim_2                               1028
# Image                               0
# HeaderID                            EH:000000:000000:000000
# Size                                2105344
# Center_1                            304.9000
# Center_2                            588.7000
# Comment                             Xenocs_Cell_Window - front_window_open_only
# DDummy                              0.6
# Date                                2025-10-20T06:46:14
# Delta                               21.910000
# Dummy                               -1.5
# ExposureTime                        360
# Gamma                               15.360000
# Intensity1                          8.8043e-10
# PSize_1                             7.5e-05
# PSize_2                             7.5e-05
# Pressure                            0.0326414
# SampleDistance                      0.115750
# SampleEnvKind                       large
# SampleEnvPN                         ElectroChemical cell
# SampleEnvSN                         1141
# Thickness                           0
# Wavelength                          1.541891e-10
# Wavelength                          1.54189e-10
# aux                                 0
# aux_dial                            0.002375
# beamx                               588.429
# beamx_dial                          588.429
# beamz                               657.855
# beamz_dial                          657.855
# det0x                               -0.000396875
# det0x_dial                          6.36905
# det0xvd                             -0.0005
# det0xvd_dial                        -0.0005
# det0y                               450.002
# det0y_dial                          481.635
# det0z                               0
# det0z_dial                          1.2295
# det0zvd                             0
# det0zvd_dial                        0
# mag                                 1.818
# mag_dial                            1.818
# om                                  0.2499
# om_dial                             -0.610199
# phi                                 -0.0120535
# phi_dial                            0
# ry                                  0.599993
# ry_dial                             0.599993
# s1bot                               0.8
# s1bot_dial                          -1.66094
# s1hl                                0.8
# s1hl_dial                           -0.608437
# s1hr                                0.8
# s1hr_dial                           0.970938
# s1top                               0.8
# s1top_dial                          -0.461562
# s2bot                               0.45
# s2bot_dial                          1.36109
# s2hl                                0.45
# s2hl_dial                           -0.83375
# s2hr                                0.45
# s2hr_dial                           -0.118594
# s2top                               0.45
# s2top_dial                          1.44734
# w2theta                             32
# w2theta_dial                        32
# waxsch                              19.2605
# waxsch_dial                         -32.7238
# waxsh                               137.085
# waxsh_dial                          -43.5335
# waxsth                              26.0607
# waxsth_dial                         -19.4068
# waxsz                               67.0407
# waxsz_dial                          -23.7962
# wind                                65.9854
# wind_dial                           66.0041
# wpsi                                124
# wpsi_dial                           124
# wstod                               115
# wstod_dial                          115
# x                                   0
# x_dial                              1.00969
# z                                   0
# z_dial                              13.3172
# CountCutoff                         6807993
# DetectorModel                       Dectris EIGER2 Si 500K, S/N E-01-0554
# ThresholdSetting                    4023.88989258
# Saturation                          0
# FlatField                           Corrected
# BackgroundReductionExtra            0.02
# BackgroundCorrectionConstant        0.0026712
# Detector                            0
# Monitor                             0
# Pil_Roi0                            0
# SumForIntensity1                    3.16955e+08
# TransmittedFlux                     880430
# det                                 0
# mon                                 0
# pilai0                              3.16955e+08
# pilai1                              684027
# pilct0                              5.48401e+08
# pilct1                              684027
# pilroi0                             0
# pilroi1                             0
# sec                                 1
# title                               20251017__1_00551.edf
# usaxs0                              0
# Operation                           Azimuthal average I(q)
# Error_model                         ErrorModel.poisson
# Geometrical_correction              True
# Transmission_correction             True
# Thickness_correction                False
# Binning mode                        Uniform
# Binning factor                      1.0
# Psi                                 0.0
# Omega                               0.2499
# MaskInvalidPixels                   True
# DetectorEdge                        3
# MaskFiles                           ['20251017__1_00233_mask.edf']
################################################################################
    q(A⁻¹)                Intensity(a.u.)            Sigma_I(a.u.)            
       0.690460              0.0235457831              0.0142598202           
       0.693100             0.00315586202             0.00233401816           
       0.695741             0.00469898676             0.00240609881           
       0.698381             0.00826876382             0.00298523007           
       0.701021             0.00834638281              0.0024477752           
       0.703662             0.00711136855             0.00209142027           
       0.706302             0.00956558025             0.00234258971           
       0.708942             0.00573332647             0.00161097142           
       0.711583             0.00576585197             0.00161523864           
       0.714223             0.00638707294             0.00148142651           
       0.716864             0.00703897456             0.00158699508           
       0.719504             0.00690958982             0.00145520401           
       0.722144             0.00728201749             0.00144281052           
       0.724785               0.005746707             0.00126071196           
       0.727425             0.00751908636             0.00133760151           
       0.730065             0.00797633059              0.0014175466           
       0.732706             0.00724199498             0.00121462644           
       0.735346             0.00916720598             0.00147612947           
       0.737987             0.00754863387             0.00115938608           
       0.740627              0.0048563892             0.00101872847           
       0.743267             0.00735727589             0.00107856357           
       0.745908             0.00721211533             0.00114446288           
       0.748548             0.00673390098              0.0010314162           
       0.751189             0.00582816507            0.000950507466           
       0.753829             0.00687422478             0.00104160146           
       0.756469             0.00775742514             0.00104070716           
       0.759110             0.00535321517            0.000894212404           
       0.761750             0.00831959137              0.0010202404           
       0.764390             0.00979965833             0.00118860281           
       0.767031              0.0073790589            0.000933307226           
       0.769671              0.0089823392             0.00109205126           
       0.772312             0.00844500289            0.000964926917           
       0.774952             0.00615693372             0.00088326917           
       0.777592             0.00609063982            0.000803521259           
       0.780233             0.00830838898            0.000989352768           
       0.782873              0.0058776782            0.000760947053           
       0.785513             0.00730607512            0.000902480865           
       0.788154             0.00764785831            0.000848107459           
       0.790794             0.00498971717            0.000709001619           
       0.793435             0.00666008272             0.00078675952           
       0.796075             0.00710253625            0.000816765551           
       0.798715             0.00645511906            0.000774205771           
       0.801356             0.00845866032            0.000862530054           
       0.803996             0.00822458368            0.000864103549           
       0.806637             0.00651387051            0.000726911443           
       0.809277             0.00750874598            0.000816479041           
       0.811917             0.00641175836            0.000713960932           
       0.814558             0.00745020025            0.000788414496           
       0.817198             0.00580122766            0.000663363636           
       0.819838             0.00606628867            0.000707590716           
       0.822479             0.00802573439            0.000750038877           
       0.825119             0.00788499303            0.000798638381           
       0.827760             0.00572783799            0.000630722658           
       0.830400             0.00637424279            0.000701042117           
       0.833040             0.00761895872            0.000715305987           
       0.835681             0.00703591918            0.000719845978           
       0.838321              0.0055282554            0.000597228384           
       0.840961              0.0066528235            0.000684804987           
       0.843602              0.0052240157            0.000571608613           
       0.846242             0.00680104959             0.00067523265           
       0.848883             0.00674440764            0.000654108728           
       0.851523             0.00621991919            0.000632867804           
       0.854163             0.00799219542            0.000709052929           
       0.856804             0.00605494118            0.000601372578           
       0.859444             0.00802683183             0.00069738415           
       0.862085              0.0068432125            0.000634550498           
       0.864725             0.00701007327            0.000639882264           
       0.867365             0.00647781261            0.000610705185           
       0.870006             0.00667187644            0.000628432843           
       0.872646             0.00628572467            0.000583429107           
       0.875286             0.00649286266            0.000613168439           
       0.877927             0.00690329191            0.000605354701           
       0.880567             0.00691533014            0.000617718651           
       0.883208             0.00709659623            0.000607690122           
       0.885848             0.00818534592              0.0006695681           
       0.888488              0.0076344311            0.000614841349           
       0.891129             0.00656954076            0.000599540907           
       0.893769                0.00710043            0.000589168644           
       0.896410             0.00702693141            0.000604165601           
       0.899050             0.00763793174            0.000607332184           
       0.901690             0.00650283821            0.000572086745           
       0.904331             0.00643028454             0.00054902488           
       0.906971             0.00706506191            0.000594244576           
       0.909611             0.00691649964            0.000564346184           
       0.912252             0.00692492204            0.000574474693           
       0.914892             0.00733784252             0.00057637586           
       0.917533             0.00629377904            0.000545843126           
       0.920173             0.00672806552            0.000541362802           
       0.922813             0.00722967637            0.000586443859           
       0.925454             0.00763894316            0.000572106791           
       0.928094             0.00687671766            0.000554465394           
       0.930734             0.00648067529            0.000525416321           
       0.933375             0.00724974388            0.000567564827           
       0.936015             0.00720174834            0.000541254916           
       0.938656             0.00734281101            0.000569454594           
       0.941296              0.0063448131            0.000510285282           
       0.943936             0.00651635558            0.000526450994           
       0.946577             0.00749707613            0.000543820639           
       0.949217             0.00648489888            0.000523641847           
       0.951858             0.00644510037            0.000493520432           
       0.954498             0.00787260356            0.000573829886           
       0.957138             0.00773786212            0.000546795452           
       0.959779             0.00739390123            0.000546195456           
       0.962419             0.00829780379            0.000557034175           
       0.965059             0.00744725956            0.000542703279           
       0.967700             0.00710500885            0.000512944347           
       0.970340             0.00741222205            0.000538638474           
       0.972981             0.00723222946            0.000513717628           
       0.975621             0.00697518752            0.000515069436           
       0.978261             0.00789599173              0.0005228735           
       0.980902              0.0075614942            0.000536042072           
       0.983542             0.00763030428            0.000522796666           
       0.986182             0.00793771392            0.000540246058           
       0.988823             0.00740104962            0.000504831829           
       0.991463              0.0070069637                0.00050294           
       0.994104             0.00815504364            0.000524291794           
       0.996744             0.00824856389            0.000544388822           
       0.999384             0.00718526536            0.000490846125           
       1.002025             0.00781867223            0.000526280406           
       1.004665             0.00746985438            0.000493335727           
       1.007306             0.00840711219            0.000540908474           
       1.009946             0.00743439376            0.000489087619           
       1.012586             0.00688762423             0.00048430059           
       1.015227             0.00743857506            0.000488063382           
       1.017867             0.00756850784            0.000506415428           
       1.020507             0.00719677947            0.000475232269           
       1.023148             0.00781687162            0.000501265137           
       1.025788             0.00796828635            0.000500914364           
       1.028429             0.00766687267            0.000502090338           
       1.031069             0.00729524324            0.000471869625           
       1.033709             0.00754734573            0.000489170112           
       1.036350             0.00797236848            0.000489571863           
       1.038990             0.00815075057            0.000507239584           
       1.041630             0.00761655166            0.000480902385           
       1.044271             0.00734975288            0.000472457629           
       1.046911             0.00801953191            0.000484346306           
       1.049552             0.00786742129            0.000497019258           
       1.052192             0.00810469946            0.000481773764           
       1.054832             0.00825205255            0.000495587522           
       1.057473             0.00797633318            0.000481069572           
       1.060113              0.0093431917            0.000526297659           
       1.062754             0.00823212506            0.000488550764           
       1.065394             0.00834070561            0.000486588178           
       1.068034              0.0083566798            0.000485168279           
       1.070675             0.00798794222             0.00048268667           
       1.073315             0.00751234867             0.00045378866           
       1.075955             0.00763677459            0.000465204673           
       1.078596             0.00833987379            0.000485187428           
       1.081236             0.00764584183            0.000457670279           
       1.083877             0.00825246505             0.00049033302           
       1.086517             0.00806445276            0.000473750401           
       1.089157             0.00827435227            0.000483394445           
       1.091798             0.00840955226            0.000477002541           
       1.094438             0.00887810403            0.000497900269           
       1.097078             0.00842399044            0.000472536097           
       1.099719             0.00850907802             0.00048708818           
       1.102359             0.00846058314            0.000460111289           
       1.105000             0.00927093823              0.0005006111           
       1.107640             0.00806762398            0.000451771296           
       1.110280             0.00828970746            0.000467116912           
       1.112921             0.00779632084            0.000444805976           
       1.115561              0.0078687589            0.000452538656           
       1.118202              0.0080499141            0.000444358879           
       1.120842             0.00850952463            0.000471263023           
       1.123482             0.00765606459            0.000434466886           
       1.126123             0.00887876035            0.000470795173           
       1.128763             0.00768170411            0.000435737749           
       1.131403             0.00854075356            0.000458742358           
       1.134044             0.00876252906            0.000463853707           
       1.136684             0.00872220898            0.000466263191           
       1.139325             0.00809525649            0.000436536993           
       1.141965             0.00822851238            0.000445871264           
       1.144605             0.00886805192            0.000465593011           
       1.147246              0.0086647554            0.000451509177           
       1.149886             0.00863804294            0.000454018791           
       1.152527             0.00807398269            0.000439384781           
       1.155167             0.00854952576            0.000445782069           
       1.157807             0.00766027483            0.000422253102           
       1.160448             0.00871190242            0.000456466638           
       1.163088             0.00857981053            0.000436186997           
       1.165728             0.00835781343            0.000448251669           
       1.168369             0.00867161856            0.000440289231           
       1.171009             0.00921947539            0.000457748485           
       1.173650             0.00894255738            0.000447570629           
       1.176290              0.0101160604            0.000481617913           
       1.178930             0.00912472846            0.000444552957           
       1.181571             0.00827617476            0.000437206252           
       1.184211              0.0089129625            0.000440011523           
       1.186851             0.00935746208            0.000455007056           
       1.189492             0.00830875854            0.000431133857           
       1.192132             0.00933769819            0.000450281257           
       1.194773             0.00932974317            0.000447373996           
       1.197413             0.00848489848            0.000430117941           
       1.200053             0.00966146351            0.000456083742           
       1.202694             0.00955740097            0.000450202519           
       1.205334             0.00972460553            0.000459087802           
       1.207975              0.0102559795            0.000462226079           
       1.210615             0.00948679034            0.000453955656           
       1.213255              0.0101644118            0.000457457562           
       1.215896             0.00967626487            0.000454798053           
       1.218536             0.00931154174            0.000433294446           
       1.221176             0.00869878033            0.000428791153           
       1.223817             0.00900105544            0.000427088709           
       1.226457              0.0097118557            0.000449266466           
       1.229098             0.00898531367            0.000425579218           
       1.231738              0.0097924918             0.00045053992           
       1.234378               0.009935078            0.000444990517           
       1.237019             0.00936751728            0.000435578363           
       1.239659             0.00865184343            0.000418382328           
       1.242299             0.00956163642            0.000437581716           
       1.244940             0.00917964259            0.000424123714           
       1.247580              0.0100500462            0.000445735356           
       1.250221              0.0102143012            0.000456698213           
       1.252861             0.00973010714            0.000429135457           
       1.255501             0.00939637666            0.000433618513           
       1.258142              0.0104762728            0.000448806387           
       1.260782              0.0105605032             0.00045569691           
       1.263423              0.0102943561            0.000441004319           
       1.266063              0.0101586008            0.000446252176           
       1.268703              0.0103330698            0.000438728475           
       1.271344             0.00974255035            0.000435286176           
       1.273984              0.0104219641            0.000443180041           
       1.276624               0.010391895            0.000439840116           
       1.279265              0.0100045999            0.000432508349           
       1.281905              0.0100216705            0.000435545353           
       1.284546             0.00942273428            0.000417716159           
       1.287186              0.0107856755             0.00044733564           
       1.289826              0.0102917559            0.000439238963           
       1.292467              0.0103363064            0.000432332088           
       1.295107              0.0105454171            0.000444380548           
       1.297747              0.0100908613            0.000423295724           
       1.300388              0.0100740318            0.000433803431           
       1.303028               0.010047534            0.000422215783           
       1.305669               0.010391606            0.000434931832           
       1.308309              0.0108999846            0.000438745974           
       1.310949             0.00992316935            0.000423842963           
       1.313590               0.010057446            0.000420097432           
       1.316230              0.0099610028            0.000425603804           
       1.318871              0.0107904889            0.000433413779           
       1.321511              0.0100799188             0.00042099954           
       1.324151              0.0105500633            0.000432407629           
       1.326792              0.0107527507            0.000433005338           
       1.329432              0.0102156718            0.000424254491           
       1.332072              0.0105657838            0.000424064736           
       1.334713               0.010003645            0.000417747039           
       1.337353              0.0104752647            0.000420905276           
       1.339994               0.010950669            0.000436480102           
       1.342634              0.0109071483            0.000425805212           
       1.345274              0.0102200682            0.000417564071           
       1.347915              0.0106648436             0.00042768748           
       1.350555              0.0107255547            0.000427227456           
       1.353195              0.0106692991            0.000417954005           
       1.355836              0.0101641403            0.000415636563           
       1.358476               0.011360158            0.000438174846           
       1.361117              0.0105897078            0.000412442665           
       1.363757              0.0106769697            0.000427863343           
       1.366397              0.0118549661            0.000436809307           
       1.369038              0.0110224212            0.000430069649           
       1.371678              0.0113263019            0.000427154786           
       1.374319              0.0104612261            0.000413774149           
       1.376959              0.0102183202            0.000403312216           
       1.379599                0.01092402            0.000425134821           
       1.382240              0.0108475459            0.000415597601           
       1.384880              0.0106159797            0.000416185653           
       1.387520              0.0115096379            0.000428282455           
       1.390161              0.0110800969            0.000419072566           
       1.392801               0.010677096            0.000413832713           
       1.395442              0.0100228548            0.000396799021           
       1.398082              0.0106169025            0.000409786316           
       1.400722              0.0115349091            0.000425205835           
       1.403363              0.0105137661            0.000409715941           
       1.406003              0.0102413414            0.000394443536           
       1.408644              0.0105326239            0.000408411331           
       1.411284              0.0109887372            0.000414872915           
       1.413924              0.0103238542            0.000397166285           
       1.416565              0.0105697019            0.000401395018           
       1.419205              0.0106979633            0.000407800962           
       1.421845              0.0103599307            0.000396261307           
       1.424486              0.0106586838              0.0004037087           
       1.427126               0.010520529            0.000400830728           
       1.429767               0.010229801            0.000389162778           
       1.432407              0.0109656717            0.000413066794           
       1.435047              0.0106801666            0.000395403721           
       1.437688               0.010761178            0.000405689814           
       1.440328              0.0101629683            0.000386612409           
       1.442968              0.0101811081            0.000392313917           
       1.445609              0.0104894266            0.000391660123           
       1.448249              0.0101799047            0.000388333081           
       1.450890              0.0112425244            0.000405186807           
       1.453530              0.0103136941            0.000390962873           
       1.456170               0.010778107            0.000398768445           
       1.458811              0.0105381003            0.000391166568           
       1.461451              0.0102502136            0.000388622372           
       1.464092              0.0103682543            0.000387446703           
       1.466732             0.00999593608            0.000378093239           
       1.469372              0.0101614217            0.000380038312           
       1.472013              0.0113182705            0.000408264309           
       1.474653              0.0104961307            0.000383449249           
       1.477293              0.0095143419            0.000371220531           
       1.479934              0.0102903778            0.000382022367           
       1.482574              0.0100940241            0.000377426292           
       1.485215             0.00978869269            0.000372631183           
       1.487855               0.010936089            0.000393784068           
       1.490495              0.0104091695            0.000383353473           
       1.493136              0.0102753455            0.000375886311           
       1.495776              0.0101193237            0.000379525141           
       1.498416              0.0107334964            0.000383279217           
       1.501057              0.0104236339            0.000380955079           
       1.503697              0.0106808417            0.000381918869           
       1.506338             0.00976609259             0.00036788404           
       1.508978               0.010407319            0.000377527106           
       1.511618              0.0102797698            0.000375016922           
       1.514259             0.00971011045            0.000365136212           
       1.516899             0.00968903142            0.000364909525           
       1.519540              0.0105698144            0.000379019813           
       1.522180              0.0100859732            0.000365619523           
       1.524820             0.00995686863            0.000370609149           
       1.527461              0.0094682255            0.000353405879           
       1.530101             0.00959816488            0.000359501599           
       1.532741             0.00996223385            0.000364521017           
       1.535382             0.00998230084            0.000365691528           
       1.538022              0.0100379254            0.000363464509           
       1.540663             0.00997077227            0.000365670284           
       1.543303             0.00956262095            0.000353651371           
       1.545943             0.00986628361            0.000361235824           
       1.548584              0.0102083626             0.00036940142           
       1.551224              0.0104349575            0.000363903804           
       1.553864              0.0099274354            0.000364216302           
       1.556505             0.00976087314            0.000355592432           
       1.559145             0.00958615444            0.000353210195           
       1.561786             0.00988303703            0.000357013216           
       1.564426             0.00952156078            0.000350106926           
       1.567066              0.0102833137            0.000361002451           
       1.569707              0.0100509231            0.000362067036           
       1.572347              0.0097826974            0.000352568754           
       1.574988             0.00906216283            0.000337993969           
       1.577628             0.00925285004            0.000349221023           
       1.580268              0.0101873398            0.000353786198           
       1.582909             0.00955833073            0.000349099765           
       1.585549             0.00934013475            0.000341867171           
       1.588189             0.00944877992            0.000347690194           
       1.590830             0.00927503361             0.00033856547           
       1.593470             0.00906915409             0.00033752075           
       1.596111             0.00917460445            0.000336543981           
       1.598751             0.00878597259            0.000332705684           
       1.601391             0.00911728161            0.000336753705           
       1.604032             0.00876989565            0.000327517835           
       1.606672             0.00887042839             0.00033601927           
       1.609312             0.00874475966            0.000323703325           
       1.611953             0.00927002598            0.000338113474           
       1.614593             0.00924885176            0.000335158441           
       1.617234             0.00850118511            0.000323147489           
       1.619874             0.00897145274            0.000328059792           
       1.622514             0.00847017921            0.000321582196           
       1.625155             0.00851813216            0.000321693677           
       1.627795             0.00845961107            0.000317347149           
       1.630436             0.00893255553            0.000329375088           
       1.633076              0.0090593156             0.00033001863           
       1.635716             0.00866381067            0.000322171577           
       1.638357             0.00854989882            0.000318686829           
       1.640997             0.00870851859            0.000324144683           
       1.643637              0.0089530862            0.000322561775           
       1.646278             0.00902037402            0.000328617964           
       1.648918             0.00874201226            0.000319337104           
       1.651559             0.00886100893            0.000325545501           
       1.654199             0.00897609668            0.000323161556           
       1.656839             0.00900840882            0.000323655525           
       1.659480             0.00849867884            0.000317134054           
       1.662120             0.00862855488            0.000315266014           
       1.664761             0.00865493239             0.00031916618           
       1.667401             0.00917670379            0.000325584398           
       1.670041             0.00821388095            0.000308383507           
       1.672682             0.00827979064            0.000306704838           
       1.675322             0.00862012527            0.000318477958           
       1.677962             0.00812566242            0.000303068002           
       1.680603             0.00838957799            0.000310683433           
       1.683243             0.00914463016            0.000321963306           
       1.685884             0.00824885608            0.000306951441           
       1.688524             0.00831138804            0.000307245824           
       1.691164             0.00816665975            0.000303776197           
       1.693805             0.00883279358            0.000318477243           
       1.696445             0.00874835627             0.00031255226           
       1.699085             0.00857963464            0.000310759369           
       1.701726             0.00891442493            0.000312644173           
       1.704366             0.00861288296            0.000314788451           
       1.707007              0.0080846484            0.000298474478           
       1.709647             0.00853767542            0.000310534128           
       1.712287             0.00877642055            0.000309584347           
       1.714928             0.00793274829            0.000297287934           
       1.717568              0.0088370473            0.000310890145           
       1.720209             0.00857538885            0.000308144094           
       1.722849             0.00884410405            0.000313436553           
       1.725489             0.00866469084            0.000305296161           
       1.728130              0.0079717156            0.000298794641           
       1.730770             0.00829383955            0.000298329631           
       1.733410             0.00872492361            0.000310001337           
       1.736051             0.00849288786             0.00030110398           
       1.738691             0.00807547889            0.000296608357           
       1.741332             0.00816838886            0.000296473407           
       1.743972             0.00815602847            0.000296358892           
       1.746612              0.0081809453            0.000296879522           
       1.749253              0.0079906377            0.000294674139           
       1.751893             0.00886626326            0.000308537688           
       1.754533             0.00832115304            0.000294800199           
       1.757174              0.0083241274            0.000300365641           
       1.759814             0.00872839791            0.000302883848           
       1.762455             0.00868358074            0.000304677204           
       1.765095             0.00816610826            0.000291310384           
       1.767735             0.00838335183            0.000300175283           
       1.770376             0.00834263365            0.000294904256           
       1.773016             0.00855390971            0.000299086393           
       1.775657             0.00888983663            0.000305527336           
       1.778297             0.00823288272              0.0002954599           
       1.780937              0.0082735839            0.000294807184           
       1.783578             0.00819151761            0.000291963987           
       1.786218             0.00793112467            0.000291870389           
       1.788858             0.00872063634            0.000298449102           
       1.791499             0.00882106145            0.000305694667           
       1.794139             0.00867867264            0.000297618181           
       1.796780             0.00837953149            0.000294181629           
       1.799420             0.00860710747            0.000297770051           
       1.802060               0.008869447            0.000298556133           
       1.804701              0.0091144325            0.000306711618           
       1.807341             0.00853322226            0.000293903739           
       1.809981             0.00866614773            0.000298151055           
       1.812622              0.0089928783            0.000302064748           
       1.815262              0.0089511594            0.000302437811           
       1.817903              0.0085756316            0.000292368498           
       1.820543             0.00886625171            0.000300955684           
       1.823183             0.00901921393            0.000298863685           
       1.825824             0.00906724756            0.000304164817           
       1.828464             0.00877647149            0.000298329825           
       1.831105              0.0089664116            0.000302708172           
       1.833745             0.00845247572            0.000293721417           
       1.836385             0.00902134584            0.000302264336           
       1.839026             0.00874465615            0.000302066463           
       1.841666             0.00908498603            0.000303890522           
       1.844306              0.0084616249             0.00029698219           
       1.846947              0.0090610978            0.000303372866           
       1.849587               0.008003599            0.000288987908           
       1.852228             0.00855906354            0.000295669354           
       1.854868             0.00872378329              0.0003039756           
       1.857508             0.00910873361            0.000304874537           
       1.860149             0.00828674229            0.000293123925           
       1.862789             0.00926152843             0.00031125631           
       1.865429             0.00872306826            0.000302983405           
       1.868070             0.00907056051            0.000307891709           
       1.870710             0.00864134523            0.000301337186           
       1.873351             0.00899223046            0.000309356701           
       1.875991             0.00883640858             0.00030832349           
       1.878631             0.00928328386            0.000313086306           
       1.881272              0.0087336696            0.000302965463           
       1.883912             0.00887702505            0.000309023961           
       1.886553             0.00916571738            0.000310242001           
       1.889193             0.00865630881            0.000304980299           
       1.891833             0.00804965757            0.000290752569           
       1.894474             0.00879495254            0.000306319959           
       1.897114             0.00887390374            0.000305305113           
       1.899754             0.00850474609            0.000302239233           
       1.902395             0.00965334886            0.000322071087           
       1.905035             0.00893400845            0.000308624649           
       1.907676              0.0084385356            0.000300293251           
       1.910316             0.00873264084            0.000307429237           
       1.912956             0.00898065572            0.000311751917           
       1.915597             0.00890026146            0.000307117832           
       1.918237             0.00821309324            0.000299502184           
       1.920878             0.00894696328            0.000307064535           
       1.923518              0.0090647751            0.000317291418           
       1.926158             0.00933989338            0.000314669508           
       1.928799             0.00894897333            0.000312106928           
       1.931439             0.00846916383            0.000301191451           
       1.934079             0.00883415674            0.000310728327           
       1.936720             0.00899432198            0.000311687089           
       1.939360              0.0089634082            0.000314149805           
       1.942001             0.00851591044            0.000305029473           
       1.944641             0.00866278057            0.000306322887           
       1.947281             0.00889362884            0.000311877083           
       1.949922             0.00861977037             0.00030742207           
       1.952562             0.00866842707            0.000310941355           
       1.955202             0.00843571996            0.000299032547           
       1.957843             0.00869430541            0.000313224945           
       1.960483             0.00824840524            0.000300220763           
       1.963124             0.00841945853            0.000303092812           
       1.965764              0.0084326549            0.000303438696           
       1.968404             0.00887188364            0.000316806596           
       1.971045             0.00775835759            0.000288832384           
       1.973685              0.0086177059            0.000310089189           
       1.976326             0.00865224505            0.000309355322           
       1.978966             0.00829880941             0.00030440467           
       1.981606             0.00836263115             0.00030234133           
       1.984247              0.0084123976            0.000305883774           
       1.986887             0.00820762667            0.000304963702           
       1.989527             0.00812116311            0.000297033244           
       1.992168             0.00794911387            0.000300960238           
       1.994808             0.00812049575            0.000300649106           
       1.997449             0.00888484073            0.000314019138           
       2.000089             0.00781389176            0.000292752192           
       2.002729             0.00841914177            0.000310841986           
       2.005370             0.00827357973            0.000302285498           
       2.008010             0.00819687459            0.000304875674           
       2.010650             0.00789393366            0.000298332933           
       2.013291             0.00799854839            0.000302012562           
       2.015931             0.00817025326            0.000303052384           
       2.018572             0.00759589994            0.000296087117           
       2.021212             0.00776827295            0.000296740531           
       2.023852             0.00780306562             0.00029896664           
       2.026493             0.00752702151            0.000292344059           
       2.029133             0.00786598736            0.000296574372           
       2.031774             0.00757853544            0.000293928023           
       2.034414             0.00834639501            0.000306618434           
       2.037054             0.00776127105            0.000299403658           
       2.039695             0.00798276024            0.000297664728           
       2.042335             0.00783574626            0.000299930828           
       2.044975             0.00772509188            0.000295425424           
       2.047616             0.00731149742            0.000288639796           
       2.050256             0.00746488147            0.000288221007           
       2.052897              0.0078772095            0.000304842911           
       2.055537             0.00760227499            0.000291310896           
       2.058177             0.00740097801            0.000289967213           
       2.060818             0.00792835056            0.000301021574           
       2.063458             0.00812106104            0.000305077616           
       2.066098             0.00790823558            0.000299717546           
       2.068739               0.008169737            0.000307808926           
       2.071379             0.00760620659            0.000292617222           
       2.074020             0.00719301805            0.000288455093           
       2.076660             0.00854400641            0.000312247909           
       2.079300             0.00770165023            0.000296413329           
       2.081941             0.00759342385            0.000296112636           
       2.084581             0.00759223358            0.000296308752           
       2.087222             0.00716543976             0.00028805597           
       2.089862             0.00746563509            0.000290363329           
       2.092502             0.00749036867            0.000296128537           
       2.095143             0.00801827281            0.000302007285           
       2.097783             0.00745978561            0.000295732446           
       2.100423             0.00776534633            0.000295942897           
       2.103064               0.007805294             0.00030182594           
       2.105704             0.00757167162            0.000296137346           
       2.108345             0.00769745815            0.000299957856           
       2.110985             0.00782978799            0.000298275964           
       2.113625             0.00832943329            0.000312492974           
       2.116266             0.00748804626            0.000294096877           
       2.118906             0.00774774588            0.000298935813           
       2.121546             0.00758559238            0.000295556182           
       2.124187             0.00765166839            0.000300946441           
       2.126827             0.00755758524            0.000294399948           
       2.129468             0.00770680889             0.00030039463           
       2.132108             0.00743670655            0.000294473079           
       2.134748             0.00780737067            0.000300585392           
       2.137389             0.00828398978            0.000312217751           
       2.140029             0.00743120923            0.000294992935           
       2.142670             0.00665400511            0.000279596984           
       2.145310             0.00767547617            0.000301439136           
       2.147950             0.00745860925            0.000298298847           
       2.150591             0.00695996954            0.000285512462           
       2.153231             0.00695199473            0.000289567522           
       2.155871             0.00735679901            0.000293576755           
       2.158512             0.00774046162            0.000306560815           
       2.161152             0.00695117751            0.000283253969           
       2.163793             0.00741311707            0.000297274009           
       2.166433             0.00718732394            0.000287635825           
       2.169073             0.00725642135            0.000295762984           
       2.171714             0.00767331641            0.000297948539           
       2.174354             0.00769593644             0.00030294703           
       2.176995             0.00759833175            0.000298522811           
       2.179635               0.007701998            0.000306240336           
       2.182275             0.00736322324            0.000293485635           
       2.184916             0.00770329261            0.000306530834           
       2.187556             0.00738893234            0.000295378017           
       2.190196             0.00751187135            0.000302506354           
       2.192837             0.00740763997            0.000297110749           
       2.195477             0.00794565654            0.000310679454           
       2.198118             0.00708424858            0.000287939835           
       2.200758             0.00728137999            0.000296451845           
       2.203398             0.00759716851            0.000297790403           
       2.206039             0.00706717457            0.000291605451           
       2.208679             0.00726074904            0.000292678761           
       2.211319             0.00805354788            0.000309694529           
       2.213960             0.00755244684            0.000296716313           
       2.216600             0.00764976909            0.000305657968           
       2.219241             0.00733914106            0.000295035243           
       2.221881             0.00700310116            0.000289703909           
       2.224521             0.00776793917            0.000304055666           
       2.227162             0.00722036567            0.000297747543           
       2.229802             0.00726169428            0.000293751499           
       2.232443             0.00713646436            0.000292352418           
       2.235083             0.00743962383            0.000296707569           
       2.237723             0.00741199956            0.000298425783           
       2.240364             0.00744512826             0.00029757066           
       2.243004              0.0075893706            0.000301347062           
       2.245644             0.00711316466             0.00029106599           
       2.248285             0.00739133857            0.000298628824           
       2.250925              0.0073279945            0.000295955992           
       2.253566             0.00711628975             0.00029236274           
       2.256206             0.00720226967            0.000293242583           
       2.258846             0.00712931766            0.000291756273           
       2.261487             0.00762071541            0.000302165386           
       2.264127             0.00754617484            0.000303528966           
       2.266767             0.00712920587            0.000290255498           
       2.269408             0.00769553385            0.000305145448           
       2.272048             0.00722300294            0.000293810062           
       2.274689             0.00707813322            0.000291992403           
       2.277329             0.00731528659            0.000296449271           
       2.279969             0.00701117956              0.0002911016           
       2.282610             0.00711843515            0.000290459288           
       2.285250             0.00721221885            0.000296964598           
       2.287891             0.00748945742            0.000299564704           
       2.290531             0.00715358265            0.000294214211           
       2.293171             0.00716322383            0.000294397891           
       2.295812             0.00728761241            0.000295366937           
       2.298452             0.00729473424            0.000297403894           
       2.301092             0.00690490213            0.000291186126           
       2.303733             0.00723651608            0.000292200176           
       2.306373             0.00748282089            0.000304398859           
       2.309014             0.00717185119            0.000292264028           
       2.311654              0.0069286214            0.000289991568           
       2.314294             0.00715355148            0.000294017817           
       2.316935             0.00700236561            0.000292043982           
       2.319575             0.00686122311            0.000288003206           
       2.322215             0.00744664211            0.000304313848           
       2.324856             0.00703043546            0.000288261834           
       2.327496             0.00709640553            0.000296708861           
       2.330137             0.00691720484            0.000287536095           
       2.332777             0.00727600392            0.000298124512           
       2.335417             0.00713961209            0.000294430497           
       2.338058             0.00712678067            0.000295343143           
       2.340698             0.00709633279            0.000291809884           
       2.343339             0.00743862317            0.000304465957           
       2.345979             0.00766564738             0.00030290959           
       2.348619             0.00716994174            0.000298484286           
       2.351260             0.00697430379            0.000288126145           
       2.353900             0.00711008007             0.00029707962           
       2.356540             0.00706022487            0.000291964781           
       2.359181             0.00688133232            0.000292096552           
       2.361821             0.00725829088            0.000296335222           
       2.364462              0.0070641622             0.00029723143           
       2.367102             0.00676285312            0.000282413492           
       2.369742             0.00702313307            0.000298110498           
       2.372383             0.00738463773            0.000296775571           
       2.375023             0.00683240328            0.000292900822           
       2.377663             0.00710023015            0.000292241293           
       2.380304              0.0069883174            0.000293950828           
       2.382944             0.00768055133            0.000305151718           
       2.385585             0.00706669655            0.000295470574           
       2.388225             0.00760612102            0.000305155316           
       2.390865             0.00672541686            0.000287679962           
       2.393506             0.00731254185            0.000298591977           
       2.396146             0.00708459909            0.000294875494           
       2.398787             0.00698630058            0.000293078787           
       2.401427             0.00711841842            0.000294040699           
       2.404067             0.00681047466            0.000292000068           
       2.406708             0.00725248028            0.000297539268           
       2.409348             0.00748042685            0.000304452155           
       2.411988             0.00741117809            0.000302071837           
       2.414629             0.00751480887            0.000305171692           
       2.417269             0.00742661108            0.000300620495           
       2.419910             0.00709499178             0.00029753752           
       2.422550             0.00696461311             0.00029031618           
       2.425190             0.00737818151            0.000308219625           
       2.427831             0.00683047551            0.000285405781           
       2.430471             0.00692924182            0.000295864726           
       2.433112             0.00694146875            0.000289138206           
       2.435752             0.00633453097            0.000283201029           
       2.438392             0.00714174872            0.000295650187           
       2.441033             0.00696229227            0.000293249687           
       2.443673             0.00704381667            0.000295749241           
       2.446313             0.00757320248            0.000305027725           
       2.448954              0.0071567596            0.000299124451           
       2.451594             0.00733153067            0.000300938212           
       2.454235             0.00681302645            0.000289198877           
       2.456875             0.00775112114            0.000310029573           
       2.459515              0.0079493481            0.000314452995           
       2.462156             0.00759037032            0.000305686973           
       2.464796             0.00776080256            0.000314552138           
       2.467436             0.00797734203            0.000312223179           
       2.470077             0.00746105979            0.000306114651           
       2.472717              0.0071894594            0.000296731427           
       2.475358             0.00804811211            0.000317508322           
       2.477998             0.00800583057            0.000314983705           
       2.480638             0.00769766909            0.000309612484           
       2.483279             0.00757001558            0.000308353553           
       2.485919              0.0074257472            0.000303262736           
       2.488560             0.00688222505            0.000293164311           
       2.491200              0.0071355828            0.000298102453           
       2.493840              0.0072800882            0.000299466424           
       2.496481             0.00778488559            0.000313724417           
       2.499121             0.00716548678            0.000296977661           
       2.501761             0.00713950156            0.000301472379           
       2.504402             0.00770724141             0.00030722704           
       2.507042             0.00695309276            0.000296660019           
       2.509683             0.00698083663            0.000294544258           
       2.512323             0.00646410069            0.000284543116           
       2.514963              0.0141471317             0.00042178496           
       2.517604              0.0199740097            0.000499213077           
       2.520244             0.00927225154            0.000340205142           
       2.522884              0.0079440529            0.000314208755           
       2.525525             0.00766500053             0.00031117598           
       2.528165              0.0175594301            0.000468831925           
       2.530806              0.0330960046            0.000641233877           
       2.533446              0.0148024466            0.000432651132           
       2.536086              0.0099048397             0.00035094133           
       2.538727             0.00907140328            0.000338005175           
       2.541367             0.00935606357            0.000342285949           
       2.544008             0.00743071791            0.000305299168           
       2.546648             0.00729149127            0.000302768917           
       2.549288             0.00735487963            0.000304125897           
       2.551929             0.00708136809            0.000299403164           
       2.554569             0.00660736675            0.000286566277           
       2.557209             0.00734888737            0.000305633637           
       2.559850              0.0068782927            0.000292285807           
       2.562490             0.00671214974            0.000290836522           
       2.565131             0.00782795993            0.000314628011           
       2.567771             0.00785691209            0.000313538692           
       2.570411             0.00663843537            0.000291709829           
       2.573052             0.00706716113            0.000297468783           
       2.575692             0.00730315082            0.000303196774           
       2.578332             0.00724396073            0.000301073588           
       2.580973             0.00697389992            0.000297803323           
       2.583613              0.0069730075             0.00029507061           
       2.586254             0.00696230002            0.000297452433           
       2.588894             0.00669720988            0.000290178508           
       2.591534              0.0069965486            0.000297138082           
       2.594175              0.0067132664            0.000292750076           
       2.596815             0.00747959064            0.000306134472           
       2.599456             0.00753359588             0.00030975142           
       2.602096             0.00684331201            0.000294114902           
       2.604736                0.00700585            0.000298367691           
       2.607377             0.00680538543            0.000292943428           
       2.610017             0.00761892925            0.000309850789           
       2.612657             0.00732008547            0.000305858644           
       2.615298             0.00768969977             0.00031041901           
       2.617938             0.00736522518            0.000306456876           
       2.620579             0.00666159957            0.000289070288           
       2.623219             0.00702114227            0.000301515758           
       2.625859              0.0069008774            0.000293884305           
       2.628500              0.0071675511            0.000304295611           
       2.631140             0.00691809169            0.000293681461           
       2.633780             0.00669114977            0.000292533993           
       2.636421              0.0073513935            0.000303837075           
       2.639061             0.00709980483            0.000302162759           
       2.641702              0.0069160991            0.000295039888           
       2.644342             0.00714318121            0.000302304066           
       2.646982             0.00727872638            0.000304899695           
       2.649623              0.0073097031            0.000307379517           
       2.652263             0.00722447033            0.000303150601           
       2.654904             0.00734696503            0.000307369765           
       2.657544             0.00701994963            0.000298337487           
       2.660184             0.00711202008            0.000300671645           
       2.662825             0.00672852285            0.000293153832           
       2.665465             0.00705218373            0.000300676859           
       2.668105             0.00698604971            0.000299382187           
       2.670746             0.00675872683            0.000291979394           
       2.673386             0.00709606848            0.000302803208           
       2.676027             0.00707437531            0.000299769806           
       2.678667             0.00737066532            0.000307573635           
       2.681307             0.00728494576            0.000303375398           
       2.683948             0.00729971964            0.000306698823           
       2.686588             0.00767619132            0.000311622041           
       2.689229             0.00820494363            0.000325067392           
       2.691869              0.0074472834            0.000306604019           
       2.694509             0.00733930836            0.000308547367           
       2.697150             0.00733707238            0.000303576581           
       2.699790             0.00741086909            0.000311437058           
       2.702430             0.00719196471            0.000300920616           
       2.705071             0.00776863364             0.00031703259           
       2.707711             0.00676328316            0.000292874995           
       2.710352             0.00665151576            0.000292098111           
       2.712992              0.0065852808            0.000291585087           
       2.715632             0.00654752161            0.000289094072           
       2.718273             0.00686587168            0.000297021537           
       2.720913             0.00676774579            0.000295383747           
       2.723553             0.00700048373            0.000299375914           
       2.726194             0.00691429251            0.000298962143           
       2.728834             0.00681805011             0.00029423517           
       2.731475              0.0066135049             0.00029232062           
       2.734115             0.00673375043            0.000293208482           
       2.736755             0.00729767568            0.000307256965           
       2.739396             0.00702151363            0.000299793487           
       2.742036             0.00706816075            0.000302840711           
       2.744677             0.00767707669             0.00031607743           
       2.747317             0.00728732386            0.000306453474           
       2.749957             0.00761799497             0.00031560225           
       2.752598             0.00725434667            0.000308904879           
       2.755238             0.00723414602            0.000308335459           
       2.757878             0.00691441315            0.000300586317           
       2.760519             0.00719488982            0.000303384731           
       2.763159             0.00683286086            0.000300460716           
       2.765800               0.006820156            0.000295096252           
       2.768440             0.00716468309            0.000306442387           
       2.771080             0.00657216819             0.00029102437           
       2.773721             0.00689670121            0.000301780514           
       2.776361             0.00696803048            0.000300079144           
       2.779001             0.00682041905            0.000300004398           
       2.781642             0.00624494138            0.000285110177           
       2.784282             0.00672780801            0.000296030741           
       2.786923             0.00699965976            0.000299655946           
       2.789563             0.00643480005            0.000287887963           
       2.792203             0.00663470253            0.000294186292           
       2.794844             0.00669717281            0.000294223142           
       2.797484             0.00603342077            0.000279656149           
       2.800125             0.00635669778            0.000286679579           
       2.802765              0.0069829911            0.000306040561           
       2.805405             0.00667499695            0.000294896112           
       2.808046              0.0069394606            0.000305291769           
       2.810686             0.00665364401            0.000295753278           
       2.813326             0.00640981633            0.000293875096           
       2.815967             0.00712336253            0.000307848412           
       2.818607             0.00683722329             0.00030461696           
       2.821248             0.00641636497            0.000291413389           
       2.823888             0.00678170024            0.000304420304           
       2.826528             0.00721563612            0.000312135223           
       2.829169             0.00686174743            0.000303040888           
       2.831809              0.0070852436            0.000308206364           
       2.834449             0.00632182037            0.000286047268           
       2.837090             0.00641802569            0.000289950057           
       2.839730             0.00713326118            0.000303508877           
       2.842371             0.00675094686            0.000297320674           
       2.845011             0.00671822682            0.000295937781           
       2.847651             0.00638452413            0.000289024186           
       2.850292             0.00631819806             0.00028588535           
       2.852932             0.00680077452            0.000297134146           
       2.855573             0.00732017527            0.000310979449           
       2.858213             0.00606024018              0.0002797792           
       2.860853             0.00690830674            0.000300950356           
       2.863494             0.00710895634            0.000306024677           
       2.866134             0.00776616191            0.000324344188           
       2.868774             0.00673239718            0.000297363983           
       2.871415             0.00727854007            0.000312250335           
       2.874055              0.0071927931            0.000311943186           
       2.876696             0.00692155169            0.000303249496           
       2.879336             0.00717047635             0.00031070318           
       2.881976             0.00719525922            0.000310983489           
       2.884617             0.00635965875            0.000290744639           
       2.887257             0.00704869642            0.000303955833           
       2.889897             0.00671827697            0.000300147436           
       2.892538             0.00684840189            0.000300939121           
       2.895178             0.00695727203            0.000300228536           
       2.897819             0.00691856449            0.000302471422           
       2.900459             0.00682790886            0.000297995343           
       2.903099             0.00666179768            0.000295885078           
       2.905740             0.00693111598            0.000298437846           
       2.908380             0.00661676223            0.000295478797           
       2.911021             0.00661285564            0.000295953097           
       2.913661             0.00678929984            0.000296575343           
       2.916301             0.00662404801            0.000297111177           
       2.918942              0.0070086783            0.000301004847           
       2.921582             0.00671709677            0.000297768656           
       2.924222             0.00672300091            0.000296171626           
       2.926863             0.00705822429            0.000304271754           
       2.929503             0.00705114815            0.000307495202           
       2.932144             0.00755413962            0.000313053823           
       2.934784             0.00742293111            0.000311641988           
       2.937424             0.00680084037            0.000298849183           
       2.940065             0.00701043084            0.000303666201           
       2.942705             0.00691287958             0.00030246228           
       2.945346             0.00731139421            0.000309221069           
       2.947986             0.00886528127            0.000341689252           
       2.950626             0.00912441068            0.000347712868           
       2.953267             0.00995739366            0.000359379108           
       2.955907             0.00797969428            0.000325969722           
       2.958547             0.00795031622            0.000322032856           
       2.961188             0.00677822574            0.000299944464           
       2.963828             0.00668617132            0.000296212523           
       2.966469             0.00727726532            0.000309105635           
       2.969109             0.00711090173            0.000307114705           
       2.971749             0.00875780665            0.000339826051           
       2.974390             0.00922228786            0.000349678079           
       2.977030             0.00930240884             0.00035052538           
       2.979670             0.00731248943            0.000308777291           
       2.982311             0.00717102983            0.000307982821           
       2.984951             0.00784767327            0.000323018697           
       2.987592             0.00739068335            0.000312414496           
       2.990232             0.00793115576             0.00032446263           
       2.992872             0.00859538652            0.000335133616           
       2.995513              0.0102669372            0.000369150816           
       2.998153              0.0159256188            0.000462726555           
       3.000794              0.0265373998            0.000588625912           
       3.003434              0.0239154045            0.000564715712           
       3.006074              0.0176653435            0.000486910848           
       3.008715              0.0153679841            0.000457605626           
       3.011355              0.0168122902            0.000483603614           
       3.013995              0.0153059262            0.000459173592           
       3.016636              0.0274069357            0.000615589015           
       3.019276               0.206237009             0.00172902144           
       3.021917               0.388466751             0.00233273399           
       3.024557               0.140244506             0.00141281282           
       3.027197              0.0779109343              0.0010707043           
       3.029838               0.168342993              0.0015663403           
       3.032478                0.10081733             0.00121939267           
       3.035118              0.0832253494             0.00111361109           
       3.037759              0.0761583239              0.0010671578           
       3.040399               0.066755487              0.0010105428           
       3.043040              0.0681739083             0.00103114109           
       3.045680              0.0532916248            0.000897631005           
       3.048320              0.0703724417              0.0010480533           
       3.050961              0.0514706976            0.000905305706           
       3.053601              0.0807370405             0.00112882543           
       3.056242              0.0786476231             0.00112127956           
       3.058882              0.0964400085             0.00126012206           
       3.061522               0.254006904             0.00203089418           
       3.064163              0.0679794803             0.00105255061           
       3.066803              0.0233175504            0.000628366969           
       3.069443              0.0245352726            0.000640272979           
       3.072084              0.0612751634             0.00102084745           
       3.074724              0.0666272303             0.00107078291           
       3.077365              0.0135447503            0.000482447441           
       3.080005             0.00895573062            0.000396647318           
       3.082645             0.00953869898            0.000411437862           
       3.085286             0.00826048169            0.000382949556           
       3.087926             0.00763651553            0.000370544993           
       3.090566             0.00821538635            0.000388291564           
       3.093207             0.00787514841            0.000376058682           
       3.095847             0.00740864767            0.000372395937           
       3.098488             0.00787908701            0.000383340958           
       3.101128              0.0078648405             0.00038508055           
       3.103768             0.00789651839              0.0003880291           
       3.106409             0.00839181659            0.000402692597           
       3.109049              0.0094632015            0.000430950901           
       3.111690              0.0136934832            0.000516359708           
       3.114330              0.0207408004            0.000641143558           
       3.116970              0.0179315034            0.000604436803           
       3.119611              0.0124004565            0.000499374392           
       3.122251              0.0102528147            0.000457795173           
       3.124891             0.00877162066            0.000425493453           
       3.127532              0.0076940828            0.000405681364           
       3.130172             0.00886173729            0.000426421162           
       3.132813             0.00788163137            0.000410334062           
       3.135453             0.00731902318            0.000403758735           
       3.138093             0.00675702736            0.000378742794           
       3.140734             0.00585969809            0.000359263031           
       3.143374             0.00699468158             0.00039851767           
       3.146014             0.00598619599            0.000365994897           
       3.148655              0.0061046067            0.000372506877           
       3.151295             0.00782850571            0.000425176151           
       3.153936             0.00634193358            0.000388333403           
       3.156576             0.00688642869             0.00040001533           
       3.159216             0.00615680881            0.000381324758           
       3.161857             0.00622853252            0.000388244436           
       3.164497             0.00668014114            0.000410551104           
       3.167138             0.00658994883            0.000397987084           
       3.169778             0.00569997837             0.00037682231           
       3.172418             0.00600435069             0.00038901235           
       3.175059             0.00568115606            0.000383349936           
       3.177699             0.00592020272            0.000389786283           
       3.180339             0.00619262727            0.000402217008           
       3.182980             0.00522242437            0.000374354208           
       3.185620             0.00580865765            0.000399121036           
       3.188261             0.00645505296            0.000415230435           
       3.190901             0.00645937487            0.000421769829           
       3.193541              0.0059775946            0.000407072932           
       3.196182             0.00600280169            0.000416417927           
       3.198822             0.00624837035             0.00041969994           
       3.201463             0.00603764132            0.000417897085           
       3.204103             0.00523185374            0.000394192608           
       3.206743             0.00611877414            0.000429901803           
       3.209384             0.00589173087            0.000419969923           
       3.212024             0.00611483462            0.000429367497           
       3.214664             0.00513370103            0.000400914708           
       3.217305             0.00652002711             0.00046235685           
       3.219945             0.00550987961            0.000421479829           
       3.222586             0.00589797678             0.00043853891           
       3.225226             0.00601447004            0.000452825261           
       3.227866             0.00546562172            0.000435009373           
       3.230507             0.00531876126            0.000434245925           
       3.233147             0.00584823121            0.000448612215           
       3.235787             0.00639939836            0.000469403621           
       3.238428             0.00517187478            0.000429441559           
       3.241068             0.00557883858            0.000455061767           
       3.243709             0.00579530154             0.00046123179           
       3.246349             0.00595884051            0.000465077549           
       3.248989             0.00590814442            0.000473679903           
       3.251630             0.00607211935            0.000482332708           
       3.254270             0.00550421325            0.000473339532           
       3.256911             0.00520848959            0.000448911534           
       3.259551             0.00621557299            0.000501230728           
       3.262191             0.00515027314            0.000460457349           
       3.264832             0.00607864544            0.000504932925           
       3.267472              0.0056919495            0.000495537446           
       3.270112             0.00568767784            0.000496761608           
       3.272753             0.00498784643            0.000470914042           
       3.275393             0.00606946902            0.000522143832           
       3.278034             0.00446288725            0.000456857629           
       3.280674              0.0059840049             0.00053055145           
       3.283314             0.00581564236            0.000525924579           
       3.285955              0.0051503005            0.000504222977           
       3.288595             0.00471398742            0.000487774118           
       3.291235             0.00465399064            0.000487507168           
       3.293876             0.00590800189             0.00055252572           
       3.296516             0.00564945452            0.000551320785           
       3.299157              0.0053929917            0.000546803115           
       3.301797             0.00484468906            0.000518481873           
       3.304437             0.00444810369            0.000506119873           
       3.307078             0.00582817953            0.000584966537           
       3.309718             0.00607656681             0.00060326402           
       3.312359             0.00512843462            0.000565403408           
       3.314999             0.00548369307             0.00059079228           
       3.317639             0.00595362247            0.000622214839           
       3.320280             0.00710523004            0.000689659878           
       3.322920             0.00533725308            0.000606672762           
       3.325560             0.00432971173            0.000556969291           
       3.328201             0.00480520583            0.000589236653           
       3.330841              0.0056425509            0.000654044796           
       3.333482               0.004773499            0.000609210991           
       3.336122              0.0055430083            0.000670749202           
       3.338762             0.00415991233            0.000586386071           
       3.341403               0.005098346            0.000655188946           
       3.344043             0.00622675688             0.00075170977           
       3.346683             0.00607159595            0.000749813606           
       3.349324             0.00670584776            0.000800202902           
       3.351964             0.00581923013            0.000769392959           
       3.354605             0.00473069933            0.000701565726           
       3.357245             0.00453564966            0.000711096564           
       3.359885             0.00375088526            0.000646892015           
       3.362526             0.00463287377            0.000755695863           
       3.365166             0.00500524482            0.000775781121           
       3.367807             0.00653214592            0.000948695626           
       3.370447              0.0062821806            0.000930727432           
       3.373087             0.00470570975            0.000850151465           
       3.375728             0.00508872067            0.000877389882           
       3.378368             0.00503203762            0.000942790305           
       3.381008             0.00669757566             0.00107819812           
       3.383649             0.00665052858             0.00116275019           
       3.386289             0.00462063342            0.000969590085           
       3.388930             0.00410449894             0.00100361582           
       3.391570             0.00361030732            0.000941654473           
       3.394210             0.00387827685             0.00104573636           
       3.396851              0.0054805967             0.00134660371           
       3.399491             0.00637387505             0.00147856043           
       3.402131             0.00704018243             0.00183940374           
       3.404772             0.00559681537             0.00164074726           
       3.407412             0.00573870628             0.00206160709           
       3.410053             0.00303902179             0.00156218548           
       3.412693             0.00910898087             0.00382646384           
       3.415333              0.0133556121             0.00567697314           
