################################################################################
# EDF_DataBlockID                     0.Image.Psd
# EDF_BinarySize                      2105344
# EDF_HeaderSize                      2560
# ByteOrder                           LowByteFirst
# DataType                            FloatValue
# Dim_1                               512
# Dim_2                               1028
# Image                               0
# HeaderID                            EH:000000:000000:000000
# Size                                2105344
# Center_1                            304.9000
# Center_2                            588.7000
# Comment                             Xenocs_Cell_Window - front_window_open_only
# DDummy                              0.6
# Date                                2025-10-18T11:11:01
# Delta                               21.910000
# Dummy                               -1.5
# ExposureTime                        360
# Gamma                               15.360000
# Intensity1                          9.19281e-10
# PSize_1                             7.5e-05
# PSize_2                             7.5e-05
# Pressure                            0.0336313
# SampleDistance                      0.115750
# SampleEnvKind                       large
# SampleEnvPN                         ElectroChemical cell
# SampleEnvSN                         1141
# Thickness                           0
# Wavelength                          1.541891e-10
# Wavelength                          1.54189e-10
# aux                                 0
# aux_dial                            0.002375
# beamx                               588.429
# beamx_dial                          588.429
# beamz                               657.855
# beamz_dial                          657.855
# det0x                               -0.000396875
# det0x_dial                          6.36905
# det0xvd                             -0.0005
# det0xvd_dial                        -0.0005
# det0y                               450.002
# det0y_dial                          481.635
# det0z                               0
# det0z_dial                          1.2295
# det0zvd                             0
# det0zvd_dial                        0
# mag                                 1.818
# mag_dial                            1.818
# om                                  0.2499
# om_dial                             -0.610199
# phi                                 -0.0120535
# phi_dial                            0
# ry                                  0.599993
# ry_dial                             0.599993
# s1bot                               0.8
# s1bot_dial                          -1.66094
# s1hl                                0.8
# s1hl_dial                           -0.608437
# s1hr                                0.8
# s1hr_dial                           0.970938
# s1top                               0.8
# s1top_dial                          -0.461562
# s2bot                               0.45
# s2bot_dial                          1.36109
# s2hl                                0.45
# s2hl_dial                           -0.83375
# s2hr                                0.45
# s2hr_dial                           -0.118594
# s2top                               0.45
# s2top_dial                          1.44734
# w2theta                             32
# w2theta_dial                        32
# waxsch                              19.2605
# waxsch_dial                         -32.7238
# waxsh                               137.085
# waxsh_dial                          -43.5335
# waxsth                              26.0607
# waxsth_dial                         -19.4068
# waxsz                               67.0407
# waxsz_dial                          -23.7962
# wind                                65.9854
# wind_dial                           66.0041
# wpsi                                124
# wpsi_dial                           124
# wstod                               115
# wstod_dial                          115
# x                                   0
# x_dial                              1.00969
# z                                   0
# z_dial                              13.3172
# CountCutoff                         6807993
# DetectorModel                       Dectris EIGER2 Si 500K, S/N E-01-0554
# ThresholdSetting                    4023.88989258
# Saturation                          0
# FlatField                           Corrected
# BackgroundReductionExtra            0.02
# BackgroundCorrectionConstant        0.0026712
# Detector                            0
# Monitor                             0
# Pil_Roi0                            0
# SumForIntensity1                    3.30941e+08
# TransmittedFlux                     919281
# det                                 0
# mon                                 0
# pilai0                              3.30941e+08
# pilai1                              717458
# pilct0                              5.71796e+08
# pilct1                              717458
# pilroi0                             0
# pilroi1                             0
# sec                                 1
# title                               20251017__1_00155.edf
# usaxs0                              0
# Operation                           Azimuthal average I(q)
# Error_model                         ErrorModel.poisson
# Geometrical_correction              True
# Transmission_correction             True
# Thickness_correction                False
# Binning mode                        Uniform
# Binning factor                      1.0
# Psi                                 0.0
# Omega                               0.2499
# MaskInvalidPixels                   True
# DetectorEdge                        3
# MaskFiles                           ['20251017__1_00233_mask.edf']
################################################################################
    q(A⁻¹)                Intensity(a.u.)            Sigma_I(a.u.)            
       0.690460           -2.20936734e-05                         0           
       0.693100              0.0077021565             0.00356840937           
       0.695741             0.00560821943             0.00257245106           
       0.698381             0.00787235554             0.00285057937           
       0.701021              0.0120572892             0.00287919112           
       0.703662             0.00619583443             0.00191045976           
       0.706302             0.00808531931             0.00210771765           
       0.708942             0.00338040314             0.00121057589           
       0.711583             0.00636800221             0.00166123024           
       0.714223             0.00581849841             0.00138375088           
       0.716864             0.00937261814             0.00179215108           
       0.719504             0.00838952853             0.00156924156           
       0.722144             0.00536685194             0.00121217835           
       0.724785             0.00787670549             0.00144444804           
       0.727425              0.0098805071             0.00150057292           
       0.730065             0.00542759522             0.00114436027           
       0.732706             0.00982965949             0.00138486083           
       0.735346             0.00652825353             0.00121906746           
       0.737987             0.00862280883             0.00121266699           
       0.740627             0.00670178757             0.00117117098           
       0.743267             0.00766022896             0.00107703887           
       0.745908             0.00624402564             0.00104213983           
       0.748548              0.0077920289             0.00108579825           
       0.751189             0.00618640805            0.000958367695           
       0.753829             0.00658549063            0.000997716277           
       0.756469             0.00966643311             0.00113691016           
       0.759110             0.00735143775             0.00102551674           
       0.761750              0.0072360091            0.000931160072           
       0.764390             0.00685196686            0.000972662535           
       0.767031              0.0067224046            0.000871785694           
       0.769671             0.00745456636             0.00097360493           
       0.772312             0.00713022976            0.000867699918           
       0.774952             0.00563878036            0.000827230801           
       0.777592             0.00726021363            0.000858546628           
       0.780233             0.00571314817            0.000802885807           
       0.782873             0.00714638876            0.000821141743           
       0.785513             0.00658359873             0.00083839926           
       0.788154             0.00627472716            0.000751798861           
       0.790794             0.00516943837            0.000706243099           
       0.793435              0.0065477456            0.000763433772           
       0.796075             0.00670047946            0.000776366696           
       0.798715              0.0064147102            0.000755294062           
       0.801356             0.00585575806            0.000702325247           
       0.803996             0.00656028426            0.000755254689           
       0.806637              0.0054630822            0.000651484499           
       0.809277             0.00684800353            0.000763073895           
       0.811917             0.00630138138            0.000692671041           
       0.814558             0.00675552006            0.000734722426           
       0.817198             0.00700836819            0.000713548398           
       0.819838             0.00659593965             0.00072207482           
       0.822479             0.00708260736            0.000689542821           
       0.825119             0.00599781128            0.000681662171           
       0.827760             0.00769407268            0.000715392671           
       0.830400             0.00718824264             0.00072855853           
       0.833040              0.0071426129            0.000677791129           
       0.835681             0.00698307679            0.000701820168           
       0.838321             0.00725108913            0.000669377772           
       0.840961             0.00630669004            0.000652511141           
       0.843602             0.00691040893            0.000643386102           
       0.846242             0.00606068357            0.000623805992           
       0.848883             0.00633273324            0.000620293043           
       0.851523             0.00624999353            0.000620845717           
       0.854163             0.00712286812            0.000655083007           
       0.856804              0.0080323747            0.000677850484           
       0.859444             0.00583409981            0.000581848866           
       0.862085              0.0062289496            0.000592470674           
       0.864725             0.00671822656            0.000613040817           
       0.867365             0.00767668706              0.0006506203           
       0.870006             0.00649026497            0.000606581784           
       0.872646             0.00727135934            0.000614103388           
       0.875286             0.00666044929            0.000607766449           
       0.877927             0.00707564324            0.000599774556           
       0.880567              0.0074487011            0.000627404751           
       0.883208             0.00645314563            0.000567108473           
       0.885848             0.00699231327            0.000605633582           
       0.888488             0.00712171225            0.000581152636           
       0.891129             0.00807165988            0.000650363285           
       0.893769               0.006987412            0.000571977243           
       0.896410             0.00733536661            0.000604097897           
       0.899050             0.00633240152            0.000541185193           
       0.901690             0.00694533613            0.000578602519           
       0.904331             0.00642595472            0.000537117169           
       0.906971             0.00744516667            0.000596990922           
       0.909611             0.00696731142            0.000554317129           
       0.912252             0.00670602681            0.000553247391           
       0.914892             0.00687590306            0.000546021491           
       0.917533             0.00715988008            0.000569755136           
       0.920173             0.00693420578            0.000537854668           
       0.922813             0.00665534197            0.000550649788           
       0.925454             0.00714515459            0.000541488893           
       0.928094             0.00667099179            0.000534444148           
       0.930734             0.00648717631            0.000514451636           
       0.933375             0.00804385506            0.000585072296           
       0.936015             0.00736404945            0.000535629522           
       0.938656             0.00715627635            0.000550167272           
       0.941296             0.00732378046            0.000536530677           
       0.943936             0.00699385933            0.000533749257           
       0.946577             0.00680324612            0.000506980308           
       0.949217             0.00705309562            0.000534436242           
       0.951858              0.0068896528             0.00049935826           
       0.954498             0.00729461017            0.000540565457           
       0.957138             0.00673490313            0.000499233076           
       0.959779             0.00696565732            0.000518818659           
       0.962419             0.00750895806            0.000518577147           
       0.965059             0.00717268098            0.000521228594           
       0.967700             0.00708538605            0.000501294534           
       0.970340             0.00791565408            0.000544740717           
       0.972981             0.00741253492            0.000508973324           
       0.975621             0.00645365412            0.000484857316           
       0.978261             0.00687041724            0.000477318338           
       0.980902             0.00727308468            0.000514490857           
       0.983542             0.00806109175             0.00052587447           
       0.986182             0.00723226589            0.000504666354           
       0.988823             0.00771257677             0.00050433963           
       0.991463             0.00702209859            0.000492728836           
       0.994104             0.00800231076             0.00050826581           
       0.996744             0.00664081892            0.000478028864           
       0.999384             0.00718628683            0.000480396139           
       1.002025             0.00764465345            0.000509275604           
       1.004665             0.00711808024            0.000471293244           
       1.007306             0.00762481109            0.000504124939           
       1.009946             0.00767983433            0.000486477871           
       1.012586             0.00724969741            0.000486254339           
       1.015227             0.00705542093            0.000465174703           
       1.017867             0.00737182631            0.000489116841           
       1.020507             0.00811608784            0.000493893679           
       1.023148             0.00667531392            0.000453325482           
       1.025788             0.00784368213            0.000486367208           
       1.028429              0.0076293697            0.000490162794           
       1.031069              0.0081009228            0.000486623026           
       1.033709             0.00743609441            0.000475180395           
       1.036350             0.00769725166            0.000470775534           
       1.038990             0.00749699399            0.000476081375           
       1.041630             0.00826612445            0.000490288808           
       1.044271             0.00759081488            0.000469887587           
       1.046911             0.00842166521            0.000485739859           
       1.049552             0.00752836833            0.000475806879           
       1.052192             0.00776156996            0.000461394859           
       1.054832             0.00773905812            0.000469685009           
       1.057473             0.00766751597            0.000461590502           
       1.060113             0.00815113108            0.000481078581           
       1.062754             0.00756371918            0.000458294547           
       1.065394             0.00788374326            0.000462966607           
       1.068034             0.00764913121            0.000454260366           
       1.070675             0.00821218579            0.000478961389           
       1.073315             0.00787622839            0.000454724333           
       1.075955              0.0080090836            0.000466233816           
       1.078596             0.00773280974            0.000457216334           
       1.081236             0.00867782975            0.000477165342           
       1.083877              0.0077034633            0.000463623645           
       1.086517             0.00829142352            0.000470110513           
       1.089157              0.0082701424            0.000472949118           
       1.091798             0.00815206881            0.000459612094           
       1.094438             0.00850566777            0.000476935586           
       1.097078             0.00751880221            0.000436891567           
       1.099719              0.0083808163            0.000473078023           
       1.102359             0.00851016788             0.00045160119           
       1.105000              0.0078501465             0.00045081752           
       1.107640             0.00922741265            0.000472834389           
       1.110280             0.00841395512            0.000460552728           
       1.112921             0.00809760525            0.000443636568           
       1.115561             0.00776892345            0.000440054289           
       1.118202             0.00913983278            0.000463372909           
       1.120842             0.00829245478            0.000455276826           
       1.123482             0.00880846234            0.000456065491           
       1.126123             0.00788091582            0.000434077678           
       1.128763              0.0080516245            0.000436577579           
       1.131403             0.00860972709            0.000450753092           
       1.134044              0.0087424139            0.000453424781           
       1.136684              0.0089664807            0.000462649579           
       1.139325             0.00817723847            0.000429370647           
       1.141965             0.00834669892            0.000439470237           
       1.144605             0.00929190514            0.000466410154           
       1.147246             0.00888203317            0.000447371072           
       1.149886             0.00822397637            0.000433541175           
       1.152527             0.00842248495            0.000439181967           
       1.155167              0.0076849111            0.000413613096           
       1.157807             0.00859637367            0.000437755479           
       1.160448             0.00920736515            0.000459244008           
       1.163088             0.00872637042              0.0004305008           
       1.165728             0.00858650526            0.000444638509           
       1.168369             0.00868543035            0.000431227973           
       1.171009             0.00861042693            0.000432921772           
       1.173650             0.00884834663            0.000435697482           
       1.176290             0.00870157148            0.000437138488           
       1.178930             0.00907943479            0.000433976497           
       1.181571             0.00826418869            0.000427557889           
       1.184211             0.00902903747            0.000433408088           
       1.186851             0.00927083066            0.000443222391           
       1.189492             0.00863557187            0.000430143026           
       1.192132             0.00965674549            0.000448128557           
       1.194773             0.00950409372            0.000441890354           
       1.197413             0.00958815668            0.000447460875           
       1.200053             0.00857402119            0.000420473551           
       1.202694             0.00967393673            0.000443264461           
       1.205334             0.00988036601            0.000452865824           
       1.207975             0.00961630893            0.000438019405           
       1.210615             0.00873400099            0.000426268924           
       1.213255             0.00935461772            0.000429483004           
       1.215896             0.00962798475            0.000443972115           
       1.218536             0.00990570999            0.000437359338           
       1.221176               0.010592944            0.000463071707           
       1.223817             0.00863557703            0.000409392919           
       1.226457             0.00952523606            0.000435425681           
       1.229098             0.00906061178             0.00041823062           
       1.231738             0.00981648152            0.000441456454           
       1.234378             0.00964291889            0.000429034924           
       1.237019             0.00947301859            0.000428668445           
       1.239659              0.0099118951            0.000438248692           
       1.242299             0.00959850736             0.00042906015           
       1.244940             0.00944918776            0.000421114488           
       1.247580             0.00930693797            0.000419778062           
       1.250221             0.00875219456            0.000413720212           
       1.252861             0.00962926255            0.000417787437           
       1.255501              0.0100116282            0.000438029377           
       1.258142             0.00991678384            0.000427330928           
       1.260782             0.00923339457            0.000417001627           
       1.263423              0.0105175323            0.000436237956           
       1.266063             0.00971650455             0.00042711193           
       1.268703             0.00961674774            0.000414208044           
       1.271344             0.00942502795            0.000418989504           
       1.273984             0.00949991742            0.000414084138           
       1.276624             0.00987845654            0.000419677111           
       1.279265             0.00972834176            0.000417385461           
       1.281905             0.00946238368            0.000414177856           
       1.284546              0.0102074704            0.000425476072           
       1.287186              0.0102418817             0.00042660209           
       1.289826             0.00986734335             0.00042090057           
       1.292467              0.0101739701            0.000419762158           
       1.295107             0.00967272381            0.000416505583           
       1.297747             0.00963170178            0.000404719892           
       1.300388             0.00996171628            0.000422164472           
       1.303028             0.00926723873            0.000396828789           
       1.305669              0.0097128245            0.000411505746           
       1.308309              0.0104256387            0.000419927979           
       1.310949              0.0101576085            0.000419661168           
       1.313590             0.00975319949            0.000404858256           
       1.316230              0.0098497239            0.000414180142           
       1.318871              0.0101338646            0.000411048413           
       1.321511              0.0105950055             0.00042240298           
       1.324151             0.00994180735            0.000410791795           
       1.326792              0.0102148827            0.000413022232           
       1.329432               0.010069616            0.000412213975           
       1.332072               0.010731958            0.000418257807           
       1.334713              0.0100855426            0.000410494319           
       1.337353             0.00991182888            0.000400684035           
       1.339994              0.0109802811            0.000427734349           
       1.342634               0.010918703            0.000416930978           
       1.345274              0.0115790472            0.000434966602           
       1.347915              0.0114701029            0.000434066454           
       1.350555              0.0109834448            0.000423098839           
       1.353195              0.0109428241            0.000414236658           
       1.355836              0.0117706948            0.000437726403           
       1.358476              0.0105824903            0.000413878123           
       1.361117              0.0115254099            0.000421088189           
       1.363757              0.0106606572            0.000418404492           
       1.366397              0.0111179662            0.000413978393           
       1.369038              0.0110923658            0.000422216945           
       1.371678              0.0098892427            0.000390612379           
       1.374319              0.0110476225             0.00041613069           
       1.376959              0.0101358835            0.000393102405           
       1.379599              0.0107711366            0.000413132608           
       1.382240              0.0101005608            0.000392467142           
       1.384880              0.0104139704            0.000403402429           
       1.387520              0.0110692729            0.000411038285           
       1.390161             0.00981001009            0.000385900599           
       1.392801              0.0108092659            0.000407492499           
       1.395442              0.0103685027            0.000394962779           
       1.398082             0.00997728278             0.00038876571           
       1.400722              0.0103173927            0.000393550422           
       1.403363              0.0101500242             0.00039396761           
       1.406003              0.0105914244            0.000392560756           
       1.408644             0.00999880165            0.000389427616           
       1.411284              0.0109302013            0.000404928686           
       1.413924              0.0101653942            0.000385688623           
       1.416565              0.0108801477            0.000398548591           
       1.419205               0.010722824            0.000399554067           
       1.421845              0.0107071942            0.000394243331           
       1.424486              0.0103536245            0.000389390901           
       1.427126             0.00957218588            0.000374171801           
       1.429767              0.0111387206            0.000397409854           
       1.432407              0.0107982702            0.000401146524           
       1.435047               0.010343486            0.000380810118           
       1.437688              0.0105739485            0.000393555572           
       1.440328               0.010959863            0.000392908426           
       1.442968              0.0103958363            0.000387961992           
       1.445609              0.0101625576            0.000377275207           
       1.448249              0.0100186385            0.000377016329           
       1.450890              0.0101760109            0.000377255372           
       1.453530               0.010362574             0.00038351777           
       1.456170              0.0104473231            0.000384215895           
       1.458811               0.010545509            0.000382946067           
       1.461451             0.00973167393            0.000370576939           
       1.464092              0.0111760762            0.000393665268           
       1.466732              0.0109243286            0.000386819028           
       1.469372             0.00978711193            0.000365006581           
       1.472013              0.0105197852            0.000385192736           
       1.474653               0.010307646            0.000371874414           
       1.477293             0.00974077661            0.000367589144           
       1.479934              0.0107017211            0.000381261735           
       1.482574              0.0107058046            0.000380393345           
       1.485215              0.0103248603             0.00037452621           
       1.487855              0.0107158227            0.000381472432           
       1.490495             0.00996109988            0.000367001875           
       1.493136               0.011803263            0.000394259901           
       1.495776              0.0101381159            0.000371763464           
       1.498416              0.0104707758            0.000370473688           
       1.501057              0.0101184474            0.000367319857           
       1.503697              0.0103046525            0.000367120238           
       1.506338              0.0101277633            0.000366632174           
       1.508978             0.00969529906            0.000356601023           
       1.511618              0.0101680181            0.000365006501           
       1.514259             0.00992797132             0.00036132362           
       1.516899             0.00989818805            0.000360949248           
       1.519540              0.0100643986            0.000361947366           
       1.522180              0.0100330756            0.000356870614           
       1.524820              0.0106356616            0.000374852385           
       1.527461             0.00995836517            0.000354696393           
       1.530101              0.0101557669            0.000361898147           
       1.532741             0.00973640701            0.000352668639           
       1.535382             0.00995757805            0.000357437164           
       1.538022             0.00946290188            0.000345362731           
       1.540663              0.0105241602            0.000367656519           
       1.543303             0.00978234159            0.000350051193           
       1.545943              0.0118830287            0.000387972428           
       1.548584              0.0114298788            0.000382529209           
       1.551224             0.00988680109            0.000346650974           
       1.553864              0.0101534457            0.000360471427           
       1.556505              0.0103338274            0.000358065148           
       1.559145              0.0100878783            0.000354596309           
       1.561786              0.0104886911            0.000359934108           
       1.564426             0.00996568391              0.0003505286           
       1.567066              0.0100166883            0.000348681545           
       1.569707              0.0101498867            0.000356073688           
       1.572347             0.00920721358            0.000334735593           
       1.574988             0.00946553543            0.000338056186           
       1.577628             0.00935155948             0.00034358003           
       1.580268             0.00995221743            0.000342210784           
       1.582909             0.00939069199            0.000338634032           
       1.585549              0.0091769938            0.000331630389           
       1.588189             0.00918008342            0.000335390814           
       1.590830             0.00935404916              0.0003327423           
       1.593470             0.00938065901            0.000335936378           
       1.596111             0.00861376646            0.000319130251           
       1.598751             0.00917412855            0.000332713929           
       1.601391             0.00924263263             0.00033181867           
       1.604032             0.00896200332            0.000324013844           
       1.606672             0.00814903511             0.00031518697           
       1.609312             0.00900948031             0.00032154841           
       1.611953             0.00934837763            0.000332287038           
       1.614593             0.00813344552            0.000307586172           
       1.617234             0.00860139081            0.000318103659           
       1.619874             0.00875975645            0.000317242167           
       1.622514             0.00832185256            0.000311945683           
       1.625155             0.00872820021            0.000318680846           
       1.627795             0.00859024048            0.000312957481           
       1.630436             0.00863873785            0.000316994195           
       1.633076             0.00859870908            0.000314652122           
       1.635716             0.00895584406            0.000320559965           
       1.638357             0.00866919603            0.000314048204           
       1.640997             0.00875905067            0.000318140203           
       1.643637              0.0091455254            0.000319046601           
       1.646278             0.00841986117            0.000310709669           
       1.648918             0.00914543125            0.000319645832           
       1.651559             0.00808812387            0.000304380819           
       1.654199             0.00851739986            0.000308072351           
       1.656839             0.00845393387            0.000306839791           
       1.659480             0.00872691035            0.000314500038           
       1.662120             0.00843356116            0.000305026026           
       1.664761             0.00891465091            0.000317000882           
       1.667401             0.00805936853            0.000298602893           
       1.670041             0.00901302212            0.000316137077           
       1.672682             0.00825649638            0.000299731316           
       1.675322             0.00829103138            0.000305668119           
       1.677962             0.00814443278            0.000296937053           
       1.680603             0.00871965761            0.000309970973           
       1.683243             0.00800689929            0.000294834814           
       1.685884             0.00847181391            0.000304427788           
       1.688524              0.0090532435             0.00031381564           
       1.691164             0.00839613259            0.000301435521           
       1.693805             0.00835988354            0.000303216445           
       1.696445              0.0082096771            0.000296309602           
       1.699085             0.00840146978            0.000300947502           
       1.701726             0.00817432317            0.000292990034           
       1.704366             0.00866248916            0.000308950672           
       1.707007             0.00805222933            0.000291513032           
       1.709647             0.00807543402            0.000295560047           
       1.712287              0.0085086548            0.000298314256           
       1.714928             0.00846820615            0.000300596854           
       1.717568             0.00855796916            0.000299407034           
       1.720209                0.00810634            0.000293199091           
       1.722849             0.00902909681            0.000309933235           
       1.725489             0.00790903143            0.000285449793           
       1.728130             0.00847062874            0.000301424122           
       1.730770             0.00801679796            0.000287039933           
       1.733410             0.00850452545            0.000299523614           
       1.736051             0.00845936438            0.000294090464           
       1.738691             0.00842318129            0.000296456235           
       1.741332              0.0084609395            0.000295290932           
       1.743972             0.00768296389            0.000281492136           
       1.746612             0.00806023441            0.000288386952           
       1.749253             0.00784022909            0.000285653108           
       1.751893             0.00853195898            0.000296200348           
       1.754533             0.00853759298            0.000292231492           
       1.757174             0.00841005379            0.000295463306           
       1.759814             0.00839909513            0.000290769179           
       1.762455             0.00777393887            0.000282120323           
       1.765095             0.00830598619            0.000287519481           
       1.767735             0.00808492728            0.000288487776           
       1.770376             0.00817905403            0.000285761862           
       1.773016             0.00824518336            0.000287367572           
       1.775657             0.00808280274            0.000285106716           
       1.778297             0.00798675423            0.000284794118           
       1.780937             0.00814403355            0.000286242605           
       1.783578             0.00835674805            0.000288595151           
       1.786218             0.00783099679            0.000283827483           
       1.788858             0.00818238774            0.000282917291           
       1.791499             0.00820755716            0.000288574313           
       1.794139             0.00819902337            0.000283098221           
       1.796780             0.00840353617            0.000288310189           
       1.799420             0.00909569706            0.000299566793           
       1.802060             0.00865426586            0.000288613151           
       1.804701             0.00928115029            0.000302893244           
       1.807341             0.00879307933            0.000291972771           
       1.809981             0.00892353463            0.000296084067           
       1.812622              0.0088662894            0.000293524875           
       1.815262             0.00902370562            0.000297174934           
       1.817903             0.00894342819            0.000292195017           
       1.820543             0.00923752738            0.000300630933           
       1.823183             0.00909027275            0.000293630074           
       1.825824             0.00833237249            0.000285350641           
       1.828464             0.00859978373            0.000289003923           
       1.831105             0.00810032513            0.000281571899           
       1.833745             0.00803464049             0.00028025292           
       1.836385             0.00783794219            0.000275724618           
       1.839026             0.00847117791             0.00029095533           
       1.841666             0.00839515351            0.000285885822           
       1.844306             0.00839199669            0.000289440598           
       1.846947             0.00836583387            0.000285275331           
       1.849587             0.00880767566            0.000296681824           
       1.852228             0.00882361637            0.000293791868           
       1.854868              0.0084046297             0.00029199059           
       1.857508             0.00850987006            0.000288387805           
       1.860149             0.00852889128            0.000291024073           
       1.862789             0.00881137377             0.00029711318           
       1.865429             0.00882966667            0.000298318121           
       1.868070             0.00794425779            0.000281988157           
       1.870710              0.0079424891            0.000282724626           
       1.873351             0.00831496056            0.000291124787           
       1.875991             0.00820972689            0.000290841482           
       1.878631             0.00907387722             0.00030292351           
       1.881272             0.00823495179            0.000287904564           
       1.883912             0.00812770814            0.000289378164           
       1.886553             0.00867592075            0.000295391792           
       1.889193             0.00808244105            0.000288403125           
       1.891833             0.00840576502            0.000290768097           
       1.894474             0.00785581544            0.000283320145           
       1.897114             0.00840311866            0.000290750348           
       1.899754             0.00808923545            0.000288467688           
       1.902395              0.0081228739            0.000289128476           
       1.905035             0.00833007135            0.000291645355           
       1.907676             0.00805057928            0.000287044261           
       1.910316             0.00813923383            0.000290460717           
       1.912956             0.00838253457            0.000294758311           
       1.915597             0.00783882015            0.000282066997           
       1.918237             0.00796312573            0.000288610201           
       1.920878             0.00827528536            0.000289005824           
       1.923518             0.00812535263            0.000293984337           
       1.926158             0.00844640632            0.000292848471           
       1.928799             0.00828268749            0.000293850013           
       1.931439             0.00847796368            0.000294911307           
       1.934079             0.00840101067            0.000296542769           
       1.936720             0.00808759934            0.000289246216           
       1.939360              0.0077387959            0.000285667068           
       1.942001             0.00797026261            0.000288792461           
       1.944641             0.00825250346            0.000292595014           
       1.947281             0.00804124454            0.000290221025           
       1.949922             0.00829041718            0.000295052067           
       1.952562             0.00782286868            0.000289077727           
       1.955202             0.00730855888            0.000272393369           
       1.957843             0.00757609148            0.000286144087           
       1.960483             0.00793362671            0.000288147519           
       1.963124             0.00875106257            0.000302403786           
       1.965764             0.00790833232            0.000287577251           
       1.968404             0.00758132434            0.000286603908           
       1.971045              0.0079125123            0.000285457503           
       1.973685             0.00790486411            0.000290643939           
       1.976326             0.00794927181            0.000290188457           
       1.978966             0.00767918275            0.000286565689           
       1.981606             0.00759173138             0.00028191601           
       1.984247             0.00833195004            0.000297915533           
       1.986887             0.00758516519            0.000286909646           
       1.989527             0.00805399698            0.000289484255           
       1.992168             0.00764752548            0.000288890661           
       1.994808              0.0078696193            0.000289646831           
       1.997449             0.00755034658            0.000283294415           
       2.000089             0.00800539151            0.000289988665           
       2.002729             0.00793157638             0.00029526284           
       2.005370             0.00752258701            0.000282083361           
       2.008010             0.00731395487            0.000281837021           
       2.010650             0.00706336828            0.000276174554           
       2.013291              0.0074165379             0.00028460551           
       2.015931             0.00799485226            0.000293378606           
       2.018572             0.00791775692            0.000295838199           
       2.021212             0.00759511455             0.00028714752           
       2.023852             0.00743442266            0.000285586056           
       2.026493             0.00743435368            0.000284333203           
       2.029133             0.00765510272            0.000286322701           
       2.031774             0.00727020219            0.000281737638           
       2.034414             0.00764472214             0.00028717916           
       2.037054             0.00751807067            0.000288381338           
       2.039695             0.00748835399            0.000282141708           
       2.042335             0.00758276804            0.000288747401           
       2.044975             0.00781753795             0.00029084012           
       2.047616             0.00713050509            0.000278956486           
       2.050256             0.00789734894            0.000290120296           
       2.052897             0.00692416491            0.000279702841           
       2.055537             0.00770496923            0.000287007781           
       2.058177             0.00726406632             0.00028113668           
       2.060818             0.00705293716             0.00027785261           
       2.063458             0.00744814006            0.000285924354           
       2.066098             0.00758916226            0.000287337668           
       2.068739             0.00708865783            0.000280596631           
       2.071379             0.00747105906            0.000283811627           
       2.074020             0.00751157318            0.000288477111           
       2.076660             0.00734948415            0.000283413452           
       2.079300             0.00768798882            0.000289824756           
       2.081941             0.00736013278            0.000285301607           
       2.084581             0.00778579164            0.000293652946           
       2.087222             0.00756104422            0.000289580703           
       2.089862             0.00735210215            0.000281992416           
       2.092502              0.0069066348            0.000278282044           
       2.095143             0.00746369808            0.000285152583           
       2.097783             0.00696042912            0.000279561321           
       2.100423             0.00760971471            0.000286704802           
       2.103064             0.00730912708             0.00028583668           
       2.105704             0.00788033007            0.000295660136           
       2.108345             0.00730019149            0.000285875523           
       2.110985             0.00707469809            0.000277472845           
       2.113625             0.00742846388            0.000288805402           
       2.116266             0.00749855727            0.000288017107           
       2.118906             0.00746653249            0.000287192449           
       2.121546             0.00757360309            0.000289014639           
       2.124187              0.0069536813            0.000280764249           
       2.126827             0.00753035652            0.000287592294           
       2.129468             0.00745152026            0.000289068379           
       2.132108             0.00720656204            0.000283689076           
       2.134748             0.00728233949            0.000284101944           
       2.137389             0.00746759635            0.000290102523           
       2.140029             0.00704731237            0.000281136287           
       2.142670              0.0070468983            0.000281587385           
       2.145310             0.00702583062            0.000282240339           
       2.147950             0.00733554141            0.000289508959           
       2.150591             0.00686067346            0.000277413792           
       2.153231             0.00731560625             0.00029069902           
       2.155871             0.00802405016            0.000300052543           
       2.158512             0.00782447232            0.000301636585           
       2.161152             0.00734480774            0.000284944517           
       2.163793             0.00792239561             0.00030075167           
       2.166433             0.00748932706            0.000287345261           
       2.169073             0.00757400432            0.000295711778           
       2.171714             0.00753489417            0.000288942589           
       2.174354             0.00721753758              0.0002871136           
       2.176995              0.0076055163            0.000292284659           
       2.179635             0.00718977953            0.000289562123           
       2.182275             0.00741723796            0.000288268538           
       2.184916             0.00708549804            0.000287703029           
       2.187556             0.00771197739            0.000295320417           
       2.190196             0.00722657234            0.000290368754           
       2.192837             0.00676921103            0.000277952594           
       2.195477               0.007232396            0.000290076143           
       2.198118             0.00703784216            0.000280865174           
       2.200758             0.00729581044            0.000290407183           
       2.203398             0.00730691398            0.000285808466           
       2.206039              0.0071792397            0.000287630694           
       2.208679             0.00748750582            0.000290865596           
       2.211319              0.0071886387            0.000286342962           
       2.213960              0.0071066882            0.000281679013           
       2.216600             0.00699734301            0.000286089168           
       2.219241             0.00710494433            0.000284089311           
       2.221881             0.00802890094            0.000303571138           
       2.224521             0.00751855775            0.000292745843           
       2.227162             0.00747190158            0.000296419954           
       2.229802             0.00713475491            0.000284953447           
       2.232443             0.00689239976            0.000281173018           
       2.235083             0.00786648523            0.000298584168           
       2.237723             0.00730998092            0.000290034757           
       2.240364             0.00664901949            0.000275204856           
       2.243004             0.00682062273            0.000279575667           
       2.245644             0.00752416175            0.000292962725           
       2.248285             0.00730680922             0.00029057439           
       2.250925             0.00707010876            0.000284492546           
       2.253566             0.00685258998            0.000280766869           
       2.256206             0.00730184522            0.000288956144           
       2.258846             0.00726325156            0.000288194068           
       2.261487             0.00733004439            0.000290016975           
       2.264127             0.00744707265            0.000295088836           
       2.266767             0.00707664995            0.000283006889           
       2.269408             0.00703165228            0.000285456205           
       2.272048             0.00717287008            0.000286534899           
       2.274689             0.00718917636            0.000287988423           
       2.277329             0.00731587341            0.000290128959           
       2.279969             0.00725189655            0.000289733105           
       2.282610             0.00740929657            0.000290004519           
       2.285250             0.00703894611            0.000287109343           
       2.287891             0.00724347937            0.000288311756           
       2.290531             0.00714295433            0.000287716028           
       2.293171             0.00674936178            0.000279663032           
       2.295812             0.00701293372            0.000283558316           
       2.298452             0.00703597602            0.000285842869           
       2.301092             0.00732231595            0.000293453586           
       2.303733             0.00692662675            0.000279769183           
       2.306373             0.00716618752            0.000291526275           
       2.309014             0.00707527396            0.000284089142           
       2.311654             0.00692639786             0.00028375201           
       2.314294             0.00703689416            0.000285382001           
       2.316935              0.0070476487            0.000286728767           
       2.319575             0.00725699498             0.00028986664           
       2.322215              0.0068097884            0.000284794473           
       2.324856             0.00743384461            0.000290085516           
       2.327496             0.00676509317            0.000283512015           
       2.330137             0.00691266609            0.000281302191           
       2.332777             0.00719285914            0.000290085002           
       2.335417             0.00706729818            0.000286678727           
       2.338058             0.00704351294             0.00028734135           
       2.340698             0.00752745384            0.000294123914           
       2.343339             0.00723355014            0.000293826853           
       2.345979              0.0065691717            0.000274420901           
       2.348619             0.00678054486            0.000284065983           
       2.351260             0.00771314649            0.000296531819           
       2.353900             0.00689255016            0.000286252214           
       2.356540             0.00742150574            0.000292947967           
       2.359181             0.00711515272            0.000290673574           
       2.361821             0.00747074344            0.000294219379           
       2.364462             0.00720225664            0.000293712189           
       2.367102             0.00693553766            0.000279887694           
       2.369742             0.00719900761             0.00029537342           
       2.372383             0.00719759296            0.000286734841           
       2.375023             0.00716630805            0.000293565391           
       2.377663             0.00735917271            0.000291167662           
       2.380304              0.0067509661            0.000282744793           
       2.382944             0.00702475267             0.00028560014           
       2.385585             0.00699059037            0.000287598234           
       2.388225             0.00725900561            0.000291743484           
       2.390865             0.00770478814            0.000301337814           
       2.393506             0.00706240101            0.000287172873           
       2.396146             0.00740128864            0.000294956511           
       2.398787             0.00716367996            0.000290437115           
       2.401427             0.00720844869            0.000289574203           
       2.404067             0.00720657701            0.000293955813           
       2.406708             0.00684618195            0.000282910134           
       2.409348             0.00711460654            0.000290572547           
       2.411988             0.00744731728            0.000296339684           
       2.414629             0.00696872932             0.00028759766           
       2.417269             0.00693800334              0.0002843569           
       2.419910             0.00683292625            0.000285754074           
       2.422550             0.00714679003            0.000287807116           
       2.425190             0.00664624333            0.000286283958           
       2.427831             0.00701603087            0.000283078128           
       2.430471             0.00706543648            0.000292376932           
       2.433112             0.00675517683            0.000279139587           
       2.435752             0.00687735044            0.000288782882           
       2.438392             0.00688161779            0.000284017058           
       2.441033             0.00674848435            0.000282545132           
       2.443673             0.00718467999            0.000292311974           
       2.446313             0.00708135621            0.000288656291           
       2.448954             0.00716900675             0.00029298573           
       2.451594             0.00735014741            0.000294884067           
       2.454235             0.00737311564             0.00029442546           
       2.456875             0.00710693794            0.000290526261           
       2.459515             0.00799288513            0.000308578055           
       2.462156             0.00821018185            0.000311132309           
       2.464796             0.00793328785            0.000311235555           
       2.467436              0.0077197742            0.000300581057           
       2.470077             0.00814487266            0.000313003561           
       2.472717             0.00829557929            0.000311933531           
       2.475358             0.00783093339            0.000306505409           
       2.477998             0.00752751906             0.00029890563           
       2.480638             0.00771832189            0.000303405579           
       2.483279             0.00758247163            0.000302015507           
       2.485919             0.00734725315            0.000295212501           
       2.488560             0.00780844283             0.00030559916           
       2.491200             0.00685521053             0.00028594631           
       2.493840             0.00734641174            0.000294401978           
       2.496481             0.00744933308            0.000300333774           
       2.499121             0.00694078895            0.000286041224           
       2.501761             0.00683414988            0.000288655014           
       2.504402             0.00696728092             0.00028586757           
       2.507042             0.00679269734            0.000286955408           
       2.509683             0.00738608797            0.000296501801           
       2.512323             0.00751686945            0.000300286497           
       2.514963             0.00918333284              0.0003325679           
       2.517604              0.0174765404            0.000456987513           
       2.520244               0.049623592            0.000770221512           
       2.522884              0.0129157486            0.000392085051           
       2.525525              0.0101828794            0.000351001155           
       2.528165              0.0285355905            0.000584896032           
       2.530806              0.0251494524            0.000547036387           
       2.533446              0.0150635638            0.000427128187           
       2.536086              0.0146964667            0.000418350733           
       2.538727              0.0115781833            0.000373705593           
       2.541367             0.00788829761            0.000307579514           
       2.544008             0.00858896502            0.000321220997           
       2.546648             0.00757411779            0.000301989893           
       2.549288             0.00738282876            0.000298194954           
       2.551929             0.00736916653            0.000298902991           
       2.554569             0.00700807651            0.000288824192           
       2.557209             0.00731220255            0.000298358032           
       2.559850             0.00695782437            0.000287691748           
       2.562490             0.00724982482            0.000295804757           
       2.565131             0.00763454973            0.000304080154           
       2.567771             0.00713475649            0.000292400457           
       2.570411             0.00694019189            0.000291895373           
       2.573052             0.00704099732             0.00029057568           
       2.575692              0.0068080254            0.000286485931           
       2.578332             0.00734936902            0.000296778828           
       2.580973             0.00681333709             0.00028806792           
       2.583613             0.00724556414            0.000294357608           
       2.586254              0.0070039828            0.000291969152           
       2.588894             0.00681523073            0.000286471779           
       2.591534             0.00701638329            0.000291203315           
       2.594175             0.00659881973            0.000284044564           
       2.596815             0.00686477364            0.000287018378           
       2.599456             0.00696977901            0.000291571402           
       2.602096             0.00709178831            0.000293011736           
       2.604736             0.00763287202            0.000304781527           
       2.607377             0.00728958304            0.000296709885           
       2.610017             0.00737231738            0.000298284662           
       2.612657             0.00655734955            0.000283302316           
       2.615298             0.00751920858            0.000300402095           
       2.617938             0.00688209324            0.000289907804           
       2.620579             0.00677006013             0.00028518963           
       2.623219             0.00700866394            0.000294813265           
       2.625859             0.00712783658             0.00029229836           
       2.628500             0.00675021557            0.000288996367           
       2.631140             0.00696982335            0.000288481212           
       2.633780             0.00713955882            0.000295722879           
       2.636421              0.0074154573            0.000298640136           
       2.639061             0.00683919049            0.000290230705           
       2.641702             0.00667355949            0.000283630005           
       2.644342             0.00675640265            0.000287726055           
       2.646982             0.00691811427            0.000290901816           
       2.649623             0.00699827978            0.000294336404           
       2.652263             0.00725417893            0.000297284888           
       2.654904             0.00718034022            0.000297373966           
       2.657544              0.0065151368            0.000281271593           
       2.660184             0.00701342639            0.000292202806           
       2.662825             0.00758348287            0.000304574359           
       2.665465             0.00703671731            0.000293931765           
       2.668105             0.00715178183            0.000296442539           
       2.670746             0.00671580631            0.000284834185           
       2.673386             0.00670506133            0.000288055535           
       2.676027             0.00724472434            0.000296878021           
       2.678667             0.00697706773            0.000292856929           
       2.681307              0.0068458745            0.000287809376           
       2.683948             0.00730275941            0.000300210439           
       2.686588             0.00744136031               0.000300265           
       2.689229              0.0075762055            0.000305692479           
       2.691869             0.00807357229            0.000312417279           
       2.694509             0.00748718002            0.000304983742           
       2.697150             0.00709988613            0.000292250881           
       2.699790             0.00741387993            0.000304846888           
       2.702430             0.00671553845            0.000284571802           
       2.705071             0.00672029087            0.000288568484           
       2.707711             0.00688744556            0.000289238348           
       2.710352             0.00741313779            0.000301781593           
       2.712992              0.0071075859            0.000296457534           
       2.715632             0.00655222064             0.00028302073           
       2.718273             0.00638441888            0.000280300621           
       2.720913             0.00713510746            0.000296816548           
       2.723553             0.00690048023            0.000290881274           
       2.726194             0.00678091158             0.00028974079           
       2.728834             0.00658786364            0.000283047982           
       2.731475             0.00682891901             0.00029069855           
       2.734115             0.00698375355             0.00029222391           
       2.736755             0.00669257358            0.000287958106           
       2.739396             0.00714331381            0.000295923845           
       2.742036             0.00727643521            0.000300707082           
       2.744677             0.00651210565             0.00028489153           
       2.747317              0.0074460725            0.000303156872           
       2.749957             0.00730359929            0.000302420685           
       2.752598              0.0071660816            0.000300462145           
       2.755238             0.00653502661            0.000286798445           
       2.757878             0.00715907064            0.000299325104           
       2.760519             0.00629304207            0.000277674014           
       2.763159             0.00684458001            0.000294295136           
       2.765800              0.0069906242            0.000292380087           
       2.768440             0.00672854269            0.000290625773           
       2.771080             0.00678029638            0.000289282816           
       2.773721             0.00692337595            0.000295905284           
       2.776361             0.00633327894            0.000279974433           
       2.779001             0.00655060014            0.000287730508           
       2.781642             0.00662784706            0.000287447178           
       2.784282             0.00692601631            0.000293944303           
       2.786923             0.00693871699            0.000291976095           
       2.789563              0.0067409639            0.000288363477           
       2.792203             0.00632878121            0.000281186858           
       2.794844              0.0067234391            0.000288502837           
       2.797484              0.0064601431            0.000283195866           
       2.800125             0.00659592957            0.000285786859           
       2.802765             0.00624067349            0.000283137407           
       2.805405             0.00644026554            0.000283477551           
       2.808046             0.00637184584            0.000286291295           
       2.810686             0.00692119785            0.000295198192           
       2.813326             0.00660419987            0.000291926398           
       2.815967             0.00662201642            0.000290477699           
       2.818607             0.00689859002            0.000299445396           
       2.821248             0.00695229026            0.000296860349           
       2.823888             0.00689762402            0.000300453559           
       2.826528             0.00706723671            0.000302310729           
       2.829169             0.00681485642            0.000295553084           
       2.831809             0.00672947832            0.000293953193           
       2.834449              0.0066392266            0.000286878993           
       2.837090             0.00664058893            0.000288635035           
       2.839730             0.00691528359            0.000292452681           
       2.842371             0.00665064773            0.000288800547           
       2.845011             0.00714768268            0.000298730103           
       2.847651             0.00673529038             0.00029051687           
       2.850292             0.00645186835            0.000282723107           
       2.852932             0.00660920857            0.000286662826           
       2.855573             0.00697420248            0.000297058169           
       2.858213             0.00696163654            0.000293460364           
       2.860853             0.00729142805             0.00030257889           
       2.863494             0.00670830891            0.000290926529           
       2.866134             0.00697280952            0.000300766924           
       2.868774             0.00666164439            0.000289479289           
       2.871415              0.0072006713            0.000303941878           
       2.874055             0.00696561929            0.000300420705           
       2.876696             0.00722813191             0.00030327364           
       2.879336             0.00710048015            0.000302579031           
       2.881976             0.00677690017            0.000295360849           
       2.884617             0.00650996052            0.000287877193           
       2.887257             0.00657530072            0.000287301017           
       2.889897             0.00727572581            0.000305680069           
       2.892538             0.00659068144            0.000288916579           
       2.895178             0.00725714104            0.000300081024           
       2.897819             0.00700199495            0.000297790283           
       2.900459             0.00720416174            0.000299557792           
       2.903099             0.00677256006            0.000291962484           
       2.905740             0.00690039299            0.000291415401           
       2.908380             0.00697855251            0.000296967899           
       2.911021             0.00684965314            0.000294771799           
       2.913661             0.00745242495            0.000304084741           
       2.916301             0.00691049109            0.000296985321           
       2.918942             0.00635916991            0.000280594346           
       2.921582             0.00687103607            0.000294728794           
       2.924222             0.00724831303            0.000300956418           
       2.926863             0.00618331596            0.000278707017           
       2.929503              0.0065484891            0.000290002841           
       2.932144             0.00667732387            0.000288038807           
       2.934784             0.00727254162            0.000301880203           
       2.937424             0.00732609389            0.000303550042           
       2.940065             0.00642034056            0.000284397915           
       2.942705             0.00619676534            0.000280251228           
       2.945346             0.00654560684            0.000286330235           
       2.947986             0.00712792273            0.000299840176           
       2.950626              0.0073237053             0.00030486464           
       2.953267             0.00849211027            0.000324796301           
       2.955907              0.0104528974            0.000365111703           
       2.958547             0.00921314797            0.000339262048           
       2.961188             0.00806027047            0.000320096494           
       2.963828              0.0080130178            0.000317348166           
       2.966469             0.00660304938            0.000288149828           
       2.969109             0.00672512726            0.000292288549           
       2.971749             0.00703083057            0.000297978948           
       2.974390             0.00749913556            0.000308587228           
       2.977030             0.00934264217            0.000343779432           
       2.979670             0.00961530856             0.00034651147           
       2.982311             0.00774640943            0.000313263089           
       2.984951              0.0077290501            0.000313720963           
       2.987592             0.00719285685            0.000301621893           
       2.990232             0.00707796956            0.000299967404           
       2.992872             0.00729866476            0.000302224918           
       2.995513              0.0082642914            0.000324122713           
       2.998153             0.00905170049            0.000341400873           
       3.000794              0.0106824768            0.000365484905           
       3.003434              0.0273001958             0.00059046908           
       3.006074              0.0659633771            0.000920795361           
       3.008715              0.0376816591            0.000701247273           
       3.011355              0.0262510351             0.00059138811           
       3.013995              0.0204986119            0.000520035026           
       3.016636              0.0322369931            0.000653372962           
       3.019276               0.164359509             0.00151055927           
       3.021917               0.217432331               0.001707944           
       3.024557               0.129950197             0.00133092457           
       3.027197               0.126211983             0.00133365626           
       3.029838               0.125866202             0.00132545942           
       3.032478                0.05489686            0.000880588503           
       3.035118               0.037532895            0.000731871845           
       3.037759               0.100568729              0.0012001201           
       3.040399               0.189292017             0.00166533132           
       3.043040              0.0813730357             0.00110248459           
       3.045680              0.0539783182            0.000884099842           
       3.048320                0.10646169             0.00126154287           
       3.050961               0.280629516             0.00206873651           
       3.053601              0.0788141574             0.00109147995           
       3.056242              0.0503608757            0.000878094012           
       3.058882               0.206323399             0.00180377146           
       3.061522               0.177050705              0.0016593448           
       3.064163              0.0249500627            0.000624041054           
       3.066803              0.0216460589            0.000592494847           
       3.069443              0.0340441323            0.000738098188           
       3.072084              0.0882118685             0.00119868589           
       3.074724              0.0276248884            0.000674759631           
       3.077365               0.011071469             0.00042686486           
       3.080005               0.010114458            0.000412523404           
       3.082645             0.00917641974            0.000394929515           
       3.085286             0.00788887745            0.000366243363           
       3.087926             0.00859633207            0.000384745187           
       3.090566             0.00822044458            0.000380114894           
       3.093207              0.0077921732            0.000366082373           
       3.095847             0.00770597486            0.000371682858           
       3.098488             0.00745311548            0.000364871108           
       3.101128             0.00850333966             0.00039185434           
       3.103768             0.00924099423            0.000410798732           
       3.106409              0.0105873557            0.000442652253           
       3.109049              0.0106265052            0.000446917388           
       3.111690              0.0111251071            0.000455481512           
       3.114330               0.010257359            0.000441248843           
       3.116970              0.0107488685            0.000457980723           
       3.119611              0.0153441691            0.000543628722           
       3.122251              0.0143763865            0.000530515159           
       3.124891              0.0112309636            0.000471177719           
       3.127532             0.00828413538            0.000411958528           
       3.130172             0.00822442984            0.000402027247           
       3.132813             0.00721774699            0.000384285158           
       3.135453             0.00996419116            0.000461041128           
       3.138093             0.00714101942            0.000381039432           
       3.140734             0.00568818676            0.000346405762           
       3.143374             0.00641579705            0.000373518564           
       3.146014             0.00693290146            0.000385460919           
       3.148655             0.00654772551             0.00037754955           
       3.151295             0.00613071061            0.000368220651           
       3.153936             0.00606637046            0.000371690655           
       3.156576             0.00642188487            0.000378036854           
       3.159216             0.00670803589            0.000389527508           
       3.161857             0.00653013192            0.000389042121           
       3.164497             0.00676808099            0.000404417977           
       3.167138             0.00632361818            0.000381534708           
       3.169778             0.00549852245            0.000362198193           
       3.172418             0.00582833197            0.000375081616           
       3.175059             0.00579372851            0.000378860545           
       3.177699             0.00586915308            0.000379812502           
       3.180339             0.00599772291            0.000387381997           
       3.182980             0.00665959458            0.000413707895           
       3.185620             0.00609426819            0.000400083631           
       3.188261             0.00579592824            0.000385056135           
       3.190901             0.00580016817            0.000391132435           
       3.193541             0.00625497734            0.000407516447           
       3.196182              0.0059412407            0.000405428494           
       3.198822             0.00558041561            0.000388161155           
       3.201463             0.00506289661             0.00037450575           
       3.204103             0.00593921712            0.000411025299           
       3.206743             0.00589228203             0.00041285932           
       3.209384             0.00544056548            0.000394949923           
       3.212024             0.00567663924              0.0004048608           
       3.214664              0.0068090944            0.000451860787           
       3.217305             0.00567902818            0.000422292027           
       3.219945              0.0063621826            0.000443232991           
       3.222586             0.00697905251            0.000466850804           
       3.225226             0.00566849027             0.00043021836           
       3.227866             0.00584021715            0.000440064769           
       3.230507             0.00563345002            0.000437361953           
       3.233147             0.00572854149            0.000434514359           
       3.235787             0.00577007917            0.000436205385           
       3.238428             0.00621127404            0.000460567925           
       3.241068             0.00600977661            0.000462222295           
       3.243709             0.00598181596            0.000458586232           
       3.246349             0.00623068406            0.000465409917           
       3.248989             0.00595827842            0.000465525075           
       3.251630              0.0058632921            0.000463842569           
       3.254270              0.0062427454            0.000493328536           
       3.256911             0.00581668423            0.000464264934           
       3.259551             0.00577335702            0.000472753316           
       3.262191              0.0061636853            0.000492966924           
       3.264832             0.00638276675            0.000506358431           
       3.267472             0.00620286013            0.000506250223           
       3.270112             0.00536026057            0.000471950831           
       3.272753              0.0062216039            0.000514706387           
       3.275393             0.00468806551             0.00044909158           
       3.278034             0.00524550745            0.000484718898           
       3.280674             0.00559368775            0.000502000234           
       3.283314             0.00465856779            0.000460653215           
       3.285955             0.00536326223            0.000503551782           
       3.288595             0.00541880205            0.000511799032           
       3.291235             0.00648837147            0.000563325461           
       3.293876             0.00501121274            0.000497997177           
       3.296516             0.00661260678            0.000583728275           
       3.299157             0.00610092896            0.000569163921           
       3.301797             0.00453348512            0.000490840053           
       3.304437             0.00547200089            0.000549366652           
       3.307078              0.0052900532             0.00054540342           
       3.309718             0.00604023006            0.000588610899           
       3.312359             0.00615513837              0.0006061892           
       3.314999              0.0054899975             0.00057850563           
       3.317639             0.00593668034            0.000608057746           
       3.320280             0.00477579359            0.000553339837           
       3.322920             0.00564851747            0.000610781833           
       3.325560             0.00626025022            0.000655421796           
       3.328201             0.00555190577            0.000619837823           
       3.330841             0.00600683728            0.000660413526           
       3.333482             0.00459190644             0.00058474848           
       3.336122             0.00500650276            0.000623846732           
       3.338762             0.00534854896            0.000650703014           
       3.341403             0.00600565282            0.000695913553           
       3.344043             0.00567960901            0.000702589628           
       3.346683              0.0051704251            0.000677155305           
       3.349324              0.0047153764            0.000656681429           
       3.351964             0.00450701524            0.000662648515           
       3.354605             0.00612521548            0.000781249317           
       3.357245             0.00560785939             0.00077380345           
       3.359885             0.00421561488            0.000671148525           
       3.362526             0.00534870749             0.00079463833           
       3.365166             0.00513076735            0.000768671855           
       3.367807             0.00534910421            0.000840161475           
       3.370447             0.00575369748            0.000871694071           
       3.373087             0.00511047094            0.000867036688           
       3.375728             0.00531646514            0.000877653472           
       3.378368             0.00719836312              0.0011035279           
       3.381008              0.0062387382             0.00101838363           
       3.383649             0.00498417044            0.000985094862           
       3.386289             0.00517859906             0.00100453906           
       3.388930             0.00416610944             0.00098952332           
       3.391570             0.00556208044             0.00114382977           
       3.394210             0.00554519512             0.00122372686           
       3.396851             0.00527213439             0.00129253524           
       3.399491             0.00451831028             0.00121828418           
       3.402131             0.00671382588             0.00175789698           
       3.404772             0.00538415431             0.00157490086           
       3.407412              0.0103856501             0.00271418233           
       3.410053              0.0028955884             0.00149230426           
       3.412693             0.00871228049             0.00366228314           
       3.415333             0.00632672175             0.00382382125           
