################################################################################
# EDF_DataBlockID                     0.Image.Psd
# EDF_BinarySize                      2105344
# EDF_HeaderSize                      2560
# ByteOrder                           LowByteFirst
# DataType                            FloatValue
# Dim_1                               512
# Dim_2                               1028
# Image                               0
# HeaderID                            EH:000000:000000:000000
# Size                                2105344
# Center_1                            304.9000
# Center_2                            588.7000
# Comment                             Xenocs_Cell_Window - front_window_open_only
# DDummy                              0.6
# Date                                2025-10-19T07:06:20
# Delta                               21.910000
# Dummy                               -1.5
# ExposureTime                        360
# Gamma                               15.360000
# Intensity1                          9.02356e-10
# PSize_1                             7.5e-05
# PSize_2                             7.5e-05
# Pressure                            0.0331106
# SampleDistance                      0.115750
# SampleEnvKind                       large
# SampleEnvPN                         ElectroChemical cell
# SampleEnvSN                         1141
# Thickness                           0
# Wavelength                          1.541891e-10
# Wavelength                          1.54189e-10
# aux                                 0
# aux_dial                            0.002375
# beamx                               588.429
# beamx_dial                          588.429
# beamz                               657.855
# beamz_dial                          657.855
# det0x                               -0.000396875
# det0x_dial                          6.36905
# det0xvd                             -0.0005
# det0xvd_dial                        -0.0005
# det0y                               450.002
# det0y_dial                          481.635
# det0z                               0
# det0z_dial                          1.2295
# det0zvd                             0
# det0zvd_dial                        0
# mag                                 1.818
# mag_dial                            1.818
# om                                  0.2499
# om_dial                             -0.610199
# phi                                 -0.0120535
# phi_dial                            0
# ry                                  0.599993
# ry_dial                             0.599993
# s1bot                               0.8
# s1bot_dial                          -1.66094
# s1hl                                0.8
# s1hl_dial                           -0.608437
# s1hr                                0.8
# s1hr_dial                           0.970938
# s1top                               0.8
# s1top_dial                          -0.461562
# s2bot                               0.45
# s2bot_dial                          1.36109
# s2hl                                0.45
# s2hl_dial                           -0.83375
# s2hr                                0.45
# s2hr_dial                           -0.118594
# s2top                               0.45
# s2top_dial                          1.44734
# w2theta                             32
# w2theta_dial                        32
# waxsch                              19.2605
# waxsch_dial                         -32.7238
# waxsh                               137.085
# waxsh_dial                          -43.5335
# waxsth                              26.0607
# waxsth_dial                         -19.4068
# waxsz                               67.0407
# waxsz_dial                          -23.7962
# wind                                65.9854
# wind_dial                           66.0041
# wpsi                                124
# wpsi_dial                           124
# wstod                               115
# wstod_dial                          115
# x                                   0
# x_dial                              1.00969
# z                                   0
# z_dial                              13.3172
# CountCutoff                         6807993
# DetectorModel                       Dectris EIGER2 Si 500K, S/N E-01-0554
# ThresholdSetting                    4023.88989258
# Saturation                          0
# FlatField                           Corrected
# BackgroundReductionExtra            0.02
# BackgroundCorrectionConstant        0.0026712
# Detector                            0
# Monitor                             0
# Pil_Roi0                            0
# SumForIntensity1                    3.24848e+08
# TransmittedFlux                     902356
# det                                 0
# mon                                 0
# pilai0                              3.24848e+08
# pilai1                              695439
# pilct0                              5.61795e+08
# pilct1                              695439
# pilroi0                             0
# pilroi1                             0
# sec                                 1
# title                               20251017__1_00336.edf
# usaxs0                              0
# Operation                           Azimuthal average I(q)
# Error_model                         ErrorModel.poisson
# Geometrical_correction              True
# Transmission_correction             True
# Thickness_correction                False
# Binning mode                        Uniform
# Binning factor                      1.0
# Psi                                 0.0
# Omega                               0.2499
# MaskInvalidPixels                   True
# DetectorEdge                        3
# MaskFiles                           ['20251017__1_00233_mask.edf']
################################################################################
    q(A⁻¹)                Intensity(a.u.)            Sigma_I(a.u.)            
       0.690460             0.00764287947             0.00802498903           
       0.693100              0.0093204667             0.00396207341           
       0.695741             0.00696375422             0.00289328707           
       0.698381              0.0111842566             0.00342941101           
       0.701021              0.0123459211             0.00294064494           
       0.703662             0.00933385704             0.00236675745           
       0.706302             0.00817878675             0.00213965363           
       0.708942             0.00683637357             0.00173762418           
       0.711583             0.00559753158             0.00157203311           
       0.714223             0.00527656071             0.00133003511           
       0.716864              0.0065002585             0.00150641509           
       0.719504             0.00680351015             0.00142633891           
       0.722144             0.00742190517             0.00143879726           
       0.724785              0.0053367924             0.00120006553           
       0.727425              0.0068466098             0.00126078334           
       0.730065             0.00531850595             0.00114337597           
       0.732706             0.00647113924             0.00113412899           
       0.735346             0.00868425259             0.00141915765           
       0.737987             0.00618561778             0.00103667805           
       0.740627             0.00597641628             0.00111629912           
       0.743267             0.00842558269             0.00114010713           
       0.745908             0.00878742408              0.0012478421           
       0.748548             0.00751688935               0.001076411           
       0.751189             0.00617039863            0.000966061295           
       0.753829             0.00763448664             0.00108427163           
       0.756469             0.00566760246            0.000878674246           
       0.759110             0.00662797651            0.000982838773           
       0.761750             0.00668814138             0.00090357187           
       0.764390             0.00724323079             0.00100938282           
       0.767031             0.00560350699            0.000803364357           
       0.769671             0.00668855704            0.000930835581           
       0.772312             0.00662663535            0.000844305304           
       0.774952             0.00524720665            0.000805440342           
       0.777592             0.00740811613            0.000875343003           
       0.780233             0.00673338018            0.000879767252           
       0.782873             0.00735725508            0.000840945604           
       0.785513             0.00701260744            0.000873361736           
       0.788154             0.00729045454            0.000817931116           
       0.790794             0.00555561849             0.00073898212           
       0.793435             0.00611493198            0.000744657334           
       0.796075             0.00617516499            0.000752269452           
       0.798715             0.00684062675            0.000787246401           
       0.801356             0.00730999242            0.000792027695           
       0.803996             0.00712576376            0.000794480053           
       0.806637             0.00668800096             0.00072755959           
       0.809277             0.00674284689            0.000764260554           
       0.811917             0.00595311617            0.000679542329           
       0.814558             0.00605607485            0.000702141602           
       0.817198             0.00692976017            0.000716158696           
       0.819838              0.0073554749            0.000769634291           
       0.822479             0.00667558131            0.000675685174           
       0.825119             0.00611157374            0.000694519605           
       0.827760             0.00748084791               0.000711995           
       0.830400             0.00777763838            0.000764913179           
       0.833040              0.0057917839            0.000616039678           
       0.835681             0.00879142506            0.000794817209           
       0.838321             0.00687992864            0.000658107467           
       0.840961             0.00765889961            0.000725780947           
       0.843602             0.00619065142            0.000614643317           
       0.846242             0.00597374213            0.000625096633           
       0.848883             0.00663752499            0.000640972776           
       0.851523             0.00748531564            0.000685778951           
       0.854163             0.00572117501            0.000592579585           
       0.856804              0.0068859667            0.000633475141           
       0.859444             0.00671002071            0.000629825705           
       0.862085             0.00535685932            0.000554561554           
       0.864725              0.0065630856            0.000611577205           
       0.867365             0.00625798366            0.000592915891           
       0.870006             0.00771194258             0.00066738314           
       0.872646             0.00656424797            0.000588926865           
       0.875286             0.00779545909            0.000663652896           
       0.877927             0.00653127839            0.000581620036           
       0.880567             0.00760969172            0.000640068195           
       0.883208             0.00575775002            0.000540682101           
       0.885848             0.00750858292            0.000633451964           
       0.888488             0.00692676374            0.000578493356           
       0.891129             0.00684038811            0.000604296596           
       0.893769             0.00641756889             0.00055327498           
       0.896410             0.00701214606            0.000596152097           
       0.899050             0.00646802149            0.000552055317           
       0.901690                0.00624318            0.000553696528           
       0.904331             0.00704584822             0.00056767796           
       0.906971             0.00591814217            0.000537227702           
       0.909611             0.00701547847            0.000561422124           
       0.912252             0.00669446542              0.0005579302           
       0.914892             0.00724056768            0.000565543948           
       0.917533             0.00752821616            0.000589680276           
       0.920173             0.00737001774            0.000559675161           
       0.922813             0.00705133277            0.000572085685           
       0.925454             0.00640767789            0.000517570197           
       0.928094             0.00623754633            0.000521613955           
       0.930734             0.00765039984            0.000563889432           
       0.933375             0.00767541855            0.000576850982           
       0.936015             0.00694894443            0.000525171034           
       0.938656              0.0079348006             0.00058472868           
       0.941296             0.00674188661            0.000519580459           
       0.943936             0.00785659946            0.000570993717           
       0.946577             0.00712797078             0.00052378269           
       0.949217             0.00661645394            0.000522460967           
       0.951858             0.00627708766            0.000481091687           
       0.954498             0.00719334733            0.000541811163           
       0.957138             0.00770053756             0.00053880719           
       0.959779             0.00704634382            0.000526685833           
       0.962419             0.00649192511             0.00048668221           
       0.965059             0.00706849315             0.00052225918           
       0.967700             0.00681782534            0.000496328636           
       0.970340             0.00744974854            0.000533399284           
       0.972981             0.00704619358            0.000500868958           
       0.975621             0.00726792152            0.000519339568           
       0.978261             0.00841925944            0.000533321014           
       0.980902             0.00671716316            0.000499052775           
       0.983542             0.00713904351            0.000499505594           
       0.986182             0.00751096167            0.000519098913           
       0.988823             0.00681617805            0.000478551845           
       0.991463             0.00792899269            0.000528468022           
       0.994104             0.00664882606            0.000467617615           
       0.996744             0.00785403985            0.000524716884           
       0.999384             0.00659254218            0.000464417825           
       1.002025             0.00840058327            0.000538845026           
       1.004665             0.00712168522            0.000475813049           
       1.007306             0.00729908548            0.000497843739           
       1.009946             0.00634453158            0.000446295114           
       1.012586             0.00771564262            0.000506319657           
       1.015227             0.00707489598            0.000470164507           
       1.017867               0.008136208            0.000518646293           
       1.020507             0.00717325018            0.000468655022           
       1.023148             0.00791202586            0.000498142184           
       1.025788             0.00749864921            0.000479988685           
       1.028429             0.00783767018            0.000501446601           
       1.031069             0.00738832267            0.000469065533           
       1.033709             0.00708786042            0.000468251127           
       1.036350             0.00760336807            0.000472263342           
       1.038990             0.00762107487            0.000484485642           
       1.041630             0.00773602196             0.00047873485           
       1.044271             0.00835921052            0.000497699942           
       1.046911             0.00868808549            0.000497968632           
       1.049552             0.00717825125            0.000468948123           
       1.052192             0.00804896971            0.000474245585           
       1.054832             0.00740914183            0.000463854512           
       1.057473             0.00798297921            0.000475386895           
       1.060113             0.00786579618            0.000476994766           
       1.062754              0.0080671149            0.000477717664           
       1.065394             0.00827512206            0.000478746731           
       1.068034             0.00795130993            0.000467469541           
       1.070675             0.00685843202            0.000441792896           
       1.073315             0.00708450176            0.000435290198           
       1.075955             0.00755239648            0.000456972362           
       1.078596             0.00841815947            0.000481500603           
       1.081236             0.00855183316            0.000478110329           
       1.083877             0.00878121867            0.000499614634           
       1.086517              0.0078997221            0.000463155161           
       1.089157             0.00848853296            0.000483625769           
       1.091798             0.00810253155            0.000462490783           
       1.094438             0.00856297766            0.000483006653           
       1.097078             0.00815035428            0.000459116353           
       1.099719             0.00781492933            0.000461091723           
       1.102359               0.008608329            0.000458438021           
       1.105000             0.00791534086            0.000456911304           
       1.107640             0.00943342656            0.000482546319           
       1.110280             0.00843779289            0.000465509856           
       1.112921             0.00784113003            0.000440629481           
       1.115561             0.00801209002            0.000451059604           
       1.118202              0.0083255911            0.000446379498           
       1.120842             0.00802122121            0.000451948993           
       1.123482              0.0086128045            0.000455181542           
       1.126123              0.0081320146            0.000445054678           
       1.128763              0.0082682606            0.000446541613           
       1.131403             0.00848719175            0.000451711571           
       1.134044             0.00828400198            0.000445497072           
       1.136684             0.00891166371            0.000465538651           
       1.139325              0.0086076936            0.000444639055           
       1.141965             0.00829328322            0.000442150916           
       1.144605             0.00855574231            0.000451730743           
       1.147246             0.00879944226            0.000449442836           
       1.149886             0.00884824641            0.000453892717           
       1.152527             0.00861051979            0.000448202474           
       1.155167             0.00873150256            0.000444994391           
       1.157807             0.00823001438            0.000432324085           
       1.160448             0.00812311221            0.000435383762           
       1.163088              0.0093876774            0.000450683238           
       1.165728             0.00869712637            0.000451670712           
       1.168369             0.00906603225            0.000444687653           
       1.171009             0.00828625498            0.000428658479           
       1.173650             0.00899257206            0.000443334099           
       1.176290             0.00861291687            0.000438965627           
       1.178930             0.00806588665            0.000412855474           
       1.181571             0.00951636183            0.000463090073           
       1.184211             0.00836077727            0.000420954153           
       1.186851             0.00938320224            0.000450062774           
       1.189492             0.00903868446            0.000444176046           
       1.192132             0.00905273744            0.000437937744           
       1.194773             0.00885309514            0.000430469037           
       1.197413             0.00900303799            0.000437640228           
       1.200053             0.00945048301            0.000445562463           
       1.202694              0.0104294706            0.000464544807           
       1.205334              0.0106015829             0.00047348211           
       1.207975             0.00916436607            0.000431594149           
       1.210615             0.00977308607            0.000455122286           
       1.213255             0.00963177786            0.000439866995           
       1.215896             0.00978234731            0.000451694417           
       1.218536             0.00986926727            0.000440629166           
       1.221176             0.00901048367            0.000431071337           
       1.223817             0.00934029744             0.00042974436           
       1.226457             0.00959888506            0.000441186027           
       1.229098              0.0093702995            0.000429288236           
       1.231738             0.00975987676            0.000444290776           
       1.234378             0.00970381217            0.000434404952           
       1.237019             0.00978237251            0.000439677869           
       1.239659             0.00992219498            0.000442569362           
       1.242299             0.00973598856             0.00043615569           
       1.244940              0.0103816221            0.000445523626           
       1.247580             0.00957568789            0.000429770406           
       1.250221             0.00941465391            0.000433097447           
       1.252861             0.00908549868            0.000409608003           
       1.255501              0.0087592987            0.000413543059           
       1.258142              0.0102848546            0.000439251413           
       1.260782             0.00939985556            0.000424671219           
       1.263423             0.00962457128            0.000421203923           
       1.266063             0.00954380031            0.000427250453           
       1.268703              0.0102683853            0.000432006898           
       1.271344              0.0104894432            0.000446142117           
       1.273984             0.00954415182            0.000418921391           
       1.276624              0.0104338734            0.000435340132           
       1.279265              0.0105424118            0.000438554006           
       1.281905              0.0100252002            0.000430296994           
       1.284546             0.00977665331            0.000420287402           
       1.287186             0.00968151643            0.000418639286           
       1.289826             0.00994479827             0.00042649365           
       1.292467             0.00991832765            0.000418323699           
       1.295107             0.00968422924             0.00042064347           
       1.297747              0.0100640347             0.00041756519           
       1.300388             0.00997212001            0.000426327681           
       1.303028              0.0101324229            0.000418812696           
       1.305669              0.0104099943            0.000429995159           
       1.308309              0.0110922188            0.000437187642           
       1.310949              0.0100708273            0.000421765266           
       1.313590             0.00973508958            0.000408257911           
       1.316230               0.010887972            0.000439527374           
       1.318871              0.0102721897            0.000417707362           
       1.321511              0.0107667958            0.000429788514           
       1.324151              0.0102994175            0.000422017644           
       1.326792               0.010237354            0.000417335937           
       1.329432              0.0104225399            0.000423290212           
       1.332072              0.0107961828             0.00042342342           
       1.334713              0.0109305451            0.000431333922           
       1.337353              0.0108753316            0.000423624999           
       1.339994              0.0105538135            0.000423260062           
       1.342634               0.010606727             0.00041476731           
       1.345274              0.0109723022            0.000427369542           
       1.347915              0.0113456212            0.000435734446           
       1.350555              0.0105470184            0.000418477957           
       1.353195              0.0114086802            0.000426910377           
       1.355836              0.0109756056             0.00042662974           
       1.358476              0.0105630938            0.000417358522           
       1.361117               0.010299605            0.000401781876           
       1.363757              0.0105125838            0.000419367017           
       1.366397              0.0100588332             0.00039744221           
       1.369038              0.0106413885            0.000417405247           
       1.371678              0.0103709164            0.000403746005           
       1.374319              0.0111776847            0.000422480285           
       1.376959              0.0104511303             0.00040289485           
       1.379599              0.0106451321            0.000414542843           
       1.382240              0.0102097373            0.000398265814           
       1.384880               0.010238038            0.000403714079           
       1.387520              0.0106481668            0.000406907164           
       1.390161              0.0106174498            0.000405215474           
       1.392801              0.0100205679            0.000396007009           
       1.395442              0.0102469363             0.00039630573           
       1.398082              0.0108571192            0.000409330684           
       1.400722              0.0103670611             0.00039817906           
       1.403363              0.0103295284            0.000401145953           
       1.406003              0.0105796645            0.000396005148           
       1.408644              0.0105173448            0.000403126188           
       1.411284              0.0103043893             0.00039683574           
       1.413924              0.0111712871            0.000408095222           
       1.416565              0.0103476839            0.000392302113           
       1.419205              0.0109000808            0.000406603407           
       1.421845              0.0107938466            0.000399530395           
       1.424486              0.0111737652            0.000408295459           
       1.427126              0.0105591479            0.000396656994           
       1.429767              0.0102464893            0.000384719065           
       1.432407              0.0104646105            0.000398586568           
       1.435047              0.0100747732              0.0003793393           
       1.437688               0.010038621            0.000387043417           
       1.440328              0.0106469375            0.000390873581           
       1.442968              0.0105946021             0.00039530925           
       1.445609              0.0104552336            0.000386241392           
       1.448249              0.0115509659            0.000408601677           
       1.450890              0.0107390954            0.000391170134           
       1.453530             0.00967116634            0.000373960974           
       1.456170              0.0101568239            0.000382372775           
       1.458811              0.0105472013            0.000386551751           
       1.461451              0.0104270536            0.000387169025           
       1.464092              0.0108050221             0.00039068833           
       1.466732              0.0106347596            0.000385220576           
       1.469372              0.0101074577            0.000374394595           
       1.472013              0.0108036834            0.000393999586           
       1.474653              0.0115911459            0.000398029191           
       1.477293              0.0102814666            0.000381178683           
       1.479934               0.011129368            0.000392434195           
       1.482574              0.0117661647            0.000402509287           
       1.485215               0.010978083            0.000389797064           
       1.487855              0.0103525611             0.00037845085           
       1.490495              0.0105160126            0.000380605772           
       1.493136               0.010632652            0.000377691798           
       1.495776              0.0105234419            0.000382298127           
       1.498416             0.00994398756            0.000364404231           
       1.501057              0.0101078653            0.000370554744           
       1.503697             0.00947514344            0.000355320065           
       1.506338              0.0111748934            0.000388714448           
       1.508978             0.00995504035            0.000364719244           
       1.511618              0.0100656828            0.000366555086           
       1.514259             0.00968429096             0.00036019294           
       1.516899              0.0101189332            0.000368358624           
       1.519540              0.0102467054            0.000368619935           
       1.522180             0.00982259074            0.000356403498           
       1.524820              0.0107772455            0.000380861521           
       1.527461              0.0105748273            0.000368922019           
       1.530101             0.00986773786            0.000360059262           
       1.532741               0.010784215            0.000374625157           
       1.535382              0.0107241093            0.000374402422           
       1.538022              0.0102411592             0.00036263778           
       1.540663              0.0103176862            0.000367430233           
       1.543303              0.0100619961            0.000358333497           
       1.545943              0.0101888925            0.000362606819           
       1.548584               0.010539226            0.000370751858           
       1.551224              0.0102682257            0.000356572147           
       1.553864              0.0105173604            0.000370299124           
       1.556505              0.0100090583            0.000355683113           
       1.559145             0.00997118778            0.000355830301           
       1.561786              0.0101563133            0.000357491391           
       1.564426             0.00996835976            0.000353848161           
       1.567066             0.00934715491            0.000339970935           
       1.569707              0.0101535993            0.000359463239           
       1.572347              0.0100661901            0.000353269006           
       1.574988              0.0099862223            0.000350471006           
       1.577628             0.00917997326            0.000343591007           
       1.580268             0.00958448852            0.000338963879           
       1.582909             0.00958934261            0.000345391312           
       1.585549             0.00910190946            0.000333353903           
       1.588189             0.00948844584            0.000344160146           
       1.590830             0.00942070704            0.000337042857           
       1.593470             0.00925275959            0.000336752778           
       1.596111             0.00969519756            0.000341731447           
       1.598751             0.00892156064            0.000331164805           
       1.601391             0.00930541182            0.000336051593           
       1.604032             0.00915042129            0.000330458364           
       1.606672             0.00900378018            0.000334397321           
       1.609312             0.00955542242            0.000334238619           
       1.611953             0.00906134853            0.000330199857           
       1.614593             0.00934704072            0.000332814149           
       1.617234             0.00941067859            0.000335838113           
       1.619874              0.0091475279            0.000327214055           
       1.622514             0.00846489505            0.000317552069           
       1.625155             0.00889169722            0.000324654279           
       1.627795             0.00917340204            0.000326424748           
       1.630436             0.00869763165            0.000321042001           
       1.633076             0.00915417008            0.000327686623           
       1.635716             0.00870269497            0.000318946682           
       1.638357             0.00931721411            0.000328613292           
       1.640997             0.00820259067            0.000310742562           
       1.643637             0.00875862027             0.00031513949           
       1.646278             0.00856168187            0.000316240168           
       1.648918             0.00887840718             0.00031788473           
       1.651559             0.00884666971            0.000321305735           
       1.654199             0.00906035984            0.000320706022           
       1.656839              0.0092368476            0.000323727305           
       1.659480             0.00895776283             0.00032160694           
       1.662120             0.00930939465            0.000323465007           
       1.664761              0.0088508632            0.000318813205           
       1.667401              0.0081790311            0.000303619471           
       1.670041             0.00916214687            0.000321717012           
       1.672682             0.00854649021             0.00030779624           
       1.675322             0.00787837727            0.000300745708           
       1.677962             0.00933395341            0.000320849948           
       1.680603             0.00834410616            0.000306052836           
       1.683243             0.00901384637            0.000315745262           
       1.685884             0.00846456918            0.000307138108           
       1.688524             0.00827479471            0.000302821205           
       1.691164             0.00872180562            0.000310093864           
       1.693805             0.00828004623             0.00030458198           
       1.696445             0.00894100744            0.000312112457           
       1.699085             0.00862390212            0.000307751518           
       1.701726             0.00872374501            0.000305501688           
       1.704366             0.00868171854            0.000312180542           
       1.707007              0.0087027673            0.000305888943           
       1.709647              0.0083778571            0.000303853646           
       1.712287             0.00884125386            0.000306927409           
       1.714928              0.0084487493            0.000303054068           
       1.717568             0.00827839671            0.000297224732           
       1.720209             0.00882484009            0.000308772647           
       1.722849             0.00848434667             0.00030324272           
       1.725489             0.00864411387            0.000301205923           
       1.728130             0.00864557762            0.000307363557           
       1.730770              0.0078741026             0.00028712934           
       1.733410             0.00874894552            0.000306633124           
       1.736051             0.00842889066             0.00029630056           
       1.738691             0.00820852361            0.000295386217           
       1.741332              0.0081144526             0.00029188086           
       1.743972             0.00824071526             0.00029425206           
       1.746612             0.00798685139            0.000289750878           
       1.749253             0.00775005024            0.000286656651           
       1.751893             0.00798443149            0.000289213373           
       1.754533             0.00808906049            0.000287106827           
       1.757174             0.00828953097            0.000296076769           
       1.759814             0.00860790947            0.000297109236           
       1.762455             0.00858240448            0.000299194419           
       1.765095             0.00844102377            0.000292552909           
       1.767735             0.00876239846            0.000303134972           
       1.770376             0.00876973124            0.000298662749           
       1.773016             0.00843732033            0.000293410097           
       1.775657             0.00839519233            0.000293276301           
       1.778297              0.0085597559            0.000297585477           
       1.780937             0.00826125398            0.000290986388           
       1.783578             0.00849296499            0.000293653532           
       1.786218             0.00884467875            0.000304454321           
       1.788858             0.00772779289            0.000277512396           
       1.791499             0.00813263008             0.00028993551           
       1.794139              0.0084715459            0.000290450815           
       1.796780              0.0086479147             0.00029520237           
       1.799420             0.00884199544            0.000298116495           
       1.802060             0.00819351858            0.000283446702           
       1.804701             0.00853952538            0.000293251835           
       1.807341             0.00908347854            0.000299525043           
       1.809981             0.00898190207            0.000299823677           
       1.812622             0.00909624523            0.000300082195           
       1.815262             0.00853520851            0.000291717155           
       1.817903             0.00823295261            0.000282965695           
       1.820543             0.00833608158            0.000288251755           
       1.823183             0.00887616688            0.000292859957           
       1.825824             0.00853652746            0.000291521321           
       1.828464             0.00826318652            0.000285936067           
       1.831105             0.00802876094            0.000282942075           
       1.833745              0.0079999001            0.000282256785           
       1.836385             0.00872969059            0.000293703504           
       1.839026             0.00814510179            0.000287963776           
       1.841666             0.00803225088            0.000282248808           
       1.844306             0.00858523883            0.000295486859           
       1.846947             0.00820693373            0.000285190628           
       1.849587             0.00829627717            0.000290627762           
       1.852228              0.0082816826            0.000287283669           
       1.854868             0.00825499267            0.000292080859           
       1.857508             0.00818373876            0.000285447664           
       1.860149             0.00812387855            0.000286681404           
       1.862789             0.00864589175            0.000297057273           
       1.865429             0.00786076549            0.000284102521           
       1.868070             0.00792830163            0.000284334445           
       1.870710             0.00816083334             0.00028925959           
       1.873351             0.00828069236            0.000293236211           
       1.875991             0.00796452262            0.000289139254           
       1.878631             0.00796998595            0.000286550055           
       1.881272             0.00865479854            0.000297907671           
       1.883912             0.00848687347            0.000298463176           
       1.886553             0.00831025364            0.000291798438           
       1.889193             0.00811675167            0.000291712477           
       1.891833             0.00791664423            0.000284815672           
       1.894474             0.00839437915            0.000295604674           
       1.897114             0.00867245782            0.000298130412           
       1.899754             0.00821416299            0.000293400116           
       1.902395             0.00797541972            0.000289166496           
       1.905035             0.00769429132            0.000282911241           
       1.907676             0.00825008416            0.000293291637           
       1.910316             0.00837580774            0.000297402202           
       1.912956             0.00798328899             0.00029033841           
       1.915597             0.00835491816            0.000293922757           
       1.918237             0.00775219862            0.000287420357           
       1.920878             0.00773153733            0.000281957221           
       1.923518             0.00798119673            0.000294084597           
       1.926158             0.00788166948            0.000285529689           
       1.928799             0.00759699291             0.00028405087           
       1.931439              0.0075698978            0.000281271573           
       1.934079             0.00814867118            0.000294781452           
       1.936720             0.00914564483             0.00031045612           
       1.939360             0.00800377241            0.000293228402           
       1.942001             0.00833804845            0.000298137722           
       1.944641             0.00815095952            0.000293503726           
       1.947281             0.00876575555            0.000305841984           
       1.949922             0.00821876635            0.000296516573           
       1.952562             0.00741653027            0.000284097351           
       1.955202             0.00832768543            0.000293479655           
       1.957843             0.00786353378            0.000294243065           
       1.960483             0.00727710691            0.000278543846           
       1.963124             0.00796527698            0.000291200729           
       1.965764             0.00778179628             0.00028793018           
       1.968404              0.0077561658            0.000292595942           
       1.971045             0.00746590485            0.000279872789           
       1.973685             0.00760589897            0.000287756093           
       1.976326             0.00786480738            0.000291337033           
       1.978966             0.00785036066             0.00029244667           
       1.981606             0.00728908991            0.000278818228           
       1.984247             0.00711818359            0.000277932669           
       1.986887             0.00754914487            0.000288899437           
       1.989527             0.00773156231            0.000286278039           
       1.992168             0.00787894891             0.00029596637           
       1.994808             0.00727716348            0.000281130634           
       1.997449             0.00790984388             0.00029266697           
       2.000089             0.00766876921            0.000286475677           
       2.002729             0.00727572705            0.000285431844           
       2.005370             0.00722598868             0.00027904721           
       2.008010             0.00739768373            0.000286091509           
       2.010650             0.00750672354             0.00028736782           
       2.013291             0.00805026016            0.000299283544           
       2.015931             0.00726975873            0.000282369903           
       2.018572             0.00751520151            0.000290910013           
       2.021212              0.0073663301            0.000285429384           
       2.023852             0.00758901737            0.000291233504           
       2.026493             0.00745570003            0.000287399076           
       2.029133             0.00692368478            0.000274842634           
       2.031774             0.00769470458            0.000292551808           
       2.034414             0.00756928205            0.000288426127           
       2.037054             0.00726351538            0.000286103103           
       2.039695             0.00750079936            0.000285011949           
       2.042335             0.00741686712            0.000288236937           
       2.044975             0.00725090127            0.000282716072           
       2.047616             0.00747180052            0.000288220016           
       2.050256             0.00778536117            0.000290744841           
       2.052897             0.00774211402            0.000298523239           
       2.055537             0.00746735994            0.000285185175           
       2.058177             0.00759117583            0.000290079691           
       2.060818             0.00717216213             0.00028280671           
       2.063458             0.00703046583            0.000280384801           
       2.066098             0.00735409476            0.000285492984           
       2.068739             0.00797696026            0.000300437644           
       2.071379             0.00772882762            0.000291360783           
       2.074020             0.00752725635            0.000291473751           
       2.076660              0.0073650168            0.000286361144           
       2.079300             0.00782811188            0.000295183995           
       2.081941             0.00737945282            0.000288342501           
       2.084581             0.00714316617            0.000283898787           
       2.087222             0.00686662735            0.000278538772           
       2.089862              0.0076506715            0.000290346521           
       2.092502             0.00763544628            0.000295327805           
       2.095143             0.00718826756            0.000282453904           
       2.097783             0.00691985843            0.000281347375           
       2.100423             0.00755551497            0.000288348703           
       2.103064             0.00721965998            0.000286733715           
       2.105704             0.00729555539            0.000287134208           
       2.108345             0.00720802236             0.00028671677           
       2.110985             0.00774149853            0.000292963986           
       2.113625             0.00775473073            0.000297834054           
       2.116266             0.00716790183            0.000284223929           
       2.118906             0.00786087756            0.000297429636           
       2.121546             0.00706571166             0.00028176154           
       2.124187             0.00750755442            0.000294454941           
       2.126827             0.00748704648            0.000289440918           
       2.129468             0.00771427333            0.000296866261           
       2.132108              0.0075001844            0.000292112207           
       2.134748             0.00738337107            0.000288736228           
       2.137389             0.00776903809            0.000298661953           
       2.140029              0.0075587856            0.000293877505           
       2.142670             0.00723509945             0.00028798617           
       2.145310             0.00731353349            0.000290649152           
       2.147950             0.00688987556            0.000283195793           
       2.150591             0.00739901653            0.000290781559           
       2.153231             0.00758215228            0.000298710057           
       2.155871             0.00724029905            0.000287682824           
       2.158512             0.00727460615            0.000293559687           
       2.161152             0.00766137255             0.00029373694           
       2.163793             0.00729729883            0.000291337264           
       2.166433             0.00757243939            0.000291632372           
       2.169073             0.00715975047            0.000290195035           
       2.171714             0.00734721165            0.000287984719           
       2.174354             0.00721907375            0.000289824545           
       2.176995             0.00695808038            0.000282176978           
       2.179635             0.00711022404            0.000290643621           
       2.182275             0.00768562123            0.000296176649           
       2.184916             0.00738220298            0.000296406294           
       2.187556              0.0072777678            0.000289564211           
       2.190196             0.00692052816            0.000286806184           
       2.192837             0.00669495413             0.00027900417           
       2.195477             0.00666578244            0.000281081115           
       2.198118             0.00743508398            0.000291377663           
       2.200758             0.00751168888            0.000297423011           
       2.203398              0.0070958502            0.000284279471           
       2.206039             0.00691225025            0.000284866195           
       2.208679             0.00761930872            0.000296153413           
       2.211319             0.00719340503            0.000289111674           
       2.213960             0.00680561301            0.000278220849           
       2.216600             0.00728615845            0.000294658739           
       2.219241             0.00757095814            0.000295995537           
       2.221881             0.00751121883            0.000296362209           
       2.224521             0.00733807182            0.000291910444           
       2.227162             0.00688053672            0.000287103317           
       2.229802             0.00699738838            0.000284831202           
       2.232443             0.00735853901            0.000293237426           
       2.235083             0.00680018769            0.000280202527           
       2.237723             0.00685830955            0.000283553918           
       2.240364             0.00715409236            0.000288130842           
       2.243004             0.00734968282            0.000292925271           
       2.245644              0.0072703977            0.000290668237           
       2.248285             0.00729690307            0.000293087925           
       2.250925             0.00723505817            0.000290478534           
       2.253566              0.0068961518            0.000284287051           
       2.256206             0.00709904371            0.000287574738           
       2.258846              0.0070377666            0.000286333466           
       2.261487             0.00715630265            0.000289234206           
       2.264127             0.00665186261            0.000281492486           
       2.266767             0.00764586552            0.000296914676           
       2.269408             0.00727783657            0.000293121133           
       2.272048             0.00724554329            0.000290671002           
       2.274689             0.00715817376            0.000290049262           
       2.277329             0.00728914987            0.000292301884           
       2.279969             0.00723024706            0.000292000824           
       2.282610             0.00700454096            0.000284604199           
       2.285250             0.00721724336            0.000293436658           
       2.287891             0.00769934883            0.000300020495           
       2.290531             0.00726304705             0.00029283281           
       2.293171             0.00704026542            0.000288292545           
       2.295812             0.00685442688            0.000282952335           
       2.298452             0.00686798125            0.000285045982           
       2.301092             0.00768240162            0.000303388336           
       2.303733             0.00692969885            0.000282443347           
       2.306373             0.00672747306            0.000285098406           
       2.309014             0.00730777109            0.000291414166           
       2.311654             0.00699580943            0.000287832216           
       2.314294             0.00670115624            0.000281090474           
       2.316935             0.00727561347            0.000294048616           
       2.319575             0.00742280483            0.000295895958           
       2.322215             0.00684778714            0.000288253813           
       2.324856             0.00742713592             0.00029266122           
       2.327496             0.00755160254            0.000302335626           
       2.330137             0.00729012019            0.000291576727           
       2.332777             0.00705365188            0.000289945715           
       2.335417             0.00721484702            0.000292359701           
       2.338058             0.00667759324             0.00028238956           
       2.340698             0.00716268524            0.000289587229           
       2.343339             0.00714824757            0.000294815773           
       2.345979             0.00690703386            0.000284016034           
       2.348619             0.00709139513            0.000293216201           
       2.351260             0.00674395788              0.0002798647           
       2.353900             0.00764173939            0.000304221698           
       2.356540             0.00764506307            0.000300102904           
       2.359181             0.00769509272            0.000305109376           
       2.361821             0.00715979219            0.000290719899           
       2.364462             0.00719407586            0.000296285479           
       2.367102             0.00765122458            0.000296718345           
       2.369742             0.00667030757            0.000286974437           
       2.372383             0.00727605425            0.000290984581           
       2.375023             0.00710247661            0.000294983152           
       2.377663             0.00744863595            0.000295666556           
       2.380304             0.00658471933            0.000281848334           
       2.382944             0.00714434598            0.000290709565           
       2.385585              0.0075046522            0.000300766706           
       2.388225             0.00663853708            0.000281600861           
       2.390865             0.00696331794            0.000289145596           
       2.393506             0.00761975643            0.000301073796           
       2.396146             0.00694455328            0.000288377691           
       2.398787             0.00703460804            0.000290495337           
       2.401427             0.00801351674            0.000308166712           
       2.404067             0.00721212957            0.000296814069           
       2.406708             0.00679654408            0.000284513935           
       2.409348             0.00721503021            0.000295347568           
       2.411988             0.00664358137            0.000282505041           
       2.414629             0.00692896018             0.00028945281           
       2.417269             0.00730356576            0.000294475506           
       2.419910             0.00717216142            0.000295494417           
       2.422550             0.00654076286            0.000277904389           
       2.425190             0.00697043901            0.000295919883           
       2.427831             0.00716500096             0.00028873796           
       2.430471             0.00773627143            0.000308798116           
       2.433112             0.00737220593            0.000294331664           
       2.435752             0.00687769238            0.000291485818           
       2.438392             0.00698505392             0.00028881465           
       2.441033             0.00712312996            0.000292991707           
       2.443673             0.00729101497            0.000297215923           
       2.446313             0.00681986058            0.000285920794           
       2.448954             0.00707072352            0.000293686571           
       2.451594             0.00760596428            0.000302771931           
       2.454235             0.00668017856            0.000282864901           
       2.456875             0.00790248063            0.000309215347           
       2.459515             0.00777034527            0.000307092067           
       2.462156             0.00768066582            0.000303740949           
       2.464796             0.00753128383            0.000306078125           
       2.467436             0.00753237174              0.0002996818           
       2.470077             0.00772292927            0.000307633301           
       2.472717             0.00774190072             0.00030415691           
       2.475358             0.00719607395             0.00029656123           
       2.477998             0.00760675306            0.000303279468           
       2.480638             0.00682569188            0.000287985516           
       2.483279             0.00737619279             0.00030065966           
       2.485919             0.00719802579            0.000294926725           
       2.488560             0.00730964158            0.000298437345           
       2.491200             0.00647492112            0.000280495905           
       2.493840             0.00666239196            0.000282978453           
       2.496481             0.00735525819            0.000301217102           
       2.499121             0.00626885561             0.00027438068           
       2.501761              0.0076954083            0.000309163259           
       2.504402             0.00740079413            0.000297377139           
       2.507042             0.00692376885            0.000292415069           
       2.509683              0.0068913469            0.000289072874           
       2.512323             0.00707077074            0.000293958393           
       2.514963              0.0138847781            0.000412747853           
       2.517604              0.0296008793            0.000600294125           
       2.520244              0.0343936842            0.000647211286           
       2.522884              0.0092311833            0.000334567974           
       2.525525             0.00940413118            0.000340461315           
       2.528165              0.0177938604             0.00046618202           
       2.530806               0.022366158            0.000520694308           
       2.533446              0.0106059899            0.000361747183           
       2.536086              0.0100452974            0.000349100646           
       2.538727              0.0100294792            0.000351061952           
       2.541367              0.0106970792            0.000361521021           
       2.544008             0.00716587736            0.000296144302           
       2.546648             0.00727141025            0.000298655758           
       2.549288             0.00703939275            0.000293894649           
       2.551929             0.00685928488            0.000291068818           
       2.554569             0.00709225755            0.000293265912           
       2.557209              0.0071163559            0.000297082893           
       2.559850             0.00716666445            0.000294702892           
       2.562490             0.00753302475            0.000304341573           
       2.565131             0.00699911499            0.000293868552           
       2.567771             0.00672179225            0.000286461459           
       2.570411             0.00766383052            0.000309599039           
       2.573052             0.00660972725            0.000284164048           
       2.575692             0.00730250496            0.000299477248           
       2.578332             0.00750356587             0.00030267526           
       2.580973             0.00650249979            0.000284047074           
       2.583613             0.00687782817            0.000289467633           
       2.586254             0.00718178193            0.000298411618           
       2.588894              0.0071226519            0.000295595358           
       2.591534             0.00718918664            0.000297519015           
       2.594175             0.00670755428            0.000289048443           
       2.596815             0.00674553908            0.000287170691           
       2.599456             0.00700788955            0.000295096618           
       2.602096             0.00652209373            0.000283619337           
       2.604736              0.0073276158            0.000301412447           
       2.607377             0.00670267965            0.000287170675           
       2.610017             0.00689542309            0.000291168612           
       2.612657              0.0068335661            0.000291907224           
       2.615298             0.00682789154            0.000288931828           
       2.617938              0.0071789641            0.000298858566           
       2.620579             0.00732709563            0.000299459837           
       2.623219             0.00731921145            0.000304086217           
       2.625859             0.00661837282            0.000284287858           
       2.628500             0.00724876193            0.000302273913           
       2.631140             0.00683910689            0.000288430732           
       2.633780             0.00675234042            0.000290276307           
       2.636421             0.00678366811            0.000288301359           
       2.639061             0.00733770575            0.000303428479           
       2.641702             0.00793750896            0.000312212801           
       2.644342             0.00721091817            0.000300021169           
       2.646982             0.00687461902            0.000292692822           
       2.649623             0.00697038056            0.000296491168           
       2.652263              0.0068619694            0.000291835605           
       2.654904             0.00770028809            0.000310827265           
       2.657544               0.007256853            0.000299621831           
       2.660184             0.00722174078            0.000299278415           
       2.662825             0.00742494678            0.000304187136           
       2.665465             0.00688681648            0.000293498517           
       2.668105             0.00707155395            0.000297526745           
       2.670746              0.0067036399            0.000287232485           
       2.673386             0.00666888345            0.000289959003           
       2.676027             0.00696922814            0.000293896654           
       2.678667             0.00747958255            0.000306050364           
       2.681307             0.00791616718             0.00031237994           
       2.683948             0.00770182794            0.000311181942           
       2.686588              0.0072791446            0.000299746352           
       2.689229             0.00785053281            0.000314082424           
       2.691869              0.0074383746            0.000302674885           
       2.694509             0.00798552183            0.000317910146           
       2.697150             0.00709110443            0.000294796461           
       2.699790             0.00680756598            0.000294842515           
       2.702430             0.00736403506            0.000300776952           
       2.705071             0.00703939299            0.000298097034           
       2.707711             0.00672906062            0.000288562034           
       2.710352             0.00689123514            0.000293680717           
       2.712992              0.0069034456             0.00029489647           
       2.715632             0.00677316241            0.000290438993           
       2.718273             0.00744501502            0.000305514164           
       2.720913             0.00650488895            0.000286050678           
       2.723553             0.00736711882            0.000303361267           
       2.726194             0.00656328199            0.000287714213           
       2.728834             0.00712189601            0.000297043985           
       2.731475              0.0066877784            0.000290364159           
       2.734115             0.00653707007            0.000285363256           
       2.736755             0.00690092628             0.00029513561           
       2.739396              0.0072193569            0.000300271794           
       2.742036             0.00697054259              0.0002970659           
       2.744677             0.00669012377            0.000291454713           
       2.747317             0.00736878921            0.000304394668           
       2.749957             0.00746126311            0.000308520757           
       2.752598             0.00683589986            0.000296197863           
       2.755238             0.00724188175            0.000304729159           
       2.757878             0.00690287347            0.000296664077           
       2.760519             0.00683160018            0.000292012423           
       2.763159             0.00665525181            0.000292905223           
       2.765800             0.00671855428            0.000289309647           
       2.768440             0.00686216473            0.000296237051           
       2.771080             0.00657067882            0.000287434308           
       2.773721             0.00637337245            0.000286558701           
       2.776361             0.00663689849            0.000289282286           
       2.779001              0.0063714948            0.000286418602           
       2.781642             0.00634547468            0.000283882784           
       2.784282             0.00738559627            0.000306373544           
       2.786923             0.00726736767            0.000301600086           
       2.789563             0.00675393619             0.00029133517           
       2.792203             0.00693899997            0.000297179336           
       2.794844             0.00671625545            0.000291040307           
       2.797484             0.00666074928            0.000290243546           
       2.800125              0.0063279383            0.000282533894           
       2.802765              0.0069444402             0.00030146391           
       2.805405             0.00683832242            0.000294833453           
       2.808046             0.00689776049            0.000300652455           
       2.810686             0.00698290939            0.000299279143           
       2.813326             0.00638381855            0.000289693479           
       2.815967             0.00668114606             0.00029449528           
       2.818607             0.00709238289            0.000306456435           
       2.821248             0.00733671215            0.000307803938           
       2.823888              0.0071763323            0.000309324309           
       2.826528             0.00671237438            0.000297373329           
       2.829169             0.00689975507            0.000300164387           
       2.831809              0.0066254824            0.000294395673           
       2.834449             0.00625721763            0.000281103219           
       2.837090              0.0068510379            0.000295909644           
       2.839730             0.00639025116            0.000283755808           
       2.842371             0.00696246716            0.000298251616           
       2.845011             0.00694003015            0.000297106547           
       2.847651             0.00659858203            0.000290237612           
       2.850292             0.00646184299            0.000285582732           
       2.852932             0.00663465197            0.000289895123           
       2.855573             0.00686154611            0.000297399616           
       2.858213             0.00671263027            0.000290854193           
       2.860853             0.00662178587            0.000291041608           
       2.863494             0.00657587577            0.000290729289           
       2.866134             0.00679080794            0.000299586393           
       2.868774             0.00695087621            0.000298456979           
       2.871415             0.00684260746            0.000299054298           
       2.874055             0.00640123538             0.00029068129           
       2.876696             0.00627134601            0.000285126247           
       2.879336             0.00701076549            0.000303467981           
       2.881976             0.00721363449            0.000307574011           
       2.884617             0.00657175495            0.000291940233           
       2.887257              0.0065806674             0.00029010119           
       2.889897             0.00714325284            0.000305711769           
       2.892538             0.00638556191            0.000287039755           
       2.895178             0.00681403574            0.000293489887           
       2.897819             0.00621823157            0.000283248917           
       2.900459             0.00675843749             0.00029285135           
       2.903099             0.00649108896            0.000288499181           
       2.905740              0.0069537614            0.000295270913           
       2.908380             0.00697782662            0.000299724404           
       2.911021             0.00725668635            0.000306235832           
       2.913661             0.00673774955            0.000291835715           
       2.916301             0.00634597666            0.000287253249           
       2.918942             0.00627961036             0.00028143638           
       2.921582              0.0068510225             0.00029704643           
       2.924222             0.00694044328            0.000297244571           
       2.926863             0.00680255544            0.000295058694           
       2.929503             0.00648749573            0.000291343563           
       2.932144             0.00768663731             0.00031192714           
       2.934784             0.00711559121            0.000301392338           
       2.937424             0.00720179263            0.000303773265           
       2.940065             0.00671340268            0.000293530958           
       2.942705             0.00677235302            0.000295712702           
       2.945346             0.00760088161            0.000311429266           
       2.947986             0.00738289565            0.000308004374           
       2.950626             0.00853559806            0.000332195534           
       2.953267             0.00993877674            0.000354654044           
       2.955907             0.00976355544            0.000356161191           
       2.958547             0.00857510422            0.000330359003           
       2.961188             0.00778530783            0.000317525926           
       2.963828             0.00697046089             0.00029874722           
       2.966469             0.00656090298            0.000289909927           
       2.969109             0.00660537643            0.000292378558           
       2.971749             0.00722822831            0.000304953333           
       2.974390             0.00841450248            0.000329929959           
       2.977030             0.00992174939            0.000357580926           
       2.979670             0.00926019775            0.000343226901           
       2.982311             0.00756918832            0.000312549526           
       2.984951             0.00677731555            0.000296513533           
       2.987592             0.00788073698            0.000318662351           
       2.990232             0.00722664684            0.000305930884           
       2.992872              0.0081199909            0.000321752195           
       2.995513             0.00905436792            0.000342429294           
       2.998153             0.00949484414            0.000352921931           
       3.000794              0.0155846369            0.000445571082           
       3.003434              0.0391444327            0.000713648682           
       3.006074               0.039851846            0.000722388944           
       3.008715              0.0213317188             0.00053254252           
       3.011355              0.0202492452            0.000524250651           
       3.013995              0.0180635732            0.000492728165           
       3.016636              0.0307858071            0.000644457606           
       3.019276               0.136917453             0.00139156964           
       3.021917               0.373155548             0.00225835236           
       3.024557               0.134781488             0.00136809193           
       3.027197              0.0951130304             0.00116855406           
       3.029838              0.0888038766             0.00112373271           
       3.032478              0.0757478756              0.0010440461           
       3.035118              0.0493001545            0.000846619633           
       3.037759              0.0960875806             0.00118402819           
       3.040399              0.0990177019             0.00121569914           
       3.043040              0.0481903838            0.000856342796           
       3.045680              0.0590902892             0.00093365168           
       3.048320              0.0723448405              0.0010496495           
       3.050961              0.0962257074             0.00122269813           
       3.053601               0.121322286             0.00136684455           
       3.056242               0.068474646             0.00103346188           
       3.058882               0.120236248             0.00138982514           
       3.061522               0.288568954              0.0021381974           
       3.064163              0.0591727598            0.000970003811           
       3.066803              0.0197192594            0.000570789068           
       3.069443              0.0239501602            0.000624859537           
       3.072084               0.088216207             0.00120990496           
       3.074724              0.0614183264             0.00101550719           
       3.077365              0.0130921359             0.00046852009           
       3.080005             0.00878804625            0.000388113402           
       3.082645             0.00856420641            0.000385089526           
       3.085286             0.00829052899            0.000378955719           
       3.087926             0.00801555249            0.000374988995           
       3.090566             0.00754708311            0.000367613953           
       3.093207             0.00735066388            0.000358878953           
       3.095847             0.00756799418            0.000371778541           
       3.098488             0.00788848401            0.000378880725           
       3.101128             0.00852635671            0.000396047096           
       3.103768             0.00783197072            0.000381716083           
       3.106409             0.00937181479            0.000420354754           
       3.109049             0.00928148927             0.00042157616           
       3.111690               0.012074749            0.000478952998           
       3.114330              0.0140009667            0.000520331357           
       3.116970              0.0179423375            0.000597228495           
       3.119611              0.0167090125            0.000572586737           
       3.122251              0.0121669921            0.000492606034           
       3.124891             0.00943918241            0.000435992092           
       3.127532             0.00782905239            0.000404221762           
       3.130172             0.00793368741            0.000398543121           
       3.132813             0.00951329461            0.000445300768           
       3.135453             0.00811242299            0.000419883805           
       3.138093             0.00729691519            0.000388771706           
       3.140734             0.00635815202            0.000369656906           
       3.143374             0.00650449631            0.000379602361           
       3.146014             0.00620901115            0.000368187674           
       3.148655             0.00633628559            0.000374870515           
       3.151295             0.00625321598            0.000375352778           
       3.153936             0.00700596874            0.000403168379           
       3.156576             0.00713662039            0.000402239177           
       3.159216              0.0056589356            0.000361112902           
       3.161857             0.00656656823            0.000393767678           
       3.164497             0.00686233114            0.000411025439           
       3.167138             0.00638814072            0.000387055867           
       3.169778             0.00596190461            0.000380672037           
       3.172418              0.0066523009            0.000404459246           
       3.175059             0.00658405634            0.000407645137           
       3.177699             0.00560205221            0.000374533182           
       3.180339             0.00600601266            0.000391268192           
       3.182980             0.00574745377              0.0003879206           
       3.185620             0.00584506528            0.000395475762           
       3.188261             0.00655961846            0.000413463354           
       3.190901             0.00627482157            0.000410619355           
       3.193541             0.00555444909            0.000387603735           
       3.196182             0.00598973108            0.000410879566           
       3.198822             0.00623503854            0.000414127011           
       3.201463             0.00612566543            0.000415786883           
       3.204103              0.0057645493            0.000408716169           
       3.206743             0.00654192164             0.00043908458           
       3.209384             0.00635948644            0.000430989035           
       3.212024             0.00570843569            0.000409782893           
       3.214664             0.00592339902            0.000425383518           
       3.217305             0.00587969295            0.000433698959           
       3.219945              0.0049161818            0.000393258545           
       3.222586             0.00614148064             0.00044202986           
       3.225226             0.00627698018            0.000456946971           
       3.227866             0.00556265849            0.000433489407           
       3.230507             0.00677496763            0.000484108353           
       3.233147             0.00637814476            0.000462769229           
       3.235787             0.00624107494            0.000457894073           
       3.238428             0.00552804472             0.00043855524           
       3.241068               0.005437037            0.000443749683           
       3.243709             0.00591140595            0.000460134787           
       3.246349             0.00553388655            0.000442708725           
       3.248989             0.00578418232            0.000462955082           
       3.251630             0.00643136975            0.000490328079           
       3.254270             0.00552909913            0.000468609189           
       3.256911             0.00555176169            0.000457803104           
       3.259551             0.00618407529            0.000493847599           
       3.262191             0.00565849792            0.000476741896           
       3.264832             0.00530981046            0.000466152754           
       3.267472             0.00573883746            0.000491491919           
       3.270112             0.00554774269            0.000484615327           
       3.272753             0.00590228453            0.000506003634           
       3.275393             0.00549502984            0.000490747721           
       3.278034             0.00644373824             0.00054225096           
       3.280674             0.00556300527            0.000505294688           
       3.283314             0.00497655412            0.000480559812           
       3.285955             0.00532324778            0.000506352722           
       3.288595             0.00548659404            0.000519797776           
       3.291235             0.00523810548            0.000510874039           
       3.293876             0.00573822335            0.000537872538           
       3.296516             0.00708521318            0.000609868256           
       3.299157             0.00494581963            0.000517241904           
       3.301797             0.00505898873            0.000523348447           
       3.304437             0.00433870949            0.000493747246           
       3.307078             0.00511273304            0.000541189774           
       3.309718              0.0053301964            0.000558095283           
       3.312359              0.0055437041            0.000580663453           
       3.314999             0.00604686706            0.000612804455           
       3.317639             0.00516712218            0.000572575215           
       3.320280             0.00629669721            0.000641299285           
       3.322920             0.00593975143            0.000632176278           
       3.325560             0.00555564489            0.000623200022           
       3.328201              0.0053940758            0.000616667045           
       3.330841             0.00580464485            0.000655263594           
       3.333482             0.00518896342            0.000627405147           
       3.336122             0.00501865325            0.000630433753           
       3.338762             0.00503127942            0.000636999712           
       3.341403             0.00589150138            0.000695702177           
       3.344043             0.00533799741            0.000687490784           
       3.346683             0.00501677592             0.00067324432           
       3.349324             0.00552690478            0.000717583972           
       3.351964             0.00519789537            0.000718269904           
       3.354605             0.00542302628            0.000741967712           
       3.357245             0.00441106827            0.000692690419           
       3.359885             0.00388090926            0.000649965203           
       3.362526             0.00523127524             0.00079320247           
       3.365166             0.00557972512            0.000809079892           
       3.367807             0.00572098318            0.000876986192           
       3.370447             0.00560785455            0.000868608624           
       3.373087             0.00563876643            0.000919251301           
       3.375728             0.00421100539            0.000788387401           
       3.378368              0.0068252086             0.00108457501           
       3.381008              0.0055419452            0.000968789289           
       3.383649             0.00588248564             0.00108018275           
       3.386289             0.00547697428             0.00104271644           
       3.388930             0.00470931842              0.0010618787           
       3.391570             0.00327635014            0.000886080344           
       3.394210             0.00518020805             0.00119380905           
       3.396851             0.00634681318             0.00143140392           
       3.399491              0.0058500819             0.00139919016           
       3.402131             0.00684408931             0.00179143644           
       3.404772             0.00504647004             0.00153894645           
       3.407412             0.00632109785             0.00213724159           
       3.410053             0.00370266994             0.00170326276           
       3.412693             0.00298887882              0.0021650869           
       3.415333             0.00428468245             0.00317616256           
