################################################################################
# EDF_DataBlockID                     0.Image.Psd
# EDF_BinarySize                      2105344
# EDF_HeaderSize                      2560
# ByteOrder                           LowByteFirst
# DataType                            FloatValue
# Dim_1                               512
# Dim_2                               1028
# Image                               0
# HeaderID                            EH:000000:000000:000000
# Size                                2105344
# Center_1                            304.9000
# Center_2                            588.7000
# Comment                             Xenocs_Cell_Window - front_window_open_only
# DDummy                              0.6
# Date                                2025-10-19T14:02:08
# Delta                               21.910000
# Dummy                               -1.5
# ExposureTime                        360
# Gamma                               15.360000
# Intensity1                          8.88789e-10
# PSize_1                             7.5e-05
# PSize_2                             7.5e-05
# Pressure                            0.0329857
# SampleDistance                      0.115750
# SampleEnvKind                       large
# SampleEnvPN                         ElectroChemical cell
# SampleEnvSN                         1141
# Thickness                           0
# Wavelength                          1.541891e-10
# Wavelength                          1.54189e-10
# aux                                 0
# aux_dial                            0.002375
# beamx                               588.429
# beamx_dial                          588.429
# beamz                               657.855
# beamz_dial                          657.855
# det0x                               -0.000396875
# det0x_dial                          6.36905
# det0xvd                             -0.0005
# det0xvd_dial                        -0.0005
# det0y                               450.002
# det0y_dial                          481.635
# det0z                               0
# det0z_dial                          1.2295
# det0zvd                             0
# det0zvd_dial                        0
# mag                                 1.818
# mag_dial                            1.818
# om                                  0.2499
# om_dial                             -0.610199
# phi                                 -0.0120535
# phi_dial                            0
# ry                                  0.599993
# ry_dial                             0.599993
# s1bot                               0.8
# s1bot_dial                          -1.66094
# s1hl                                0.8
# s1hl_dial                           -0.608437
# s1hr                                0.8
# s1hr_dial                           0.970938
# s1top                               0.8
# s1top_dial                          -0.461562
# s2bot                               0.45
# s2bot_dial                          1.36109
# s2hl                                0.45
# s2hl_dial                           -0.83375
# s2hr                                0.45
# s2hr_dial                           -0.118594
# s2top                               0.45
# s2top_dial                          1.44734
# w2theta                             32
# w2theta_dial                        32
# waxsch                              19.2605
# waxsch_dial                         -32.7238
# waxsh                               137.085
# waxsh_dial                          -43.5335
# waxsth                              26.0607
# waxsth_dial                         -19.4068
# waxsz                               67.0407
# waxsz_dial                          -23.7962
# wind                                65.9854
# wind_dial                           66.0041
# wpsi                                124
# wpsi_dial                           124
# wstod                               115
# wstod_dial                          115
# x                                   0
# x_dial                              1.00969
# z                                   0
# z_dial                              13.3172
# CountCutoff                         6807993
# DetectorModel                       Dectris EIGER2 Si 500K, S/N E-01-0554
# ThresholdSetting                    4023.88989258
# Saturation                          0
# FlatField                           Corrected
# BackgroundReductionExtra            0.02
# BackgroundCorrectionConstant        0.0026712
# Detector                            0
# Monitor                             0
# Pil_Roi0                            0
# SumForIntensity1                    3.19964e+08
# TransmittedFlux                     888789
# det                                 0
# mon                                 0
# pilai0                              3.19964e+08
# pilai1                              694392
# pilct0                              5.53333e+08
# pilct1                              694392
# pilroi0                             0
# pilroi1                             0
# sec                                 1
# title                               20251017__1_00399.edf
# usaxs0                              0
# Operation                           Azimuthal average I(q)
# Error_model                         ErrorModel.poisson
# Geometrical_correction              True
# Transmission_correction             True
# Thickness_correction                False
# Binning mode                        Uniform
# Binning factor                      1.0
# Psi                                 0.0
# Omega                               0.2499
# MaskInvalidPixels                   True
# DetectorEdge                        3
# MaskFiles                           ['20251017__1_00233_mask.edf']
################################################################################
    q(A⁻¹)                Intensity(a.u.)            Sigma_I(a.u.)            
       0.690460              0.0311067336              0.0163129598           
       0.693100             0.00156211883             0.00163436985           
       0.695741             0.00352561731             0.00207432601           
       0.698381             0.00609801994              0.0025515261           
       0.701021              0.0104013705             0.00271966708           
       0.703662             0.00767209595             0.00216207031           
       0.706302             0.00329134304             0.00136765081           
       0.708942             0.00655113649             0.00171392141           
       0.711583             0.00885590329             0.00199236757           
       0.714223             0.00533076489             0.00134701372           
       0.716864             0.00935143567             0.00182057305           
       0.719504             0.00536193347             0.00127587034           
       0.722144             0.00752920659             0.00146017911           
       0.724785             0.00779117636             0.00146101927           
       0.727425             0.00769105138             0.00134643425           
       0.730065             0.00886891344             0.00148771267           
       0.732706             0.00899224231             0.00134708717           
       0.735346             0.00628219202               0.001216213           
       0.737987             0.00593032792             0.00102277791           
       0.740627             0.00756415607             0.00126540639           
       0.743267             0.00916474771             0.00119810689           
       0.745908             0.00713561677             0.00113301125           
       0.748548             0.00620990268            0.000985805109           
       0.751189             0.00485191738            0.000863166129           
       0.753829             0.00714178687             0.00105667453           
       0.756469             0.00591048346            0.000904126775           
       0.759110             0.00646405858            0.000977989207           
       0.761750             0.00801131701            0.000996440929           
       0.764390               0.006625626            0.000972731156           
       0.767031             0.00519523197            0.000779425647           
       0.769671             0.00600224779            0.000888491625           
       0.772312             0.00694858295            0.000871145553           
       0.774952             0.00660221945            0.000910340557           
       0.777592             0.00847232107            0.000943224768           
       0.780233             0.00775960989            0.000951613922           
       0.782873             0.00678499292            0.000813718738           
       0.785513             0.00822880737            0.000953262402           
       0.788154             0.00692702199            0.000803345434           
       0.790794             0.00772822647            0.000878207745           
       0.793435             0.00631669376            0.000762597166           
       0.796075             0.00717980904            0.000817325804           
       0.798715             0.00719432003            0.000813480661           
       0.801356             0.00785621233            0.000827328778           
       0.803996             0.00715428547            0.000802121284           
       0.806637             0.00735646933            0.000768855526           
       0.809277             0.00786809538            0.000831848473           
       0.811917             0.00592871734            0.000683304574           
       0.814558             0.00681775913            0.000750653537           
       0.817198             0.00641403681            0.000694233411           
       0.819838             0.00789091555            0.000803216032           
       0.822479             0.00733192612            0.000713507438           
       0.825119             0.00629173566            0.000710040033           
       0.827760             0.00644146257            0.000665707415           
       0.830400             0.00585274644            0.000668586718           
       0.833040             0.00587848036            0.000625352177           
       0.835681             0.00536879579            0.000625843411           
       0.838321             0.00661932408            0.000650431093           
       0.840961              0.0061042397             0.00065287161           
       0.843602             0.00622424961            0.000620995007           
       0.846242              0.0059989657            0.000631177825           
       0.848883              0.0072390243            0.000674475434           
       0.851523             0.00716883445            0.000676227748           
       0.854163              0.0066868287            0.000645511208           
       0.856804             0.00737498345            0.000660567591           
       0.859444             0.00728911603            0.000661432458           
       0.862085             0.00591858244            0.000587344772           
       0.864725             0.00684393243            0.000629273918           
       0.867365             0.00712658729            0.000637538332           
       0.870006             0.00794342174            0.000682475032           
       0.872646             0.00618034966            0.000575791195           
       0.875286             0.00620094758            0.000596401594           
       0.877927             0.00804799785            0.000650539702           
       0.880567             0.00587761958            0.000566804217           
       0.883208             0.00636048609            0.000572598707           
       0.885848             0.00717578911            0.000623963449           
       0.888488             0.00717750719            0.000593348195           
       0.891129             0.00771159721            0.000646504518           
       0.893769             0.00684754168            0.000575854445           
       0.896410             0.00706823976            0.000603082678           
       0.899050              0.0073740858            0.000593937277           
       0.901690             0.00822388831            0.000640320039           
       0.904331             0.00673985049            0.000559435655           
       0.906971             0.00674501178            0.000577891994           
       0.909611             0.00711233015            0.000569582252           
       0.912252             0.00783693097            0.000608253405           
       0.914892             0.00637526273            0.000534710502           
       0.917533             0.00642297599            0.000548817979           
       0.920173             0.00614036906            0.000514740835           
       0.922813             0.00721310713            0.000583010379           
       0.925454             0.00638208812            0.000520463098           
       0.928094             0.00765331211            0.000582179142           
       0.930734             0.00713645226            0.000548760308           
       0.933375             0.00700379957            0.000555225082           
       0.936015              0.0072973127            0.000542266084           
       0.938656             0.00674553084            0.000543230409           
       0.941296             0.00737517504            0.000547567764           
       0.943936             0.00785554781            0.000575296698           
       0.946577             0.00731657876            0.000534702029           
       0.949217             0.00676212077            0.000532196831           
       0.951858             0.00649089147            0.000492936015           
       0.954498             0.00754417872            0.000559085253           
       0.957138             0.00708511713            0.000520758057           
       0.959779             0.00811198929            0.000569407293           
       0.962419             0.00796277302            0.000543100883           
       0.965059             0.00740545171            0.000538626924           
       0.967700             0.00735594785            0.000519463859           
       0.970340             0.00740638582            0.000535888463           
       0.972981             0.00701385416            0.000503517786           
       0.975621             0.00852714049             0.00056681016           
       0.978261              0.0079610854             0.00052254959           
       0.980902             0.00661797023            0.000499120664           
       0.983542             0.00699324593            0.000498137644           
       0.986182              0.0078829362            0.000535841038           
       0.988823             0.00705823241            0.000490677483           
       0.991463             0.00848543799            0.000550853935           
       0.994104             0.00720226067            0.000490390914           
       0.996744             0.00783275745            0.000527989697           
       0.999384             0.00725397705            0.000490862811           
       1.002025             0.00737368658            0.000508675845           
       1.004665             0.00674607801            0.000466616682           
       1.007306             0.00693294197            0.000488885579           
       1.009946             0.00791630596            0.000502311656           
       1.012586             0.00692142509            0.000483199101           
       1.015227             0.00616579323            0.000442256179           
       1.017867             0.00772314608            0.000509151469           
       1.020507             0.00777175877            0.000491523811           
       1.023148             0.00649402736            0.000454732661           
       1.025788             0.00717875189            0.000473209628           
       1.028429              0.0072456729            0.000485802988           
       1.031069             0.00829199546             0.00050070248           
       1.033709              0.0070605714            0.000470902284           
       1.036350              0.0082579165            0.000495913684           
       1.038990             0.00769305242            0.000490469225           
       1.041630             0.00752047048            0.000475607092           
       1.044271             0.00794762814            0.000488982536           
       1.046911             0.00787135413            0.000477588971           
       1.049552             0.00763226845            0.000487227634           
       1.052192             0.00763949954            0.000465538094           
       1.054832             0.00841222425            0.000498015514           
       1.057473             0.00782035222            0.000474097301           
       1.060113             0.00796336162            0.000483593114           
       1.062754             0.00778357079            0.000472814991           
       1.065394              0.0080980594            0.000477198112           
       1.068034             0.00795809736             0.00047122489           
       1.070675             0.00760843701            0.000468860507           
       1.073315             0.00804662746            0.000467434538           
       1.075955             0.00828886351            0.000482374851           
       1.078596             0.00793488111            0.000471029484           
       1.081236             0.00843149749            0.000478344179           
       1.083877             0.00754371954            0.000466595066           
       1.086517             0.00751828315            0.000455270551           
       1.089157             0.00778134911             0.00046656288           
       1.091798             0.00833068444            0.000472522702           
       1.094438             0.00832224968            0.000479789454           
       1.097078             0.00919815491            0.000491444521           
       1.099719              0.0077403475            0.000462375324           
       1.102359              0.0089835627            0.000471883859           
       1.105000             0.00782299197            0.000457691824           
       1.107640             0.00866694665            0.000466044033           
       1.110280             0.00792492136            0.000454570817           
       1.112921             0.00886932268            0.000472192485           
       1.115561              0.0087009665            0.000473624753           
       1.118202             0.00843344886            0.000452677521           
       1.120842              0.0091987097            0.000487665747           
       1.123482              0.0080413403             0.00044316575           
       1.126123             0.00890261386            0.000469205056           
       1.128763             0.00834261292            0.000451955344           
       1.131403             0.00843383906            0.000453713271           
       1.134044             0.00855868374            0.000456265747           
       1.136684             0.00821826836            0.000450459891           
       1.139325             0.00818286144            0.000436823933           
       1.141965             0.00870165866             0.00045634986           
       1.144605             0.00890980397            0.000464487996           
       1.147246             0.00884433707            0.000454013903           
       1.149886              0.0079901294            0.000434601415           
       1.152527             0.00854042007            0.000449768256           
       1.155167             0.00844694535            0.000441011085           
       1.157807             0.00779245263            0.000423873084           
       1.160448             0.00902369681            0.000462373429           
       1.163088             0.00963429288            0.000460036054           
       1.165728             0.00885711531            0.000459271831           
       1.168369             0.00911248673            0.000449215275           
       1.171009             0.00901923581             0.00045061616           
       1.173650             0.00875345465            0.000440725862           
       1.176290              0.0081541695            0.000430362948           
       1.178930             0.00758470548            0.000403395426           
       1.181571             0.00890561262            0.000451389568           
       1.184211              0.0091554729            0.000443855373           
       1.186851             0.00860144069            0.000434182959           
       1.189492             0.00875957458            0.000440588998           
       1.192132             0.00941455775            0.000449999464           
       1.194773             0.00900352036            0.000437411451           
       1.197413             0.00961030871            0.000455597133           
       1.200053             0.00945243197            0.000448996539           
       1.202694             0.00871201142            0.000427804468           
       1.205334             0.00919642762            0.000444342052           
       1.207975             0.00945374087            0.000441688204           
       1.210615             0.00892621355            0.000438263696           
       1.213255             0.00928654402            0.000435195932           
       1.215896             0.00938142543            0.000445704705           
       1.218536             0.00962296172            0.000438404279           
       1.221176              0.0095150694            0.000446345021           
       1.223817             0.00914090662            0.000428365108           
       1.226457              0.0091062099            0.000432981959           
       1.229098             0.00985163844            0.000443522957           
       1.231738             0.00947236673            0.000441025805           
       1.234378             0.00947996299            0.000432629886           
       1.237019              0.0093564198            0.000433268362           
       1.239659             0.00985191893            0.000444352371           
       1.242299              0.0093909511            0.000431614399           
       1.244940              0.0100632894            0.000441975029           
       1.247580             0.00915302149            0.000423373212           
       1.250221              0.0104117869            0.000458918641           
       1.252861             0.00941048998            0.000420039166           
       1.255501               0.010396503            0.000453961821           
       1.258142              0.0106316684            0.000449991614           
       1.260782             0.00974340594            0.000435649537           
       1.263423             0.00979180853            0.000428077879           
       1.266063             0.00946300019            0.000428672777           
       1.268703             0.00961361752            0.000421184754           
       1.271344              0.0100232143            0.000439430437           
       1.273984             0.00994043698            0.000430780687           
       1.276624             0.00878013571            0.000402389053           
       1.279265              0.0102926876            0.000436623503           
       1.281905              0.0105895518            0.000445605143           
       1.284546               0.010129463            0.000431056398           
       1.287186               0.010072867            0.000430263453           
       1.289826              0.0101042191            0.000433167214           
       1.292467              0.0106944746            0.000437685933           
       1.295107              0.0106791228            0.000445080975           
       1.297747              0.0107927714            0.000435706796           
       1.300388              0.0105164381            0.000441137258           
       1.303028             0.00990420821            0.000417217661           
       1.305669              0.0103168271             0.00043132141           
       1.308309             0.00988818255            0.000415916855           
       1.310949              0.0103857967            0.000431566538           
       1.313590               0.010062122            0.000418214457           
       1.316230             0.00963232478            0.000416550452           
       1.318871              0.0104464966             0.00042443928           
       1.321511              0.0108433529            0.000434593255           
       1.324151             0.00969883224            0.000412642181           
       1.326792              0.0103690379            0.000423204985           
       1.329432              0.0102563286            0.000423094156           
       1.332072              0.0105040375            0.000420830796           
       1.334713              0.0108602831            0.000433214413           
       1.337353              0.0105684928            0.000420781341           
       1.339994              0.0104554053            0.000424485285           
       1.342634              0.0109590735            0.000424805728           
       1.345274               0.011067512            0.000432483265           
       1.347915              0.0114112693            0.000440315881           
       1.350555              0.0107032225            0.000424770776           
       1.353195              0.0113951602            0.000429901385           
       1.355836              0.0106973322            0.000424389121           
       1.358476              0.0103602196            0.000416473928           
       1.361117              0.0101673927            0.000402230016           
       1.363757              0.0107396466            0.000427094668           
       1.366397              0.0103016191            0.000405268221           
       1.369038              0.0107033652            0.000421801913           
       1.371678               0.010571068            0.000410722718           
       1.374319              0.0103170425            0.000408975932           
       1.376959              0.0104543028            0.000406019826           
       1.379599              0.0105680584            0.000416179915           
       1.382240              0.0102200536            0.000401496674           
       1.384880              0.0107669361            0.000417158613           
       1.387520               0.011225944            0.000420977583           
       1.390161              0.0100315024            0.000396870231           
       1.392801              0.0106925244             0.00041217956           
       1.395442              0.0110559211            0.000414782496           
       1.398082              0.0107735288            0.000410852191           
       1.400722              0.0106294811            0.000406252681           
       1.403363              0.0111683922            0.000420288121           
       1.406003               0.010666522            0.000400650713           
       1.408644              0.0110724943            0.000416773703           
       1.411284               0.011323997            0.000419168987           
       1.413924              0.0108722768            0.000405657747           
       1.416565              0.0104449446            0.000397138289           
       1.419205             0.00989511698            0.000390351849           
       1.421845              0.0101150459            0.000389704349           
       1.424486              0.0102679739            0.000394372639           
       1.427126              0.0104908385            0.000398378049           
       1.429767              0.0108591093            0.000399064307           
       1.432407              0.0113008842            0.000417356284           
       1.435047              0.0102345422            0.000385242354           
       1.437688              0.0116488866            0.000420101745           
       1.440328              0.0102523048            0.000386477611           
       1.442968             0.00983120609            0.000383696353           
       1.445609               0.010338618            0.000387001641           
       1.448249              0.0107925913            0.000397963718           
       1.450890              0.0103634039            0.000387188698           
       1.453530              0.0106996105            0.000396333205           
       1.456170              0.0101675622            0.000385483718           
       1.458811              0.0105774057            0.000390048155           
       1.461451               0.010515414            0.000391762272           
       1.464092              0.0101220284            0.000381014062           
       1.466732              0.0111411825            0.000397283842           
       1.469372              0.0106071042            0.000386452962           
       1.472013              0.0104084247            0.000389665505           
       1.474653             0.00977716464            0.000368339099           
       1.477293              0.0109462478            0.000396299322           
       1.479934              0.0100642775            0.000376021358           
       1.482574              0.0104518235            0.000382247008           
       1.485215              0.0102101389            0.000378774518           
       1.487855              0.0101122305            0.000376876175           
       1.490495             0.00986464522            0.000371432736           
       1.493136             0.00966574125             0.00036284735           
       1.495776              0.0103225898            0.000381511138           
       1.498416              0.0101115226            0.000370255077           
       1.501057             0.00982975952            0.000368199945           
       1.503697              0.0100147767            0.000368075653           
       1.506338             0.00979204733            0.000366636215           
       1.508978              0.0096671162            0.000362138965           
       1.511618              0.0100857519            0.000369710165           
       1.514259               0.010296459            0.000374226768           
       1.516899              0.0107143391            0.000381922982           
       1.519540             0.00965775088            0.000360590526           
       1.522180             0.00971940398            0.000357222142           
       1.524820              0.0101096739            0.000371681892           
       1.527461              0.0103609085            0.000367948023           
       1.530101              0.0107376096            0.000378450087           
       1.532741             0.00923595547            0.000349327844           
       1.535382              0.0100397219            0.000365013136           
       1.538022              0.0100082777            0.000361216667           
       1.540663             0.00974576332            0.000359816671           
       1.543303             0.00974305172            0.000355289572           
       1.545943              0.0096955896            0.000356409448           
       1.548584              0.0101543429            0.000366686153           
       1.551224              0.0101694586            0.000357551208           
       1.553864             0.00989816493            0.000361964743           
       1.556505             0.00974109294            0.000353557537           
       1.559145             0.00955934325            0.000351053355           
       1.561786              0.0104534674            0.000365441065           
       1.564426             0.00957232204             0.00034938428           
       1.567066             0.00979107947            0.000350596016           
       1.569707             0.00968693708            0.000353775157           
       1.572347             0.00937790042             0.00034357013           
       1.574988             0.00944120055            0.000343363963           
       1.577628             0.00896998462            0.000342220915           
       1.580268             0.00952715443            0.000340518077           
       1.582909              0.0088546911            0.000334420828           
       1.585549             0.00962052323            0.000345325186           
       1.588189             0.00901010969            0.000337922955           
       1.590830             0.00905525283            0.000332953272           
       1.593470             0.00926626182            0.000339560724           
       1.596111             0.00856037606            0.000323550932           
       1.598751             0.00926635796            0.000340069682           
       1.601391             0.00926918333            0.000337946937           
       1.604032             0.00830479422            0.000317212477           
       1.606672             0.00877352142            0.000332603594           
       1.609312             0.00927726645            0.000331841974           
       1.611953             0.00850172398            0.000322272749           
       1.614593             0.00913193518            0.000331463524           
       1.617234              0.0089936646             0.00033080912           
       1.619874             0.00900270996            0.000327081762           
       1.622514             0.00848722993            0.000320388384           
       1.625155             0.00906587579            0.000330311201           
       1.627795             0.00856392334            0.000317792665           
       1.630436              0.0083459567            0.000316875769           
       1.633076             0.00852064122            0.000318548073           
       1.635716             0.00858219323            0.000319139067           
       1.638357             0.00840944869            0.000314568674           
       1.640997             0.00886815823            0.000325560389           
       1.643637             0.00833000162            0.000309668579           
       1.646278             0.00878023486            0.000322686038           
       1.648918              0.0086404432            0.000315980125           
       1.651559             0.00881774762            0.000323219105           
       1.654199             0.00914713743             0.00032468828           
       1.656839             0.00899161608            0.000321829566           
       1.659480             0.00814270432            0.000308958099           
       1.662120             0.00825740273            0.000306957279           
       1.664761             0.00836458951            0.000312288091           
       1.667401             0.00809829002            0.000304414246           
       1.670041             0.00912263957            0.000323463498           
       1.672682             0.00826028798            0.000304899438           
       1.675322             0.00881440379            0.000320528862           
       1.677962             0.00885372653            0.000314863146           
       1.680603             0.00860083106            0.000313087931           
       1.683243             0.00877158974            0.000313841624           
       1.685884             0.00892151866             0.00031771688           
       1.688524              0.0084604871            0.000308528277           
       1.691164             0.00802719479            0.000299751587           
       1.693805             0.00813668891            0.000304229484           
       1.696445             0.00769602027            0.000291769973           
       1.699085             0.00825611721             0.00030340717           
       1.701726             0.00853585851            0.000304491628           
       1.704366             0.00853099546            0.000311811734           
       1.707007             0.00821815653            0.000299510407           
       1.709647             0.00783648591            0.000296106729           
       1.712287             0.00863615125            0.000305652873           
       1.714928             0.00807524239            0.000298532288           
       1.717568             0.00794119182            0.000293321765           
       1.720209             0.00801311724            0.000296466596           
       1.722849             0.00865278142            0.000308566424           
       1.725489             0.00822850684            0.000296110226           
       1.728130             0.00802723824            0.000298420094           
       1.730770             0.00857865194             0.00030197861           
       1.733410             0.00819930987            0.000299102113           
       1.736051             0.00853014826             0.00030034138           
       1.738691             0.00860776214              0.0003047842           
       1.741332             0.00797492564            0.000291560673           
       1.743972             0.00800298075            0.000292181398           
       1.746612             0.00803914747            0.000292908231           
       1.749253             0.00840022217            0.000300707853           
       1.751893             0.00837182657            0.000298398133           
       1.754533             0.00854018643            0.000297247201           
       1.757174             0.00817254405            0.000296215383           
       1.759814             0.00829648062            0.000293902905           
       1.762455             0.00825236305            0.000295615895           
       1.765095             0.00796051004            0.000286264126           
       1.767735             0.00851646234            0.000301122896           
       1.770376             0.00850327557            0.000296326616           
       1.773016             0.00797024152            0.000287341362           
       1.775657             0.00850263478            0.000297391141           
       1.778297             0.00828945228            0.000295075791           
       1.780937             0.00853228492            0.000297969615           
       1.783578              0.0086300884             0.00029826535           
       1.786218             0.00800810046            0.000291900935           
       1.788858              0.0086851128            0.000296436721           
       1.791499             0.00823897558            0.000294043868           
       1.794139             0.00869960229            0.000296572299           
       1.796780             0.00853663088            0.000295526896           
       1.799420             0.00870128178             0.00029798342           
       1.802060             0.00833418613            0.000288043052           
       1.804701             0.00921115201            0.000306881328           
       1.807341             0.00876596407            0.000296480753           
       1.809981             0.00900246857            0.000302449029           
       1.812622             0.00855396126             0.00029321245           
       1.815262             0.00906608544            0.000302938468           
       1.817903             0.00909458009            0.000299665624           
       1.820543             0.00913151531            0.000303984912           
       1.823183             0.00891609663            0.000295749669           
       1.825824             0.00852362424             0.00029351579           
       1.828464             0.00889077789            0.000298850964           
       1.831105             0.00855935448            0.000294363119           
       1.833745             0.00883312077             0.00029884694           
       1.836385              0.0081369688            0.000285713425           
       1.839026             0.00880388461            0.000301659074           
       1.841666             0.00856904918            0.000293744282           
       1.844306             0.00872357393            0.000300122686           
       1.846947             0.00858323849             0.00029387321           
       1.849587             0.00900931841            0.000305162426           
       1.852228             0.00884206253            0.000299101134           
       1.854868              0.0088661537            0.000305001517           
       1.857508             0.00858257812            0.000294543278           
       1.860149             0.00872908485            0.000299427572           
       1.862789             0.00856968739             0.00029799392           
       1.865429             0.00938878949            0.000312850669           
       1.868070             0.00920308549            0.000308670937           
       1.870710             0.00885862121            0.000303663922           
       1.873351             0.00862752857            0.000301590111           
       1.875991              0.0090953742            0.000311334383           
       1.878631             0.00877611716            0.000302979011           
       1.881272             0.00919244386            0.000309355839           
       1.883912             0.00890231708            0.000308005195           
       1.886553             0.00893557991             0.00030487851           
       1.889193             0.00878478102            0.000305786963           
       1.891833             0.00908248298            0.000307386815           
       1.894474             0.00854393832            0.000300493912           
       1.897114              0.0087397392            0.000301560211           
       1.899754             0.00931320573            0.000314787763           
       1.902395             0.00831281217            0.000297464266           
       1.905035             0.00861031478            0.000301553952           
       1.907676             0.00882116716             0.00030557874           
       1.910316             0.00925324256            0.000314968718           
       1.912956             0.00946759586            0.000318583328           
       1.915597             0.00927079015            0.000311968042           
       1.918237             0.00857298112            0.000304551422           
       1.920878             0.00895020474             0.00030567252           
       1.923518             0.00856649678            0.000306993739           
       1.926158             0.00865184223            0.000301429725           
       1.928799             0.00844578904            0.000301776209           
       1.931439             0.00873736085            0.000304481275           
       1.934079              0.0082181878            0.000298287056           
       1.936720             0.00889530354            0.000308505609           
       1.939360             0.00871103649            0.000308235889           
       1.942001             0.00895116227            0.000311253366           
       1.944641             0.00892551667            0.000309467861           
       1.947281             0.00906325028            0.000313353125           
       1.949922             0.00847320345            0.000303360542           
       1.952562             0.00850067184            0.000306466524           
       1.955202             0.00910780176            0.000309251809           
       1.957843             0.00802041935            0.000299423247           
       1.960483             0.00843356663            0.000302140853           
       1.963124             0.00834510301             0.00030032915           
       1.965764             0.00917868675            0.000315084583           
       1.968404             0.00808113667            0.000300933546           
       1.971045             0.00866705862            0.000303839992           
       1.973685             0.00854036205            0.000307239474           
       1.976326             0.00816915373            0.000299178101           
       1.978966             0.00857750813            0.000308015141           
       1.981606             0.00817921848            0.000297598018           
       1.984247             0.00824363492            0.000301372764           
       1.986887             0.00820141915            0.000303411431           
       1.989527             0.00859298708            0.000304099777           
       1.992168              0.0080548696             0.00030152762           
       1.994808             0.00793179203            0.000295734768           
       1.997449             0.00803243857            0.000297168712           
       2.000089              0.0083153662            0.000300576644           
       2.002729              0.0082923278            0.000307037962           
       2.005370             0.00808845204            0.000297475616           
       2.008010              0.0080373148            0.000300470748           
       2.010650             0.00832085862             0.00030485029           
       2.013291              0.0083067823            0.000306326039           
       2.015931             0.00821554883            0.000302458864           
       2.018572             0.00788348552            0.000300218266           
       2.021212             0.00804146588            0.000300490208           
       2.023852             0.00760765314            0.000293807943           
       2.026493             0.00828635664            0.000305290004           
       2.029133             0.00803084969            0.000298253691           
       2.031774             0.00775342986            0.000295898908           
       2.034414              0.0082197332            0.000302848715           
       2.037054             0.00758891483            0.000294665029           
       2.039695             0.00791028066            0.000294913641           
       2.042335             0.00791907765            0.000300100215           
       2.044975             0.00802646091            0.000299713406           
       2.047616              0.0074675793            0.000290329419           
       2.050256             0.00747908573            0.000287135249           
       2.052897             0.00766722965            0.000299334806           
       2.055537             0.00809081581            0.000299108793           
       2.058177             0.00805172274            0.000301021021           
       2.060818              0.0077186402            0.000295613783           
       2.063458             0.00780084296            0.000297593064           
       2.066098             0.00706987608             0.00028205016           
       2.068739             0.00731654687            0.000289920104           
       2.071379             0.00785617111            0.000295984775           
       2.074020             0.00738597869            0.000290920779           
       2.076660               0.007913239             0.00029908455           
       2.079300             0.00732514515            0.000287714686           
       2.081941             0.00765934723            0.000295993435           
       2.084581             0.00757229099              0.0002945245           
       2.087222             0.00785698938            0.000300214469           
       2.089862             0.00778327441            0.000295078549           
       2.092502             0.00755849822            0.000296070067           
       2.095143             0.00781722343            0.000296791424           
       2.097783             0.00801855518            0.000305163048           
       2.100423             0.00778283119            0.000294879371           
       2.103064             0.00754618836            0.000295375065           
       2.105704             0.00787132495            0.000300517174           
       2.108345             0.00768859674            0.000298372089           
       2.110985             0.00722356831            0.000285145964           
       2.113625             0.00730107556            0.000291188375           
       2.116266             0.00747104701            0.000292378187           
       2.118906             0.00762710333            0.000295201227           
       2.121546             0.00764636718            0.000295339103           
       2.124187             0.00740842039             0.00029472843           
       2.126827             0.00746026332            0.000291119543           
       2.129468             0.00767211675            0.000298305013           
       2.132108              0.0076021947            0.000296328109           
       2.134748             0.00739001901            0.000291062549           
       2.137389             0.00777713418            0.000301089556           
       2.140029              0.0073360526            0.000291716617           
       2.142670             0.00696948012            0.000284799479           
       2.145310             0.00739722911            0.000294530035           
       2.147950             0.00726350724            0.000292984007           
       2.150591             0.00769198118            0.000298736706           
       2.153231             0.00805634479            0.000310250318           
       2.155871             0.00770996954            0.000299124257           
       2.158512             0.00701176974            0.000290398999           
       2.161152             0.00728426466            0.000288594303           
       2.163793             0.00710310065            0.000289620018           
       2.166433             0.00746603347            0.000291777913           
       2.169073             0.00785839281            0.000306335636           
       2.171714             0.00757047868            0.000294550293           
       2.174354             0.00773833513            0.000302348495           
       2.176995             0.00737798361            0.000292775897           
       2.179635             0.00764193998            0.000303606163           
       2.182275             0.00753152311            0.000295421672           
       2.184916             0.00730849746            0.000297165303           
       2.187556             0.00764419267            0.000299020675           
       2.190196             0.00758220975            0.000302486786           
       2.192837             0.00752220722            0.000297988262           
       2.195477             0.00698713753            0.000289964857           
       2.198118             0.00783825907            0.000301448234           
       2.200758             0.00764183601            0.000302269444           
       2.203398             0.00777997103            0.000299931368           
       2.206039             0.00769410603            0.000302830694           
       2.208679             0.00736259471            0.000293335093           
       2.211319             0.00755308887            0.000298504092           
       2.213960             0.00741241147            0.000292567059           
       2.216600             0.00696463471             0.00029027445           
       2.219241             0.00692536075            0.000285246655           
       2.221881             0.00713466531            0.000291034208           
       2.224521             0.00729553645            0.000293276246           
       2.227162             0.00757813625             0.00030359728           
       2.229802             0.00745888332            0.000296309857           
       2.232443              0.0068670545            0.000285429244           
       2.235083             0.00713423431            0.000289184427           
       2.237723             0.00682159748             0.00028494417           
       2.240364             0.00723486413             0.00029195592           
       2.243004             0.00729073364            0.000293966457           
       2.245644             0.00710753308            0.000289579329           
       2.248285              0.0073058973            0.000295498335           
       2.250925             0.00735424364            0.000295088074           
       2.253566             0.00763205972            0.000301345126           
       2.256206             0.00732474493            0.000294331457           
       2.258846             0.00669631849             0.00028142479           
       2.261487             0.00760186768            0.000300368977           
       2.264127             0.00727267788            0.000296573244           
       2.266767             0.00698121857            0.000285873287           
       2.269408             0.00783690261            0.000306484013           
       2.272048             0.00745646231            0.000297113416           
       2.274689              0.0070307083            0.000289640846           
       2.277329             0.00705598484            0.000289775467           
       2.279969             0.00670136479            0.000283255765           
       2.282610             0.00701979347            0.000287080207           
       2.285250             0.00738158128            0.000299015027           
       2.287891             0.00749150982            0.000298193533           
       2.290531             0.00715978531            0.000292954333           
       2.293171             0.00727831438            0.000295354723           
       2.295812             0.00716384547            0.000291467699           
       2.298452              0.0069923087            0.000289801274           
       2.301092             0.00702184083             0.00029225738           
       2.303733              0.0074547804            0.000295176117           
       2.306373             0.00733767287             0.00030001129           
       2.309014             0.00743701539            0.000296215071           
       2.311654              0.0074421375            0.000299129249           
       2.314294             0.00710075965            0.000291550158           
       2.316935             0.00712161944            0.000293132068           
       2.319575             0.00694081988            0.000288303569           
       2.322215             0.00746349155            0.000303221909           
       2.324856             0.00718377914            0.000290015092           
       2.327496             0.00698581151            0.000293000132           
       2.330137             0.00740247999            0.000296049106           
       2.332777             0.00747618259            0.000300773281           
       2.335417             0.00740619973            0.000298463533           
       2.338058             0.00745567018            0.000300657208           
       2.340698             0.00623443364            0.000272225996           
       2.343339             0.00717123642            0.000297534659           
       2.345979              0.0070211344             0.00028852957           
       2.348619             0.00701321668            0.000293812567           
       2.351260              0.0068400525             0.00028399457           
       2.353900              0.0069444763            0.000292215631           
       2.356540              0.0069467713            0.000288244336           
       2.359181             0.00680328871            0.000289066454           
       2.361821              0.0069782592            0.000289192961           
       2.364462              0.0066554752              0.0002871455           
       2.367102             0.00715687166            0.000289154635           
       2.369742             0.00713583786            0.000299076569           
       2.372383             0.00723975297            0.000292464734           
       2.375023             0.00720034151            0.000299266754           
       2.377663             0.00697352422            0.000288256829           
       2.380304             0.00699735666            0.000292754422           
       2.382944             0.00699807217            0.000289905805           
       2.385585             0.00713069698            0.000295406526           
       2.388225             0.00770281405            0.000305641352           
       2.390865             0.00668092986            0.000285375408           
       2.393506             0.00696285051            0.000289991701           
       2.396146             0.00689192929            0.000289467313           
       2.398787              0.0072219276            0.000296575587           
       2.401427              0.0067699838            0.000285402377           
       2.404067             0.00782005825              0.0003114206           
       2.406708              0.0068002952            0.000286756305           
       2.409348             0.00691839421            0.000291411438           
       2.411988             0.00667975953            0.000285427035           
       2.414629             0.00725485313            0.000298433566           
       2.417269             0.00720963699             0.00029480037           
       2.419910             0.00699726475            0.000294088488           
       2.422550             0.00746306131            0.000299108895           
       2.425190             0.00667255641            0.000291729151           
       2.427831             0.00701769119            0.000287927074           
       2.430471             0.00731889114            0.000302636326           
       2.433112             0.00733063201            0.000295732181           
       2.435752             0.00678581963            0.000291733855           
       2.438392             0.00680037254             0.00028713776           
       2.441033             0.00723701155            0.000297570001           
       2.443673             0.00728571404            0.000299366885           
       2.446313             0.00699556859             0.00029178242           
       2.448954             0.00743771969            0.000303502089           
       2.451594             0.00733556327             0.00029960208           
       2.454235             0.00697894837            0.000291319556           
       2.456875              0.0074586425            0.000302690532           
       2.459515             0.00761559591            0.000306330334           
       2.462156             0.00740705217            0.000300549654           
       2.464796             0.00812993216              0.0003204283           
       2.467436             0.00761720901            0.000303656129           
       2.470077             0.00764673613            0.000308439498           
       2.472717             0.00761630676            0.000303973499           
       2.475358             0.00752062554            0.000305480271           
       2.477998             0.00740883503            0.000301583747           
       2.480638             0.00736906291            0.000301503986           
       2.483279             0.00696425861            0.000294364949           
       2.485919             0.00666006479            0.000285848736           
       2.488560              0.0072733104            0.000299958247           
       2.491200             0.00752583982            0.000304702761           
       2.493840             0.00690095836            0.000290190106           
       2.496481             0.00689141135            0.000293781451           
       2.499121             0.00695842109            0.000291275776           
       2.501761             0.00699474099            0.000296993867           
       2.504402             0.00717110168            0.000294951749           
       2.507042             0.00668628814            0.000289541375           
       2.509683             0.00685333283            0.000290466342           
       2.512323             0.00791492181            0.000313375775           
       2.514963              0.0131048932            0.000404037536           
       2.517604              0.0196180922            0.000492413319           
       2.520244             0.00949093349            0.000342571175           
       2.522884             0.00772143778            0.000308314811           
       2.525525             0.00811438542            0.000318658765           
       2.528165              0.0167562652            0.000455825547           
       2.530806              0.0282334346            0.000589465798           
       2.533446              0.0134260321            0.000410103064           
       2.536086             0.00958407291            0.000343584788           
       2.538727              0.0108630311            0.000368137198           
       2.541367              0.0105444152            0.000361661117           
       2.544008              0.0073315743            0.000301826199           
       2.546648             0.00698606125            0.000294962892           
       2.549288             0.00654010175            0.000285434163           
       2.551929             0.00727178792            0.000301971867           
       2.554569             0.00738794334            0.000301592636           
       2.557209             0.00691247984            0.000295022659           
       2.559850             0.00741495065            0.000302043583           
       2.562490             0.00712714703            0.000298279951           
       2.565131             0.00704116314            0.000296991057           
       2.567771             0.00640743585            0.000281809357           
       2.570411               0.007196673            0.000302295835           
       2.573052             0.00727244145            0.000300335796           
       2.575692             0.00696709359            0.000294742895           
       2.578332             0.00743639014            0.000303608396           
       2.580973             0.00700658228            0.000297093315           
       2.583613             0.00729890708            0.000300464306           
       2.586254             0.00729018036            0.000302941224           
       2.588894             0.00711788844            0.000297743273           
       2.591534             0.00706006763            0.000297076911           
       2.594175             0.00666042201            0.000290221131           
       2.596815               0.007011232             0.00029499766           
       2.599456             0.00729694519            0.000303410614           
       2.602096             0.00702349922            0.000296557362           
       2.604736             0.00696164746             0.00029602301           
       2.607377             0.00687949339             0.00029314582           
       2.610017             0.00683928135            0.000292185697           
       2.612657             0.00642799349            0.000285264992           
       2.615298             0.00713230062            0.000297547646           
       2.617938             0.00740499301            0.000305834703           
       2.620579             0.00622654971            0.000278154445           
       2.623219             0.00681493163            0.000295654818           
       2.625859             0.00658104269            0.000285640426           
       2.628500              0.0072589537            0.000304786258           
       2.631140             0.00716554805            0.000297478896           
       2.633780             0.00683176213            0.000294198472           
       2.636421             0.00698725868            0.000294820327           
       2.639061             0.00687518806            0.000295943022           
       2.641702             0.00716174102            0.000298818525           
       2.644342             0.00671114842            0.000291638367           
       2.646982             0.00727360463            0.000303355741           
       2.649623             0.00659321832            0.000290550658           
       2.652263             0.00716575033            0.000300492989           
       2.654904             0.00672206368            0.000292621715           
       2.657544             0.00687313554            0.000293809859           
       2.660184             0.00706938839            0.000298356146           
       2.662825             0.00684452174            0.000294276339           
       2.665465              0.0070656372            0.000299544909           
       2.668105             0.00709762053            0.000300340978           
       2.670746             0.00712179117             0.00029830632           
       2.673386             0.00682028332            0.000295461476           
       2.676027             0.00751539781            0.000307516135           
       2.678667             0.00687286171             0.00029560559           
       2.681307             0.00708411204            0.000297754263           
       2.683948             0.00696229718            0.000298114691           
       2.686588             0.00753577578             0.00030730338           
       2.689229             0.00811675915            0.000321791833           
       2.691869             0.00751190573            0.000306479936           
       2.694509             0.00758226661            0.000312134579           
       2.697150             0.00751840651            0.000305856593           
       2.699790             0.00754488807            0.000312759275           
       2.702430             0.00705638559            0.000296665745           
       2.705071             0.00736499594             0.00030723163           
       2.707711             0.00701456393            0.000296860168           
       2.710352             0.00643559571            0.000285963691           
       2.712992             0.00674295396            0.000293664424           
       2.715632             0.00673440427            0.000291808803           
       2.718273             0.00749540256            0.000308877065           
       2.720913             0.00622981988            0.000282065781           
       2.723553             0.00716201943            0.000301382936           
       2.726194             0.00701494848            0.000299710976           
       2.728834             0.00664869173            0.000289188266           
       2.731475             0.00723809994            0.000304371496           
       2.734115             0.00621557663            0.000280373404           
       2.736755             0.00739237605            0.000307786498           
       2.739396             0.00727293139            0.000303675425           
       2.742036             0.00754295733            0.000311372285           
       2.744677             0.00737599491            0.000308357084           
       2.747317             0.00722599685            0.000303722858           
       2.749957             0.00747821502            0.000311219503           
       2.752598             0.00716478898            0.000305545152           
       2.755238              0.0069439688            0.000300664255           
       2.757878             0.00766397815            0.000314968233           
       2.760519             0.00744925584            0.000307245954           
       2.763159             0.00747313226            0.000312741722           
       2.765800             0.00725669034             0.00030295904           
       2.768440             0.00712193666            0.000304086737           
       2.771080             0.00716845036            0.000302507221           
       2.773721             0.00672213385            0.000296532397           
       2.776361             0.00713345457            0.000302189119           
       2.779001             0.00665392725            0.000294923377           
       2.781642             0.00657428696            0.000291152783           
       2.784282             0.00622343319            0.000283376032           
       2.786923             0.00716041601            0.000301648828           
       2.789563             0.00623936721            0.000282146283           
       2.792203             0.00689561017            0.000298501237           
       2.794844             0.00676660172            0.000294350288           
       2.797484             0.00630771542            0.000284594625           
       2.800125             0.00661750696            0.000291122827           
       2.802765             0.00624115753            0.000287964465           
       2.805405             0.00671465579            0.000294376725           
       2.808046             0.00710260147            0.000307403666           
       2.810686             0.00676680969            0.000296851911           
       2.813326             0.00636227627            0.000291403211           
       2.815967             0.00679995476            0.000299361183           
       2.818607             0.00725787613            0.000312368372           
       2.821248             0.00691162149            0.000301025319           
       2.823888             0.00707951142            0.000309566562           
       2.826528             0.00640521097            0.000292698346           
       2.829169             0.00653152327             0.00029426539           
       2.831809             0.00684591524            0.000301528279           
       2.834449             0.00681697861            0.000295638353           
       2.837090              0.0068024767            0.000297100981           
       2.839730             0.00611310749            0.000279644596           
       2.842371             0.00688233513            0.000298784974           
       2.845011             0.00658390738             0.00029158355           
       2.847651             0.00632242221            0.000286259394           
       2.850292             0.00697839051            0.000299034295           
       2.852932              0.0066069465            0.000291488785           
       2.855573             0.00635988647            0.000288498601           
       2.858213             0.00730499095            0.000305723221           
       2.860853             0.00672213677            0.000295468241           
       2.863494             0.00720289168            0.000306587926           
       2.866134             0.00741040198            0.000315334772           
       2.868774             0.00752653036             0.00031293129           
       2.871415             0.00723281405            0.000309800779           
       2.874055             0.00670686494            0.000299802038           
       2.876696              0.0072080515            0.000308003305           
       2.879336             0.00716762629            0.000309177194           
       2.881976             0.00712989549            0.000308108565           
       2.884617             0.00679675096            0.000299153141           
       2.887257             0.00569168588            0.000271847048           
       2.889897             0.00734941285            0.000312449683           
       2.892538             0.00693519036            0.000301412531           
       2.895178             0.00710390648            0.000301945926           
       2.897819             0.00692640099            0.000301216146           
       2.900459             0.00701895878            0.000300711506           
       2.903099             0.00688774465            0.000299442847           
       2.905740             0.00680231612            0.000294258353           
       2.908380             0.00696422252            0.000301708786           
       2.911021             0.00723756186            0.000308157394           
       2.913661             0.00642743513            0.000287203335           
       2.916301             0.00706165531            0.000305322347           
       2.918942             0.00708484347             0.00030120948           
       2.921582             0.00697084193            0.000301910958           
       2.924222             0.00713640855            0.000303703501           
       2.926863             0.00692566475            0.000299980292           
       2.929503             0.00780530099            0.000321996634           
       2.932144             0.00722391114            0.000304691814           
       2.934784             0.00709997796            0.000303350582           
       2.937424             0.00671049774            0.000295458324           
       2.940065             0.00674050535            0.000296359198           
       2.942705             0.00732085244            0.000309792309           
       2.945346             0.00716164752            0.000304595533           
       2.947986             0.00863854863            0.000335701692           
       2.950626             0.00963013261            0.000355535168           
       2.953267             0.00939154932            0.000347373505           
       2.955907             0.00774752016            0.000319678607           
       2.958547             0.00751014262            0.000311515854           
       2.961188             0.00677801018            0.000298525906           
       2.963828             0.00682093606            0.000297772601           
       2.966469              0.0070688221            0.000303210631           
       2.969109             0.00759835717            0.000315970259           
       2.971749             0.00864388489             0.00033601724           
       2.974390             0.00901442878             0.00034408541           
       2.977030             0.00882976527            0.000339894719           
       2.979670             0.00791876768             0.00031980821           
       2.982311             0.00746730579            0.000312799304           
       2.984951             0.00732434793            0.000310591645           
       2.987592             0.00762487066            0.000315829869           
       2.990232             0.00746321625            0.000313261872           
       2.992872             0.00864492705            0.000334513796           
       2.995513              0.0107036104            0.000375142792           
       2.998153              0.0162597224            0.000465351277           
       3.000794              0.0265520559            0.000586013135           
       3.003434              0.0236191433            0.000558561704           
       3.006074              0.0162850428            0.000465297737           
       3.008715              0.0143347446            0.000439871641           
       3.011355              0.0166053337            0.000478352428           
       3.013995              0.0156349088            0.000461894565           
       3.016636              0.0283453733            0.000623088581           
       3.019276               0.197957764             0.00168597615           
       3.021917               0.380704109             0.00229842403           
       3.024557               0.145443688             0.00143198087           
       3.027197              0.0791581502             0.00107415323           
       3.029838               0.172742804             0.00157919828           
       3.032478               0.105221352             0.00123986958           
       3.035118              0.0844566363             0.00111653079           
       3.037759              0.0746503151             0.00105155951           
       3.040399               0.068243689             0.00101692882           
       3.043040              0.0673416725             0.00101999731           
       3.045680              0.0526928643            0.000888366858           
       3.048320              0.0744853405             0.00107316264           
       3.050961              0.0743049898             0.00108261067           
       3.053601               0.107532096             0.00129660445           
       3.056242              0.0718931649             0.00106699648           
       3.058882               0.114727267             0.00136793481           
       3.061522               0.275600039             0.00210548549           
       3.064163              0.0630684535             0.00100903967           
       3.066803              0.0216191364            0.000602197763           
       3.069443              0.0261858905            0.000658341883           
       3.072084              0.0746515562             0.00112146602           
       3.074724              0.0689131065             0.00108386339           
       3.077365              0.0134679912            0.000478810866           
       3.080005             0.00963000093            0.000409369287           
       3.082645             0.00945819841            0.000407766903           
       3.085286             0.00844083117            0.000385282756           
       3.087926             0.00733038702              0.0003613307           
       3.090566             0.00770309393            0.000374217969           
       3.093207             0.00773845058            0.000371023427           
       3.095847             0.00894419922            0.000407243607           
       3.098488             0.00835174533            0.000392811305           
       3.101128             0.00750161191            0.000374310492           
       3.103768             0.00812624834            0.000391777595           
       3.106409             0.00893733952            0.000413616507           
       3.109049              0.0104089744            0.000449842827           
       3.111690              0.0145807369            0.000530314127           
       3.114330              0.0212860124            0.000646454203           
       3.116970              0.0173347034            0.000591491949           
       3.119611              0.0124113808            0.000497239433           
       3.122251             0.00975381988            0.000444411307           
       3.124891              0.0078746273            0.000401250925           
       3.127532             0.00860641552            0.000427037354           
       3.130172             0.00945487386            0.000438384574           
       3.132813              0.0071531261            0.000389068017           
       3.135453              0.0068790208            0.000389589068           
       3.138093             0.00655146249            0.000371179302           
       3.140734             0.00649458564            0.000376442557           
       3.143374              0.0071754117            0.000401730774           
       3.146014              0.0063056806            0.000373863984           
       3.148655             0.00668703181            0.000388034398           
       3.151295              0.0073716076            0.000410637535           
       3.153936             0.00617796245            0.000381473714           
       3.156576              0.0065485432            0.000388239784           
       3.159216             0.00658559279             0.00039252081           
       3.161857             0.00643034252              0.0003926246           
       3.164497             0.00622905786            0.000394578728           
       3.167138             0.00583343026            0.000372681679           
       3.169778             0.00625030905            0.000392734297           
       3.172418             0.00692771383            0.000415885151           
       3.175059             0.00583856308            0.000386792553           
       3.177699             0.00629371807            0.000399999995           
       3.180339              0.0061312265            0.000398331564           
       3.182980             0.00633965364             0.00041051354           
       3.185620             0.00688347797            0.000432432943           
       3.188261             0.00587178717            0.000394159961           
       3.190901             0.00631913706            0.000415199893           
       3.193541             0.00596090591            0.000404588199           
       3.196182             0.00588990104            0.000410539075           
       3.198822               0.005825474            0.000403338093           
       3.201463             0.00626662351             0.00042374108           
       3.204103             0.00564963884            0.000407698489           
       3.206743             0.00585419951            0.000418522582           
       3.209384             0.00560877915             0.00040782983           
       3.212024             0.00614703713            0.000428467421           
       3.214664             0.00629657463            0.000441913187           
       3.217305              0.0057829788            0.000433387595           
       3.219945             0.00609278192            0.000441124966           
       3.222586              0.0055865512            0.000424792241           
       3.225226             0.00591190291            0.000446831406           
       3.227866              0.0057199166            0.000442916397           
       3.230507             0.00589764836            0.000455111722           
       3.233147             0.00596990419            0.000451118449           
       3.235787             0.00510728923            0.000417368982           
       3.238428             0.00695046097             0.00049549007           
       3.241068             0.00478451641            0.000419435858           
       3.243709             0.00570866768            0.000455613596           
       3.246349             0.00551366387            0.000445259012           
       3.248989             0.00526661018            0.000445115867           
       3.251630             0.00644925675            0.000494742794           
       3.254270             0.00545150408            0.000468847282           
       3.256911             0.00605807766             0.00048185943           
       3.259551             0.00593001348            0.000487273758           
       3.262191             0.00510205404            0.000456136563           
       3.264832             0.00552338314            0.000479050116           
       3.267472             0.00705657615            0.000549150086           
       3.270112             0.00593849198            0.000505203904           
       3.272753              0.0053306048            0.000484530844           
       3.275393             0.00507630799             0.00047526613           
       3.278034             0.00603887149             0.00052893085           
       3.280674              0.0057910301            0.000519466479           
       3.283314             0.00566587419            0.000516661579           
       3.285955             0.00578832802             0.00053202372           
       3.288595             0.00560784686            0.000529505769           
       3.291235             0.00577168522            0.000540340664           
       3.293876             0.00600160003            0.000554260325           
       3.296516             0.00650641993            0.000588871089           
       3.299157             0.00565139445            0.000557111336           
       3.301797             0.00540253132            0.000544938322           
       3.304437             0.00543261455            0.000556696468           
       3.307078             0.00553908075            0.000567585761           
       3.309718             0.00607658038             0.00060042116           
       3.312359             0.00562343772            0.000589270956           
       3.314999             0.00660147952            0.000645159302           
       3.317639             0.00628270868             0.00063616718           
       3.320280             0.00525673007            0.000590407423           
       3.322920             0.00611244705            0.000646176612           
       3.325560             0.00577113354            0.000640000631           
       3.328201             0.00546789304            0.000625592945           
       3.330841             0.00559576597             0.00064825758           
       3.333482              0.0058154261            0.000669249666           
       3.336122             0.00614107676            0.000702680245           
       3.338762             0.00512296411              0.0006476648           
       3.341403             0.00581704977             0.00069654853           
       3.344043             0.00551258284             0.00070395498           
       3.346683             0.00583104247              0.0007313463           
       3.349324              0.0050562996            0.000691572567           
       3.351964             0.00647163506            0.000807552065           
       3.354605             0.00470921111            0.000696671191           
       3.357245             0.00504740331            0.000746605035           
       3.359885             0.00647959197             0.00084622687           
       3.362526             0.00566907563            0.000832005156           
       3.365166             0.00458838441            0.000739272452           
       3.367807             0.00645912413            0.000938931384           
       3.370447             0.00446583186             0.00078102794           
       3.373087             0.00555995655            0.000919745177           
       3.375728             0.00548948246            0.000906989162           
       3.378368              0.0041289011            0.000849979574           
       3.381008             0.00594968076             0.00101142729           
       3.383649              0.0057795737             0.00107883324           
       3.386289             0.00454656883            0.000957254406           
       3.388930             0.00743525937             0.00134441567           
       3.391570              0.0046052015              0.0010585025           
       3.394210             0.00544579164             0.00123333596           
       3.396851             0.00416960228             0.00116901822           
       3.399491             0.00660556089             0.00149809805           
       3.402131             0.00417378686             0.00140960789           
       3.404772             0.00463261963             0.00148570505           
       3.407412             0.00352472048             0.00160808619           
       3.410053             0.00377637325             0.00173321017           
       3.412693             0.00299585886             0.00218409474           
       3.415333             0.00880841627             0.00458861835           
