################################################################################
# EDF_DataBlockID                     0.Image.Psd
# EDF_BinarySize                      2105344
# EDF_HeaderSize                      2560
# ByteOrder                           LowByteFirst
# DataType                            FloatValue
# Dim_1                               512
# Dim_2                               1028
# Image                               0
# HeaderID                            EH:000000:000000:000000
# Size                                2105344
# Center_1                            304.9000
# Center_2                            588.7000
# Comment                             Xenocs_Cell_Window - front_window_open_only
# DDummy                              0.6
# Date                                2025-10-20T04:14:13
# Delta                               21.910000
# Dummy                               -1.5
# ExposureTime                        360
# Gamma                               15.360000
# Intensity1                          8.80119e-10
# PSize_1                             7.5e-05
# PSize_2                             7.5e-05
# Pressure                            0.0326633
# SampleDistance                      0.115750
# SampleEnvKind                       large
# SampleEnvPN                         ElectroChemical cell
# SampleEnvSN                         1141
# Thickness                           0
# Wavelength                          1.541891e-10
# Wavelength                          1.54189e-10
# aux                                 0
# aux_dial                            0.002375
# beamx                               588.429
# beamx_dial                          588.429
# beamz                               657.855
# beamz_dial                          657.855
# det0x                               -0.000396875
# det0x_dial                          6.36905
# det0xvd                             -0.0005
# det0xvd_dial                        -0.0005
# det0y                               450.002
# det0y_dial                          481.635
# det0z                               0
# det0z_dial                          1.2295
# det0zvd                             0
# det0zvd_dial                        0
# mag                                 1.818
# mag_dial                            1.818
# om                                  0.2499
# om_dial                             -0.610199
# phi                                 -0.0120535
# phi_dial                            0
# ry                                  0.599993
# ry_dial                             0.599993
# s1bot                               0.8
# s1bot_dial                          -1.66094
# s1hl                                0.8
# s1hl_dial                           -0.608437
# s1hr                                0.8
# s1hr_dial                           0.970938
# s1top                               0.8
# s1top_dial                          -0.461562
# s2bot                               0.45
# s2bot_dial                          1.36109
# s2hl                                0.45
# s2hl_dial                           -0.83375
# s2hr                                0.45
# s2hr_dial                           -0.118594
# s2top                               0.45
# s2top_dial                          1.44734
# w2theta                             32
# w2theta_dial                        32
# waxsch                              19.2605
# waxsch_dial                         -32.7238
# waxsh                               137.085
# waxsh_dial                          -43.5335
# waxsth                              26.0607
# waxsth_dial                         -19.4068
# waxsz                               67.0407
# waxsz_dial                          -23.7962
# wind                                65.9854
# wind_dial                           66.0041
# wpsi                                124
# wpsi_dial                           124
# wstod                               115
# wstod_dial                          115
# x                                   0
# x_dial                              1.00969
# z                                   0
# z_dial                              13.3172
# CountCutoff                         6807993
# DetectorModel                       Dectris EIGER2 Si 500K, S/N E-01-0554
# ThresholdSetting                    4023.88989258
# Saturation                          0
# FlatField                           Corrected
# BackgroundReductionExtra            0.02
# BackgroundCorrectionConstant        0.0026712
# Detector                            0
# Monitor                             0
# Pil_Roi0                            0
# SumForIntensity1                    3.16843e+08
# TransmittedFlux                     880119
# det                                 0
# mon                                 0
# pilai0                              3.16843e+08
# pilai1                              684146
# pilct0                              5.48088e+08
# pilct1                              684146
# pilroi0                             0
# pilroi1                             0
# sec                                 1
# title                               20251017__1_00528.edf
# usaxs0                              0
# Operation                           Azimuthal average I(q)
# Error_model                         ErrorModel.poisson
# Geometrical_correction              True
# Transmission_correction             True
# Thickness_correction                False
# Binning mode                        Uniform
# Binning factor                      1.0
# Psi                                 0.0
# Omega                               0.2499
# MaskInvalidPixels                   True
# DetectorEdge                        3
# MaskFiles                           ['20251017__1_00233_mask.edf']
################################################################################
    q(A⁻¹)                Intensity(a.u.)            Sigma_I(a.u.)            
       0.690460             0.00783598371             0.00822774761           
       0.693100             0.00644146682             0.00333514202           
       0.695741             0.00233217111             0.00169538475           
       0.698381             0.00725790603             0.00279730552           
       0.701021             0.00629820094              0.0021267055           
       0.703662             0.00715812165             0.00209865463           
       0.706302             0.00847814392             0.00220580787           
       0.708942             0.00881262569              0.0019976246           
       0.711583             0.00535074819             0.00155628426           
       0.714223             0.00572904064             0.00140328811           
       0.716864             0.00528987537             0.00137600598           
       0.719504             0.00482788019             0.00121661372           
       0.722144             0.00421277337             0.00109760028           
       0.724785             0.00569069223              0.0012547743           
       0.727425             0.00678994856             0.00127131793           
       0.730065             0.00721595953             0.00134852666           
       0.732706             0.00909454567             0.00136138463           
       0.735346             0.00677526919             0.00126924644           
       0.737987             0.00792365742             0.00118804657           
       0.740627             0.00634695638             0.00116482632           
       0.743267             0.00532631067            0.000917861583           
       0.745908             0.00633063375             0.00107243429           
       0.748548             0.00703971233             0.00105476269           
       0.751189             0.00613781954            0.000975603582           
       0.753829             0.00755154099             0.00109190342           
       0.756469             0.00803228892             0.00105917111           
       0.759110             0.00767825635             0.00107112797           
       0.761750             0.00631634069            0.000889121291           
       0.764390             0.00657184994             0.00097353557           
       0.767031             0.00596143918            0.000839027927           
       0.769671             0.00525943966            0.000835785349           
       0.772312             0.00689174491            0.000871838082           
       0.774952             0.00667739805             0.00092000711           
       0.777592             0.00706006055            0.000865260431           
       0.780233              0.0067603402            0.000892593574           
       0.782873             0.00664434881            0.000809197378           
       0.785513             0.00731904455             0.00090344111           
       0.788154             0.00569039147            0.000731692757           
       0.790794             0.00608628898            0.000783181219           
       0.793435             0.00720335482            0.000818363624           
       0.796075             0.00811874447            0.000873397284           
       0.798715             0.00774952014            0.000848434655           
       0.801356             0.00634830731            0.000747358766           
       0.803996             0.00765634199            0.000833865886           
       0.806637             0.00555940491            0.000671665152           
       0.809277              0.0062818852            0.000746935414           
       0.811917             0.00737421579            0.000765809084           
       0.814558             0.00631191264            0.000725818169           
       0.817198             0.00718407694            0.000738335775           
       0.819838             0.00812919872            0.000819258918           
       0.822479             0.00697895985            0.000699541448           
       0.825119             0.00562387283            0.000674596346           
       0.827760             0.00546530163            0.000616207323           
       0.830400             0.00651931661            0.000709100128           
       0.833040             0.00774348716            0.000721255368           
       0.835681             0.00702976283            0.000719658096           
       0.838321              0.0064278088            0.000644101905           
       0.840961             0.00693047989            0.000699072608           
       0.843602             0.00777583705             0.00069750419           
       0.846242             0.00740166758            0.000704542132           
       0.848883             0.00674695111            0.000654347637           
       0.851523             0.00628505219            0.000636285158           
       0.854163             0.00668843942            0.000648760985           
       0.856804             0.00683375971            0.000638991714           
       0.859444             0.00724567216            0.000662698593           
       0.862085              0.0069628749              0.0006401875           
       0.864725             0.00723886711            0.000650355495           
       0.867365             0.00664581088            0.000618682916           
       0.870006             0.00611812966            0.000601895273           
       0.872646             0.00637408657            0.000587619382           
       0.875286             0.00667508769            0.000621823155           
       0.877927             0.00653964507            0.000589298868           
       0.880567             0.00703210197            0.000623022244           
       0.883208             0.00678008223            0.000594088748           
       0.885848             0.00686857935            0.000613460231           
       0.888488             0.00734622258             0.00060323077           
       0.891129             0.00630508757            0.000587453634           
       0.893769             0.00789208804            0.000621255117           
       0.896410              0.0077565467            0.000634868912           
       0.899050              0.0067775605            0.000572205237           
       0.901690             0.00721889758            0.000602868467           
       0.904331             0.00770307879            0.000601015701           
       0.906971             0.00712193685             0.00059673707           
       0.909611             0.00581023463             0.00051733989           
       0.912252             0.00672696968            0.000566304366           
       0.914892               0.007828151            0.000595426151           
       0.917533              0.0062006838            0.000541886848           
       0.920173             0.00659058495            0.000535897837           
       0.922813             0.00662278902             0.00056138938           
       0.925454             0.00733052817            0.000560537685           
       0.928094             0.00772244702            0.000587676109           
       0.930734             0.00724329243            0.000555569192           
       0.933375             0.00746836805            0.000576160811           
       0.936015             0.00721134525            0.000541711114           
       0.938656             0.00748593789            0.000575079324           
       0.941296             0.00625302375            0.000506670224           
       0.943936             0.00672569644            0.000534934873           
       0.946577              0.0077770022            0.000553978046           
       0.949217             0.00762646906            0.000567964532           
       0.951858              0.0074189456            0.000529587964           
       0.954498             0.00653545418            0.000522924003           
       0.957138             0.00757377604            0.000541062391           
       0.959779             0.00767329617            0.000556517671           
       0.962419             0.00747889818            0.000528927062           
       0.965059             0.00694306258            0.000524102774           
       0.967700             0.00699736786             0.00050913389           
       0.970340             0.00714007131            0.000528750941           
       0.972981             0.00766241945            0.000528868924           
       0.975621             0.00746367773              0.0005328942           
       0.978261             0.00680323272            0.000485431183           
       0.980902             0.00770805365            0.000541307628           
       0.983542              0.0066343054            0.000487569273           
       0.986182             0.00715023791            0.000512838769           
       0.988823             0.00671972455            0.000481119018           
       0.991463             0.00678993589            0.000495177381           
       0.994104             0.00713693626            0.000490560463           
       0.996744             0.00757610202            0.000521818717           
       0.999384             0.00830398042            0.000527768951           
       1.002025             0.00755332802            0.000517364455           
       1.004665             0.00694830998            0.000475885871           
       1.007306             0.00751262961            0.000511414539           
       1.009946             0.00847377709            0.000522250813           
       1.012586             0.00703596694            0.000489574612           
       1.015227             0.00712020716            0.000477589075           
       1.017867             0.00864342256            0.000541279259           
       1.020507             0.00813497061            0.000505349147           
       1.023148             0.00833572825            0.000517725436           
       1.025788             0.00737215657            0.000481897876           
       1.028429             0.00833036621            0.000523457593           
       1.031069             0.00785723124            0.000489794179           
       1.033709             0.00805207474            0.000505351325           
       1.036350             0.00764349152            0.000479452271           
       1.038990             0.00805296955            0.000504276909           
       1.041630              0.0078107976            0.000487082073           
       1.044271             0.00846291112            0.000507064383           
       1.046911             0.00811586177            0.000487332664           
       1.049552             0.00786062489              0.0004968923           
       1.052192             0.00837152482            0.000489726597           
       1.054832              0.0077266153            0.000479634852           
       1.057473             0.00848922024            0.000496382959           
       1.060113             0.00860986176            0.000505310841           
       1.062754             0.00766335048            0.000471454493           
       1.065394             0.00843263521            0.000489348804           
       1.068034             0.00829452337            0.000483445979           
       1.070675             0.00776769952            0.000476069955           
       1.073315             0.00771490068            0.000459946859           
       1.075955             0.00853663184            0.000491936533           
       1.078596             0.00914594726            0.000508183856           
       1.081236             0.00783790719            0.000463464881           
       1.083877             0.00761300415             0.00047103594           
       1.086517              0.0077123673            0.000463375118           
       1.089157              0.0085261236            0.000490780368           
       1.091798             0.00868298504            0.000484780899           
       1.094438              0.0082190791            0.000479148954           
       1.097078             0.00843997837            0.000473067858           
       1.099719             0.00944718801            0.000513327269           
       1.102359             0.00836857878            0.000457683559           
       1.105000             0.00875642352            0.000486607422           
       1.107640             0.00804256228            0.000451148735           
       1.110280               0.007706758            0.000450472795           
       1.112921             0.00777634179            0.000444314156           
       1.115561             0.00795448043            0.000455077318           
       1.118202             0.00805283588            0.000444518031           
       1.120842             0.00808403898            0.000459411257           
       1.123482             0.00907636385             0.00047313661           
       1.126123              0.0092131602            0.000479663712           
       1.128763             0.00751080886            0.000430939666           
       1.131403             0.00822877702            0.000450365498           
       1.134044             0.00928361588            0.000477531028           
       1.136684             0.00876724238            0.000467547902           
       1.139325             0.00835167052            0.000443474997           
       1.141965             0.00899527814            0.000466265021           
       1.144605             0.00884680035            0.000465116954           
       1.147246             0.00873149071             0.00045332466           
       1.149886             0.00902228457            0.000464088842           
       1.152527             0.00962857461            0.000479908919           
       1.155167             0.00925824509            0.000463972925           
       1.157807             0.00849347655             0.00044470308           
       1.160448             0.00817948635             0.00044237673           
       1.163088             0.00845242523            0.000433013317           
       1.165728             0.00891961654            0.000463153968           
       1.168369             0.00851577968            0.000436392127           
       1.171009             0.00833804565            0.000435394224           
       1.173650             0.00879560458            0.000443956356           
       1.176290             0.00912763637            0.000457565012           
       1.178930             0.00860912165             0.00043188654           
       1.181571             0.00904697062            0.000457193287           
       1.184211             0.00834555986            0.000425850799           
       1.186851             0.00911815309            0.000449230517           
       1.189492             0.00899748357            0.000448726078           
       1.192132             0.00901025989            0.000442394104           
       1.194773             0.00904719933            0.000440625563           
       1.197413              0.0090085548            0.000443270177           
       1.200053             0.00954495137            0.000453405423           
       1.202694             0.00833430771            0.000420484025           
       1.205334             0.00859026505            0.000431558582           
       1.207975             0.00929205471            0.000440046398           
       1.210615             0.00932803034            0.000450220714           
       1.213255             0.00892416291            0.000428716451           
       1.215896             0.00935078405            0.000447162581           
       1.218536             0.00907882793             0.00042792133           
       1.221176             0.00906110665            0.000437707485           
       1.223817             0.00872551021             0.00042057505           
       1.226457             0.00905631363            0.000433915673           
       1.229098             0.00959184249            0.000439786129           
       1.231738             0.00923912512            0.000437702282           
       1.234378             0.00981009122            0.000442260707           
       1.237019             0.00876151961            0.000421328157           
       1.239659             0.00952703992            0.000439111404           
       1.242299             0.00933275858            0.000432389151           
       1.244940             0.00974772372            0.000437127364           
       1.247580              0.0105312474            0.000456362216           
       1.250221             0.00944426729             0.00043922377           
       1.252861             0.00894448081            0.000411518983           
       1.255501              0.0098004784            0.000442922725           
       1.258142              0.0104736337            0.000448829132           
       1.260782             0.00950950108            0.000432503236           
       1.263423              0.0110517197            0.000457019675           
       1.266063             0.00972392659            0.000436677638           
       1.268703              0.0105888281            0.000444203329           
       1.271344              0.0093565376            0.000426651078           
       1.273984             0.00892533493            0.000410198799           
       1.276624              0.0101175434            0.000434071946           
       1.279265             0.00990062916            0.000430331114           
       1.281905              0.0106871871            0.000449854168           
       1.284546              0.0104524354            0.000440025928           
       1.287186              0.0104812236            0.000441054784           
       1.289826               0.010371492            0.000441015097           
       1.292467              0.0103594775            0.000432892863           
       1.295107             0.00959862888            0.000424037708           
       1.297747              0.0104211921            0.000430244356           
       1.300388              0.0100723668            0.000433844211           
       1.303028             0.00973085246            0.000415582149           
       1.305669              0.0097219854            0.000420759625           
       1.308309               0.009758818            0.000415217385           
       1.310949               0.010130769            0.000428329217           
       1.313590              0.0107437678            0.000434271368           
       1.316230              0.0106478839             0.00044011112           
       1.318871              0.0106348835            0.000430353402           
       1.321511              0.0106658835            0.000433139949           
       1.324151              0.0106674028            0.000434882449           
       1.326792              0.0106080718            0.000430158397           
       1.329432              0.0102350662            0.000424732044           
       1.332072              0.0106111838            0.000425049919           
       1.334713              0.0109146874            0.000436432026           
       1.337353              0.0110521594            0.000432416397           
       1.339994              0.0111697614            0.000440902732           
       1.342634              0.0114231738            0.000435838382           
       1.345274              0.0109480637            0.000432256568           
       1.347915              0.0112501988            0.000439345426           
       1.350555              0.0106602654            0.000426000393           
       1.353195              0.0109934362            0.000424330252           
       1.355836              0.0104514915             0.00042154532           
       1.358476              0.0109836029            0.000430927674           
       1.361117              0.0106843433            0.000414354663           
       1.363757              0.0116180581            0.000446400389           
       1.366397              0.0109499701            0.000419879731           
       1.369038              0.0102068701            0.000413926571           
       1.371678              0.0110793346            0.000422546752           
       1.374319              0.0111804884            0.000427837812           
       1.376959              0.0104468732            0.000407869756           
       1.379599              0.0110471384            0.000427599362           
       1.382240              0.0102123849            0.000403317986           
       1.384880               0.010912378            0.000422030156           
       1.387520               0.010334726            0.000405906171           
       1.390161              0.0102866233            0.000403859765           
       1.392801              0.0102513368            0.000405569432           
       1.395442              0.0112511247            0.000420484082           
       1.398082              0.0111957792               0.000420884           
       1.400722              0.0106468195            0.000408581586           
       1.403363             0.00973758143            0.000394371911           
       1.406003              0.0105274162            0.000399985305           
       1.408644              0.0108676577            0.000414929381           
       1.411284              0.0106981463            0.000409422942           
       1.413924               0.010463724            0.000399918318           
       1.416565              0.0102733397            0.000395797595           
       1.419205              0.0111951029             0.00041724242           
       1.421845              0.0106503274            0.000401847656           
       1.424486              0.0110837652            0.000411752928           
       1.427126              0.0108556557            0.000407236753           
       1.429767              0.0100803035            0.000386376963           
       1.432407              0.0101790411             0.00039804559           
       1.435047              0.0110776681            0.000402765841           
       1.437688              0.0108832964            0.000408057291           
       1.440328              0.0102570995            0.000388467336           
       1.442968              0.0108450298            0.000404975064           
       1.445609              0.0100064663            0.000382604937           
       1.448249              0.0106105759            0.000396532446           
       1.450890              0.0107754029            0.000396749926           
       1.453530              0.0110312273            0.000404405479           
       1.456170              0.0103316565            0.000390491188           
       1.458811              0.0102476293            0.000385806008           
       1.461451              0.0104103974            0.000391716362           
       1.464092             0.00954429308              0.0003717986           
       1.466732               0.010800673            0.000393087563           
       1.469372              0.0105107323            0.000386583532           
       1.472013              0.0101682955            0.000387036726           
       1.474653              0.0104762068            0.000383152819           
       1.477293               0.010891643            0.000397251941           
       1.479934             0.00983038531            0.000373452283           
       1.482574              0.0102610284            0.000380602944           
       1.485215             0.00968418263            0.000370702105           
       1.487855              0.0103401088            0.000382971448           
       1.490495              0.0103532729            0.000382390337           
       1.493136              0.0102896673            0.000376214627           
       1.495776              0.0104762303            0.000386228254           
       1.498416             0.00987494416            0.000367695831           
       1.501057             0.00955865569            0.000364870977           
       1.503697              0.0107876623            0.000383891738           
       1.506338              0.0101988379            0.000376012767           
       1.508978               0.009566731            0.000362023868           
       1.511618             0.00922738289            0.000355365414           
       1.514259              0.0101826642            0.000373981613           
       1.516899              0.0103623168            0.000377441951           
       1.519540             0.00962215355            0.000361693823           
       1.522180              0.0100359592            0.000364776317           
       1.524820              0.0101097059            0.000373508704           
       1.527461              0.0102464489            0.000367707832           
       1.530101               0.010195855             0.00037059134           
       1.532741               0.010296856            0.000370657887           
       1.535382             0.00973322448            0.000361164171           
       1.538022             0.00936542155            0.000351140085           
       1.540663              0.0098658105            0.000363804757           
       1.543303               0.010481616            0.000370320467           
       1.545943              0.0103947576            0.000370849686           
       1.548584             0.00986865441            0.000363267215           
       1.551224              0.0102363069             0.00036048701           
       1.553864              0.0101486221             0.00036831644           
       1.556505              0.0102758361            0.000364916481           
       1.559145             0.00954462697            0.000352506571           
       1.561786             0.00988995499            0.000357201239           
       1.564426             0.00990783857            0.000357201117           
       1.567066               0.009661086            0.000349972001           
       1.569707             0.00929640026            0.000348273264           
       1.572347               0.009369925            0.000345111385           
       1.574988             0.00973714126            0.000350417247           
       1.577628             0.00900388293            0.000344551588           
       1.580268             0.00890332716             0.00033079838           
       1.582909             0.00943637627            0.000346926818           
       1.585549             0.00952793207            0.000345347942           
       1.588189             0.00939734701            0.000346803862           
       1.590830             0.00909700853            0.000335359749           
       1.593470             0.00881328051            0.000332784125           
       1.596111             0.00941133845            0.000340918498           
       1.598751             0.00934191736            0.000343131056           
       1.601391             0.00911611496            0.000336791648           
       1.604032             0.00890550295            0.000330098603           
       1.606672             0.00934962755            0.000345037072           
       1.609312             0.00852253823            0.000319620347           
       1.611953             0.00927169147            0.000338203585           
       1.614593             0.00783414501            0.000308516768           
       1.617234             0.00858755353             0.00032484224           
       1.619874             0.00830647079            0.000315723281           
       1.622514              0.0085028072            0.000322257906           
       1.625155             0.00826014729            0.000316840691           
       1.627795             0.00810337417            0.000310648361           
       1.630436             0.00899392934            0.000330563075           
       1.633076              0.0087432819            0.000324268469           
       1.635716              0.0087447772            0.000323730665           
       1.638357             0.00853394712            0.000318445649           
       1.640997             0.00827643589            0.000316056813           
       1.643637             0.00866704368            0.000317423246           
       1.646278             0.00849510018            0.000318962773           
       1.648918             0.00876721136            0.000319853519           
       1.651559             0.00904740587            0.000329009823           
       1.654199             0.00785266634            0.000302316061           
       1.656839             0.00834782374            0.000311617856           
       1.659480             0.00780041505            0.000303880439           
       1.662120             0.00880047544            0.000318447547           
       1.664761             0.00855698506            0.000317411115           
       1.667401             0.00833766713            0.000310398221           
       1.670041              0.0082288253            0.000308718446           
       1.672682             0.00851382937            0.000311064276           
       1.675322             0.00858418985            0.000317869578           
       1.677962             0.00796168024            0.000300047341           
       1.680603             0.00875282505            0.000317394121           
       1.683243             0.00850231199             0.00031050496           
       1.685884              0.0083688279            0.000309230163           
       1.688524             0.00814410225            0.000304191823           
       1.691164              0.0081543258            0.000303600343           
       1.693805             0.00893049504            0.000320290346           
       1.696445             0.00819181933            0.000302500651           
       1.699085             0.00892832238            0.000317067321           
       1.701726             0.00864044751            0.000307856628           
       1.704366             0.00849079228            0.000312604586           
       1.707007             0.00878228161            0.000311140847           
       1.709647             0.00833910889            0.000306955951           
       1.712287             0.00803890188            0.000296343471           
       1.714928             0.00824530287            0.000303141552           
       1.717568             0.00841473908            0.000303424336           
       1.720209             0.00904614679            0.000316545009           
       1.722849             0.00852086904            0.000307709839           
       1.725489             0.00844151279            0.000301391963           
       1.728130             0.00852714174            0.000309083175           
       1.730770             0.00891312523            0.000309321636           
       1.733410             0.00818294987            0.000300271707           
       1.736051             0.00795878314            0.000291533761           
       1.738691             0.00830801531            0.000300901673           
       1.741332             0.00820651453             0.00029721699           
       1.743972             0.00882340014            0.000308299842           
       1.746612             0.00832802415            0.000299589234           
       1.749253             0.00830143378            0.000300403214           
       1.751893             0.00813754288            0.000295638693           
       1.754533             0.00842640608            0.000296711192           
       1.757174             0.00843322026            0.000302380884           
       1.759814             0.00848402968            0.000298666597           
       1.762455              0.0080864519            0.000294066979           
       1.765095             0.00837424299            0.000295051547           
       1.767735             0.00845443996            0.000301498546           
       1.770376             0.00852229915            0.000298115502           
       1.773016             0.00805861776            0.000290349659           
       1.775657             0.00798773996            0.000289662224           
       1.778297             0.00812806616            0.000293624922           
       1.780937             0.00883043362            0.000304620382           
       1.783578             0.00819935131            0.000292155163           
       1.786218             0.00820468153            0.000296913696           
       1.788858             0.00824599103            0.000290264775           
       1.791499             0.00822447167            0.000295228419           
       1.794139             0.00866616124            0.000297456117           
       1.796780             0.00854404758            0.000297107919           
       1.799420             0.00856864391            0.000297156455           
       1.802060             0.00931537905            0.000306023451           
       1.804701             0.00894172308            0.000303845449           
       1.807341             0.00943536402            0.000309104003           
       1.809981             0.00913683262            0.000306194834           
       1.812622             0.00927969077            0.000306898069           
       1.815262             0.00927249266            0.000307872861           
       1.817903             0.00935495345            0.000305418297           
       1.820543             0.00872164995             0.00029854415           
       1.823183             0.00891673329            0.000297213416           
       1.825824             0.00884081358            0.000300395951           
       1.828464             0.00889106184            0.000300324134           
       1.831105             0.00824836234            0.000290385812           
       1.833745             0.00925196437            0.000307352919           
       1.836385             0.00879321384             0.00029847075           
       1.839026             0.00822691089            0.000293039562           
       1.841666             0.00868146724            0.000297117551           
       1.844306             0.00911273145            0.000308251021           
       1.846947             0.00903046538            0.000302913138           
       1.849587             0.00908728536            0.000307985883           
       1.852228             0.00871644773             0.00029842807           
       1.854868             0.00859837626            0.000301836135           
       1.857508             0.00868162837            0.000297693578           
       1.860149             0.00859534737            0.000298584862           
       1.862789             0.00894083204            0.000305873969           
       1.865429             0.00915320613            0.000310418464           
       1.868070             0.00929492116            0.000311731367           
       1.870710             0.00920026726            0.000310984677           
       1.873351             0.00907638843            0.000310855866           
       1.875991             0.00947150138            0.000319267602           
       1.878631             0.00849828681             0.00029960956           
       1.881272             0.00847362008            0.000298473622           
       1.883912             0.00892202496            0.000309860963           
       1.886553             0.00906906587            0.000308656451           
       1.889193              0.0088174182            0.000307859708           
       1.891833               0.009071037            0.000308702428           
       1.894474             0.00868544248            0.000304460697           
       1.897114             0.00891439519            0.000306054931           
       1.899754             0.00850208393            0.000302245312           
       1.902395             0.00919232076            0.000314341731           
       1.905035             0.00914243971            0.000312259169           
       1.907676             0.00931469535            0.000315553553           
       1.910316             0.00995055708            0.000328225851           
       1.912956             0.00876093107            0.000307968968           
       1.915597             0.00881850128            0.000305757951           
       1.918237             0.00918389154            0.000316764649           
       1.920878             0.00901393784            0.000308266144           
       1.923518             0.00904983903            0.000317085917           
       1.926158             0.00926767543            0.000313505979           
       1.928799             0.00849717149             0.00030418004           
       1.931439              0.0091074881            0.000312390917           
       1.934079              0.0088892115            0.000311750123           
       1.936720             0.00827849046             0.00029907967           
       1.939360             0.00918173161            0.000318008861           
       1.942001             0.00854036802            0.000305521144           
       1.944641             0.00920997576            0.000315905183           
       1.947281             0.00906655091            0.000314950088           
       1.949922             0.00855751526            0.000306364016           
       1.952562             0.00918268952            0.000320088451           
       1.955202             0.00848405629            0.000299941025           
       1.957843             0.00837899306            0.000307547024           
       1.960483             0.00874344209            0.000309153143           
       1.963124             0.00903005882             0.00031394644           
       1.965764             0.00823526266            0.000299919183           
       1.968404             0.00835128992            0.000307425434           
       1.971045             0.00873274755            0.000306487777           
       1.973685             0.00845422766            0.000307188164           
       1.976326             0.00931227341            0.000320994627           
       1.978966             0.00835190274            0.000305430812           
       1.981606             0.00824534731             0.00030026675           
       1.984247             0.00858184283            0.000309003601           
       1.986887              0.0080005024            0.000301144338           
       1.989527             0.00825241836            0.000299476865           
       1.992168             0.00809937083             0.00030384502           
       1.994808             0.00851274478            0.000307879073           
       1.997449             0.00810893423            0.000300047423           
       2.000089             0.00833815429            0.000302467099           
       2.002729             0.00833836631            0.000309401893           
       2.005370             0.00819041383            0.000300815511           
       2.008010             0.00823926574            0.000305717008           
       2.010650             0.00808723975            0.000302016964           
       2.013291             0.00846814739            0.000310806678           
       2.015931             0.00791485543            0.000298330843           
       2.018572             0.00807874864             0.00030540677           
       2.021212             0.00785165922            0.000298381622           
       2.023852             0.00785759115            0.000300062368           
       2.026493             0.00794438559            0.000300392835           
       2.029133             0.00779028107            0.000295195871           
       2.031774             0.00782266615            0.000298677471           
       2.034414             0.00795187198            0.000299336862           
       2.037054             0.00737142421            0.000291838845           
       2.039695             0.00807667645            0.000299463498           
       2.042335             0.00793872859            0.000301948669           
       2.044975             0.00727433618            0.000286727563           
       2.047616             0.00783429283            0.000298833761           
       2.050256             0.00777213419            0.000294144706           
       2.052897             0.00757435111            0.000298978072           
       2.055537              0.0077899702            0.000294937204           
       2.058177             0.00709670202            0.000283994115           
       2.060818             0.00769205122            0.000296554147           
       2.063458             0.00729567956            0.000289210163           
       2.066098             0.00776385534            0.000297021443           
       2.068739             0.00694243169             0.00028379824           
       2.071379             0.00789674594             0.00029820617           
       2.074020             0.00750760253            0.000294747404           
       2.076660             0.00765012472            0.000295515138           
       2.079300             0.00714747216            0.000285600384           
       2.081941             0.00792063761            0.000302478777           
       2.084581             0.00776695912            0.000299751887           
       2.087222             0.00794215607            0.000303320234           
       2.089862             0.00807361719            0.000302008511           
       2.092502             0.00765241313            0.000299367456           
       2.095143             0.00762455584            0.000294551336           
       2.097783             0.00715088019            0.000289595808           
       2.100423              0.0080865787             0.00030205542           
       2.103064             0.00782091922            0.000302181273           
       2.105704             0.00796648131            0.000303813651           
       2.108345             0.00784959787            0.000302961187           
       2.110985             0.00777814352            0.000297343159           
       2.113625             0.00796426127             0.00030562016           
       2.116266             0.00743754788            0.000293155305           
       2.118906             0.00793589404            0.000302597204           
       2.121546             0.00737489792            0.000291474134           
       2.124187              0.0074007629            0.000296023442           
       2.126827             0.00742395314             0.00029183712           
       2.129468             0.00785637409            0.000303349068           
       2.132108             0.00774654206            0.000300597894           
       2.134748             0.00755115348            0.000295664265           
       2.137389             0.00755123279            0.000298142206           
       2.140029             0.00751408252            0.000296685668           
       2.142670             0.00779022461            0.000302581677           
       2.145310              0.0076410418            0.000300815339           
       2.147950             0.00806818522            0.000310303944           
       2.150591             0.00714188023            0.000289270669           
       2.153231             0.00774186429            0.000305629047           
       2.155871             0.00769509143            0.000300303802           
       2.158512             0.00763828615            0.000304584565           
       2.161152             0.00766265777            0.000297449502           
       2.163793              0.0068131789             0.00028504152           
       2.166433             0.00767081809            0.000297205557           
       2.169073             0.00743000377            0.000299332455           
       2.171714             0.00799558239            0.000304194583           
       2.174354             0.00755150695            0.000300143881           
       2.176995             0.00724660374            0.000291583115           
       2.179635             0.00692869299            0.000290511326           
       2.182275             0.00800032873            0.000305973278           
       2.184916             0.00745925418            0.000301689636           
       2.187556             0.00744914436             0.00029663148           
       2.190196             0.00741351355            0.000300572464           
       2.192837             0.00801971146            0.000309196465           
       2.195477             0.00723788876            0.000296572111           
       2.198118             0.00709275556            0.000288163566           
       2.200758             0.00708976443             0.00029257683           
       2.203398             0.00741274677            0.000294205724           
       2.206039             0.00715237953            0.000293409872           
       2.208679              0.0075796487            0.000299089903           
       2.211319              0.0074591477            0.000298099489           
       2.213960             0.00731092927            0.000291985036           
       2.216600             0.00749341118            0.000302571528           
       2.219241             0.00761156767            0.000300514238           
       2.221881             0.00730391386            0.000295912761           
       2.224521             0.00747628386            0.000298345713           
       2.227162             0.00783879932            0.000310291645           
       2.229802             0.00750269162              0.0002986389           
       2.232443             0.00756413503             0.00030103812           
       2.235083             0.00696776703            0.000287194862           
       2.237723             0.00691104004            0.000288215327           
       2.240364             0.00732200073            0.000295151923           
       2.243004             0.00755604794            0.000300737892           
       2.245644             0.00766167286             0.00030213327           
       2.248285             0.00728088416            0.000296441468           
       2.250925             0.00780348029             0.00030546078           
       2.253566             0.00772177214            0.000304600366           
       2.256206             0.00705345605            0.000290248542           
       2.258846             0.00740902932            0.000297477138           
       2.261487             0.00755067987            0.000300826845           
       2.264127             0.00718403626            0.000296208615           
       2.266767             0.00703936938            0.000288471871           
       2.269408             0.00707239535            0.000292581932           
       2.272048             0.00719605826            0.000293313345           
       2.274689             0.00713553232            0.000293225741           
       2.277329              0.0072455203            0.000295084379           
       2.279969             0.00757810272            0.000302695531           
       2.282610             0.00751318738            0.000298457042           
       2.285250             0.00750719916            0.000303030204           
       2.287891             0.00697424987             0.00028912852           
       2.290531             0.00697608463            0.000290592522           
       2.293171             0.00772695538             0.00030581681           
       2.295812             0.00730439789             0.00029575914           
       2.298452              0.0072521347            0.000296586625           
       2.301092             0.00704444967            0.000294165792           
       2.303733             0.00672134014            0.000281656879           
       2.306373             0.00703447951            0.000295190956           
       2.309014             0.00659945853            0.000280408129           
       2.311654              0.0077519395            0.000306791879           
       2.314294              0.0072689151            0.000296431472           
       2.316935             0.00695884524             0.00029118646           
       2.319575             0.00737480831            0.000298640454           
       2.322215             0.00727985057            0.000300939659           
       2.324856             0.00753079968            0.000298396206           
       2.327496              0.0074422919            0.000303907467           
       2.330137             0.00733914518            0.000296228275           
       2.332777             0.00748016042            0.000302331499           
       2.335417             0.00727266425            0.000297213801           
       2.338058             0.00717878587            0.000296471133           
       2.340698             0.00698380087            0.000289538056           
       2.343339             0.00712829365            0.000298099996           
       2.345979             0.00663464412            0.000281853959           
       2.348619              0.0068955037            0.000292767844           
       2.351260             0.00751207649            0.000299081091           
       2.353900             0.00778064028            0.000310827904           
       2.356540             0.00711319881            0.000293109835           
       2.359181             0.00718504916            0.000298525719           
       2.361821             0.00704284655            0.000291955674           
       2.364462             0.00772822892             0.00031094323           
       2.367102             0.00738174109            0.000295105012           
       2.369742             0.00715080835            0.000300861148           
       2.372383             0.00711888437            0.000291438041           
       2.375023             0.00754739761            0.000307899637           
       2.377663             0.00674332695            0.000284851948           
       2.380304             0.00663306255              0.0002864324           
       2.382944             0.00721315034            0.000295773208           
       2.385585             0.00682148738            0.000290350295           
       2.388225             0.00684456511            0.000289526934           
       2.390865              0.0070657032            0.000294920133           
       2.393506             0.00680207384            0.000288032399           
       2.396146             0.00703382349            0.000293868809           
       2.398787              0.0071575803            0.000296702076           
       2.401427             0.00699835015            0.000291601828           
       2.404067             0.00678626112            0.000291532021           
       2.406708             0.00722128403            0.000296951103           
       2.409348             0.00668828828            0.000287932091           
       2.411988             0.00685036244            0.000290469211           
       2.414629             0.00672557541            0.000288753141           
       2.417269             0.00716823921            0.000295397086           
       2.419910             0.00670339229            0.000289260962           
       2.422550             0.00692033731            0.000289443027           
       2.425190             0.00692536636            0.000298664576           
       2.427831             0.00708707405            0.000290768596           
       2.430471             0.00704792604            0.000298440473           
       2.433112             0.00718210759            0.000294159221           
       2.435752              0.0072613925            0.000303266381           
       2.438392             0.00755148008            0.000304066541           
       2.441033             0.00718448996            0.000297945014           
       2.443673              0.0067916807            0.000290459085           
       2.446313             0.00743620261            0.000302309543           
       2.448954             0.00685895036            0.000292886428           
       2.451594             0.00730213569            0.000300387375           
       2.454235             0.00740258523            0.000301505328           
       2.456875              0.0072176151            0.000299222631           
       2.459515             0.00759914769            0.000307502845           
       2.462156             0.00771607665            0.000308262314           
       2.464796             0.00814023996            0.000322206758           
       2.467436             0.00759369137            0.000304676686           
       2.470077             0.00762021102             0.00030941693           
       2.472717             0.00732173646            0.000299501631           
       2.475358             0.00715599656            0.000299446943           
       2.477998             0.00717907616            0.000298329285           
       2.480638             0.00740934878            0.000303812461           
       2.483279             0.00722021614            0.000301198211           
       2.485919             0.00780952655            0.000311055611           
       2.488560             0.00688848864            0.000293349503           
       2.491200              0.0072018842            0.000299537092           
       2.493840             0.00654049787            0.000283897742           
       2.496481             0.00718921071            0.000301536249           
       2.499121             0.00659694885            0.000285002854           
       2.501761             0.00678381747            0.000293918808           
       2.504402             0.00712808351            0.000295510599           
       2.507042             0.00745192354            0.000307171502           
       2.509683             0.00707286825            0.000296531835           
       2.512323             0.00698371816            0.000295810848           
       2.514963              0.0130239685            0.000404767166           
       2.517604              0.0150940978            0.000434043866           
       2.520244             0.00873749494            0.000330307517           
       2.522884              0.0077082829            0.000309565646           
       2.525525              0.0075920435            0.000309746233           
       2.528165               0.017905414             0.00047351187           
       2.530806              0.0321884369            0.000632492436           
       2.533446              0.0162403485            0.000453258005           
       2.536086             0.00876106467            0.000330115528           
       2.538727             0.00884169963             0.00033375725           
       2.541367             0.00889649293            0.000333832509           
       2.544008             0.00739004316            0.000304516226           
       2.546648             0.00659605404            0.000288019523           
       2.549288             0.00702341731             0.00029724638           
       2.551929              0.0070753607            0.000299329011           
       2.554569             0.00759279428            0.000307247536           
       2.557209             0.00683017172            0.000294701864           
       2.559850             0.00717010779            0.000298474313           
       2.562490             0.00687632193            0.000294423819           
       2.565131             0.00739191462            0.000305793519           
       2.567771             0.00750727206            0.000306537062           
       2.570411             0.00701780564            0.000299982268           
       2.573052              0.0070158187            0.000296438629           
       2.575692             0.00715141156            0.000300083451           
       2.578332             0.00734992376            0.000303321188           
       2.580973             0.00659592886            0.000289671911           
       2.583613             0.00748721924            0.000305810844           
       2.586254             0.00673805734            0.000292674731           
       2.588894             0.00697851986            0.000296262489           
       2.591534             0.00665961929            0.000289946457           
       2.594175             0.00722943195            0.000303849748           
       2.596815             0.00683316395            0.000292658377           
       2.599456             0.00684506844            0.000295309733           
       2.602096             0.00642163507            0.000284959663           
       2.604736             0.00723391872            0.000303238896           
       2.607377             0.00700145889            0.000297186027           
       2.610017             0.00623610347            0.000280374822           
       2.612657             0.00751726437            0.000310005438           
       2.615298             0.00739310705            0.000304427466           
       2.617938             0.00686012931            0.000295814341           
       2.620579             0.00674413366            0.000290906882           
       2.623219             0.00765389729            0.000314864836           
       2.625859             0.00683528446            0.000292535955           
       2.628500             0.00694217221            0.000299526118           
       2.631140             0.00736539719            0.000303080628           
       2.633780             0.00692931503            0.000297747302           
       2.636421             0.00721841603            0.000301129709           
       2.639061             0.00782256602            0.000317226215           
       2.641702               0.006984327            0.000296543993           
       2.644342             0.00702498689            0.000299845567           
       2.646982             0.00732744956            0.000305972524           
       2.649623             0.00684716707            0.000297548137           
       2.652263             0.00732505322            0.000305307545           
       2.654904             0.00712607381            0.000302767347           
       2.657544             0.00737819831             0.00030590932           
       2.660184             0.00717073845            0.000301963636           
       2.662825             0.00700222796            0.000299109737           
       2.665465             0.00700582024            0.000299739797           
       2.668105             0.00723290415            0.000304679472           
       2.670746             0.00665656813            0.000289815537           
       2.673386             0.00679662683             0.00029639782           
       2.676027              0.0073522375            0.000305654167           
       2.678667             0.00732518559            0.000306677415           
       2.681307             0.00733832195            0.000304538564           
       2.683948             0.00752228941             0.00031139437           
       2.686588             0.00705367885            0.000298771956           
       2.689229             0.00722677484            0.000305129773           
       2.691869             0.00776510117            0.000313133246           
       2.694509             0.00716350347            0.000304883368           
       2.697150             0.00737381404            0.000304389503           
       2.699790              0.0074953911            0.000313263347           
       2.702430             0.00691179637            0.000295053217           
       2.705071             0.00672453936            0.000295011928           
       2.707711             0.00695339475            0.000297015196           
       2.710352             0.00746841098            0.000309570279           
       2.712992             0.00701237629            0.000300945243           
       2.715632             0.00735607514            0.000306478852           
       2.718273             0.00627109993            0.000283915222           
       2.720913             0.00687015888            0.000297662884           
       2.723553             0.00698862641            0.000299175112           
       2.726194             0.00648900794            0.000289673119           
       2.728834             0.00674621191            0.000292732671           
       2.731475             0.00653447889            0.000290620207           
       2.734115             0.00728263159            0.000304978279           
       2.736755             0.00712523329            0.000303658694           
       2.739396              0.0071771321            0.000303151003           
       2.742036             0.00737363329             0.00030937024           
       2.744677             0.00688322714            0.000299342453           
       2.747317             0.00744194937            0.000309742348           
       2.749957             0.00775383504            0.000318459894           
       2.752598             0.00688328084             0.00030095397           
       2.755238             0.00662096086            0.000295030602           
       2.757878             0.00693245529            0.000301031402           
       2.760519             0.00754463953            0.000310726012           
       2.763159             0.00764462159            0.000317863838           
       2.765800             0.00702537426            0.000299555977           
       2.768440             0.00636827471            0.000288960152           
       2.771080             0.00751375827            0.000311229211           
       2.773721             0.00595052685            0.000280365723           
       2.776361             0.00648551968            0.000289554221           
       2.779001              0.0072191852            0.000308704459           
       2.781642             0.00667655496            0.000294850228           
       2.784282             0.00699931037            0.000301998205           
       2.786923             0.00706895294            0.000301188716           
       2.789563             0.00704868736            0.000301360842           
       2.792203             0.00700659662            0.000302372283           
       2.794844             0.00673934918            0.000295200286           
       2.797484             0.00669465055            0.000294634257           
       2.800125             0.00644521115            0.000288719601           
       2.802765             0.00623466195            0.000289228722           
       2.805405             0.00672921389             0.00029614363           
       2.808046             0.00634521618            0.000291979371           
       2.810686             0.00650563062            0.000292496858           
       2.813326             0.00638384648            0.000293330975           
       2.815967             0.00710019989            0.000307401795           
       2.818607             0.00693420243            0.000306823891           
       2.821248             0.00664027579            0.000296506862           
       2.823888             0.00706238645            0.000310711106           
       2.826528             0.00626389291            0.000290873628           
       2.829169             0.00703673001            0.000306934727           
       2.831809              0.0067726078            0.000301383096           
       2.834449             0.00687903379            0.000298440093           
       2.837090             0.00715031507            0.000306098908           
       2.839730             0.00655520976            0.000291002922           
       2.842371             0.00657909513            0.000293563844           
       2.845011             0.00664514645            0.000294375782           
       2.847651             0.00657569507            0.000293371196           
       2.850292             0.00691796056            0.000299199623           
       2.852932             0.00685641016            0.000298399772           
       2.855573             0.00656022735            0.000294446985           
       2.858213             0.00655054041            0.000290928179           
       2.860853             0.00669934386            0.000296416181           
       2.863494             0.00731999664            0.000310588723           
       2.866134              0.0072601998             0.00031365622           
       2.868774             0.00646852335            0.000291529691           
       2.871415             0.00682462536            0.000302410524           
       2.874055             0.00689704022            0.000305516604           
       2.876696              0.0072783673            0.000311022678           
       2.879336             0.00624750221            0.000290069203           
       2.881976             0.00674447716             0.00030113759           
       2.884617             0.00710533124            0.000307371567           
       2.887257             0.00752961217            0.000314209347           
       2.889897             0.00634132878            0.000291657091           
       2.892538             0.00656767284            0.000294758612           
       2.895178             0.00684915146            0.000297939153           
       2.897819             0.00688686258            0.000301830955           
       2.900459             0.00705562052            0.000302977198           
       2.903099             0.00686737568            0.000300468857           
       2.905740             0.00674390435            0.000294431813           
       2.908380             0.00666403468            0.000296584807           
       2.911021             0.00705742487            0.000305793477           
       2.913661              0.0071167972             0.00030369774           
       2.916301             0.00702401821            0.000306003776           
       2.918942             0.00697493564            0.000300332441           
       2.921582             0.00689700347            0.000301783241           
       2.924222             0.00662025412            0.000293951657           
       2.926863             0.00683693827            0.000299516986           
       2.929503             0.00728324884            0.000312570305           
       2.932144             0.00721839699            0.000306072004           
       2.934784             0.00648278528            0.000291290143           
       2.937424             0.00761057523            0.000316195906           
       2.940065             0.00711027203            0.000305874962           
       2.942705             0.00658221823            0.000295191998           
       2.945346             0.00722704552            0.000307486526           
       2.947986             0.00948099753            0.000353418104           
       2.950626             0.00928652089            0.000350850087           
       2.953267              0.0100496005            0.000361103006           
       2.955907             0.00839736988            0.000334450997           
       2.958547             0.00734754606            0.000309639144           
       2.961188               0.007120513            0.000307478813           
       2.963828             0.00676990387             0.00029811418           
       2.966469             0.00760845918             0.00031611703           
       2.969109             0.00759502655            0.000317453149           
       2.971749             0.00934925027            0.000351175414           
       2.974390             0.00854632937            0.000336678669           
       2.977030             0.00801562173            0.000325437116           
       2.979670             0.00788638459            0.000320721756           
       2.982311             0.00726369608            0.000310021118           
       2.984951             0.00740956046            0.000313928067           
       2.987592             0.00767960422             0.00031851876           
       2.990232             0.00812917252            0.000328546113           
       2.992872              0.0090957301            0.000344810742           
       2.995513              0.0117247359            0.000394558708           
       2.998153              0.0189341333            0.000504633059           
       3.000794              0.0259220923            0.000581864601           
       3.003434              0.0201264207            0.000518144625           
       3.006074              0.0156118772            0.000457817815           
       3.008715               0.014561229             0.00044551121           
       3.011355              0.0168107269             0.00048366656           
       3.013995              0.0157965666            0.000466557488           
       3.016636              0.0294966556            0.000638739432           
       3.019276                0.20603386             0.00172847497           
       3.021917               0.345693983             0.00220095376           
       3.024557               0.129708579             0.00135894777           
       3.027197              0.0854553741             0.00112154511           
       3.029838               0.195609583             0.00168873063           
       3.032478                0.11927454             0.00132655902           
       3.035118              0.0934564519             0.00118028557           
       3.037759              0.0680327101             0.00100880112           
       3.040399              0.0684443282             0.00102342655           
       3.043040              0.0634887253            0.000995254195           
       3.045680              0.0573062243            0.000930992066           
       3.048320              0.0738041404             0.00107349281           
       3.050961              0.0545287577            0.000931976047           
       3.053601              0.0844301431             0.00115455826           
       3.056242              0.0778310452             0.00111564045           
       3.058882              0.0966849921             0.00126194447           
       3.061522               0.258090259             0.00204751484           
       3.064163              0.0709979043             0.00107585452           
       3.066803              0.0224107495            0.000616136298           
       3.069443              0.0222985351            0.000610498519           
       3.072084              0.0619208792             0.00102639347           
       3.074724              0.0669754563             0.00107376714           
       3.077365              0.0131473351            0.000475400999           
       3.080005              0.0091297163             0.00040055243           
       3.082645             0.00925521125            0.000405349431           
       3.085286             0.00801759648            0.000377344218           
       3.087926             0.00798784252            0.000379039783           
       3.090566             0.00770526063            0.000376109535           
       3.093207             0.00836883134            0.000387735326           
       3.095847             0.00850012804            0.000398955921           
       3.098488              0.0088659141            0.000406710845           
       3.101128             0.00761637093            0.000379015861           
       3.103768             0.00834451921            0.000398954941           
       3.106409             0.00838982406             0.00040271592           
       3.109049              0.0104776067            0.000453540957           
       3.111690              0.0161287832            0.000560496494           
       3.114330              0.0219287549            0.000659365518           
       3.116970              0.0169676536             0.00058807154           
       3.119611              0.0126212543            0.000503889615           
       3.122251              0.0101606882            0.000455814288           
       3.124891             0.00824134997            0.000412504659           
       3.127532             0.00848182156            0.000426017965           
       3.130172              0.0087135307            0.000422915025           
       3.132813             0.00745051531            0.000399024336           
       3.135453              0.0067206155            0.000386969389           
       3.138093             0.00661969959            0.000374940538           
       3.140734             0.00624718786            0.000371017086           
       3.143374             0.00699155911            0.000398499098           
       3.146014             0.00631775387            0.000376060426           
       3.148655             0.00660020957            0.000387401262           
       3.151295             0.00739006448            0.000413171437           
       3.153936             0.00678907313            0.000401861004           
       3.156576             0.00614933445            0.000378068403           
       3.159216             0.00674696012            0.000399252789           
       3.161857             0.00632307298            0.000391248953           
       3.164497             0.00613749836            0.000393592503           
       3.167138             0.00638042847            0.000391678377           
       3.169778             0.00686219036            0.000413531029           
       3.172418             0.00584235065            0.000383796396           
       3.175059             0.00607778576            0.000396576017           
       3.177699             0.00581553002             0.00038639334           
       3.180339             0.00626171758            0.000404525978           
       3.182980             0.00608333699            0.000404105066           
       3.185620              0.0064342118            0.000420137185           
       3.188261             0.00637580899            0.000412746729           
       3.190901             0.00574969967            0.000397996784           
       3.193541             0.00598318461            0.000407335177           
       3.196182             0.00574756857            0.000407540917           
       3.198822             0.00546264427            0.000392494615           
       3.201463             0.00629587369            0.000426815722           
       3.204103             0.00566835217            0.000410379643           
       3.206743             0.00574257339            0.000416549915           
       3.209384             0.00544694429            0.000403877745           
       3.212024             0.00638152502            0.000438708211           
       3.214664             0.00613243351            0.000438257992           
       3.217305             0.00573764686            0.000433806666           
       3.219945             0.00586519885             0.00043493447           
       3.222586             0.00619330661            0.000449463689           
       3.225226             0.00456992015            0.000394787131           
       3.227866             0.00552759231             0.00043754583           
       3.230507             0.00538848765            0.000437160251           
       3.233147             0.00606391568            0.000456890493           
       3.235787             0.00541176275            0.000431740663           
       3.238428             0.00620275908             0.00047038043           
       3.241068             0.00658366827            0.000494434923           
       3.243709              0.0053562374            0.000443494094           
       3.246349             0.00625723346            0.000476664042           
       3.248989             0.00621863447            0.000486053014           
       3.251630             0.00592709144            0.000476622011           
       3.254270              0.0051861797            0.000459542465           
       3.256911              0.0063083454            0.000494127829           
       3.259551             0.00505488806            0.000452094883           
       3.262191             0.00542602576            0.000472706878           
       3.264832             0.00599566746            0.000501563323           
       3.267472             0.00566668306            0.000494523732           
       3.270112             0.00504455885            0.000467917022           
       3.272753             0.00565182529            0.000501367509           
       3.275393             0.00525416054             0.00048589585           
       3.278034             0.00567418776            0.000515230416           
       3.280674             0.00552981186            0.000510109523           
       3.283314             0.00585038049            0.000527586162           
       3.285955             0.00495060677            0.000494438501           
       3.288595             0.00641661054            0.000569185857           
       3.291235             0.00496703824            0.000503725252           
       3.293876             0.00661829567            0.000584900492           
       3.296516             0.00586563367            0.000561869287           
       3.299157             0.00510442749            0.000532067022           
       3.301797             0.00506868854            0.000530426415           
       3.304437             0.00415709218             0.00048937016           
       3.307078             0.00605095337            0.000596146754           
       3.309718             0.00462344031            0.000526305163           
       3.312359             0.00562530235            0.000592264447           
       3.314999             0.00586217547            0.000610948169           
       3.317639             0.00550241689            0.000598278205           
       3.320280             0.00603994054            0.000635973382           
       3.322920             0.00561819779            0.000622545114           
       3.325560             0.00559909819            0.000633486726           
       3.328201             0.00536488777            0.000622717105           
       3.330841             0.00558455257            0.000650789686           
       3.333482             0.00578994601            0.000671062989           
       3.336122             0.00587343215            0.000690573798           
       3.338762             0.00630929731            0.000722285291           
       3.341403              0.0053421349            0.000670789186           
       3.344043              0.0059430127            0.000734512663           
       3.346683             0.00552605146            0.000715461166           
       3.349324              0.0059447335            0.000753557142           
       3.351964             0.00585999061            0.000772219243           
       3.354605             0.00423511235            0.000663918662           
       3.357245              0.0060909507            0.000824191421           
       3.359885             0.00621538015             0.00083286664           
       3.362526             0.00536080318            0.000813042898           
       3.365166             0.00521842356            0.000792269479           
       3.367807             0.00462535639            0.000798451016           
       3.370447             0.00423617446            0.000764418066           
       3.373087              0.0054904825             0.00091847156           
       3.375728             0.00510218259            0.000878704867           
       3.378368             0.00398883523             0.00083954298           
       3.381008             0.00395854314            0.000829056567           
       3.383649             0.00562086174             0.00106914475           
       3.386289             0.00539790808             0.00104815828           
       3.388930             0.00482079009             0.00108786061           
       3.391570             0.00437455785             0.00103672432           
       3.394210             0.00470819542             0.00115240932           
       3.396851             0.00486849651             0.00126940449           
       3.399491             0.00430539897             0.00121540418           
       3.402131             0.00753049732             0.00190271462           
       3.404772             0.00560099832             0.00164165025           
       3.407412             0.00359717233             0.00163251146           
       3.410053             0.00612123547             0.00221749144           
       3.412693             0.00300336167             0.00219757271           
       3.415333             0.00664448929             0.00400490724           
