################################################################################
# EDF_DataBlockID                     0.Image.Psd
# EDF_BinarySize                      2105344
# EDF_HeaderSize                      2560
# ByteOrder                           LowByteFirst
# DataType                            FloatValue
# Dim_1                               512
# Dim_2                               1028
# Image                               0
# HeaderID                            EH:000000:000000:000000
# Size                                2105344
# Center_1                            304.9000
# Center_2                            588.7000
# Comment                             Xenocs_Cell_Window - front_window_open_only
# DDummy                              0.6
# Date                                2025-10-18T20:06:04
# Delta                               21.910000
# Dummy                               -1.5
# ExposureTime                        360
# Gamma                               15.360000
# Intensity1                          9.00996e-10
# PSize_1                             7.5e-05
# PSize_2                             7.5e-05
# Pressure                            0.0332975
# SampleDistance                      0.115750
# SampleEnvKind                       large
# SampleEnvPN                         ElectroChemical cell
# SampleEnvSN                         1141
# Thickness                           0
# Wavelength                          1.541891e-10
# Wavelength                          1.54189e-10
# aux                                 0
# aux_dial                            0.002375
# beamx                               588.429
# beamx_dial                          588.429
# beamz                               657.855
# beamz_dial                          657.855
# det0x                               -0.000396875
# det0x_dial                          6.36905
# det0xvd                             -0.0005
# det0xvd_dial                        -0.0005
# det0y                               450.002
# det0y_dial                          481.635
# det0z                               0
# det0z_dial                          1.2295
# det0zvd                             0
# det0zvd_dial                        0
# mag                                 1.818
# mag_dial                            1.818
# om                                  0.2499
# om_dial                             -0.610199
# phi                                 -0.0120535
# phi_dial                            0
# ry                                  0.599993
# ry_dial                             0.599993
# s1bot                               0.8
# s1bot_dial                          -1.66094
# s1hl                                0.8
# s1hl_dial                           -0.608437
# s1hr                                0.8
# s1hr_dial                           0.970938
# s1top                               0.8
# s1top_dial                          -0.461562
# s2bot                               0.45
# s2bot_dial                          1.36109
# s2hl                                0.45
# s2hl_dial                           -0.83375
# s2hr                                0.45
# s2hr_dial                           -0.118594
# s2top                               0.45
# s2top_dial                          1.44734
# w2theta                             32
# w2theta_dial                        32
# waxsch                              19.2605
# waxsch_dial                         -32.7238
# waxsh                               137.085
# waxsh_dial                          -43.5335
# waxsth                              26.0607
# waxsth_dial                         -19.4068
# waxsz                               67.0407
# waxsz_dial                          -23.7962
# wind                                65.9854
# wind_dial                           66.0041
# wpsi                                124
# wpsi_dial                           124
# wstod                               115
# wstod_dial                          115
# x                                   0
# x_dial                              1.00969
# z                                   0
# z_dial                              13.3172
# CountCutoff                         6807993
# DetectorModel                       Dectris EIGER2 Si 500K, S/N E-01-0554
# ThresholdSetting                    4023.88989258
# Saturation                          0
# FlatField                           Corrected
# BackgroundReductionExtra            0.02
# BackgroundCorrectionConstant        0.0026712
# Detector                            0
# Monitor                             0
# Pil_Roi0                            0
# SumForIntensity1                    3.24359e+08
# TransmittedFlux                     900996
# det                                 0
# mon                                 0
# pilai0                              3.24359e+08
# pilai1                              709314
# pilct0                              5.61144e+08
# pilct1                              709314
# pilroi0                             0
# pilroi1                             0
# sec                                 1
# title                               20251017__1_00236.edf
# usaxs0                              0
# Operation                           Azimuthal average I(q)
# Error_model                         ErrorModel.poisson
# Geometrical_correction              True
# Transmission_correction             True
# Thickness_correction                False
# Binning mode                        Uniform
# Binning factor                      1.0
# Psi                                 0.0
# Omega                               0.2499
# MaskInvalidPixels                   True
# DetectorEdge                        3
# MaskFiles                           ['20251017__1_00233_mask.edf']
################################################################################
    q(A⁻¹)                Intensity(a.u.)            Sigma_I(a.u.)            
       0.690460             0.00765441594             0.00803710227           
       0.693100             0.00623646232             0.00324339888           
       0.695741              0.0103320312             0.00352687597           
       0.698381              0.0101385746             0.00326762304           
       0.701021             0.00891034983             0.00250009058           
       0.703662             0.00695450664             0.00204448471           
       0.706302             0.00604482308             0.00184084979           
       0.708942             0.00646489124             0.00169102915           
       0.711583             0.00564789954             0.00158028136           
       0.714223             0.00822904528             0.00166222529           
       0.716864             0.00688177475             0.00155116178           
       0.719504              0.0077011584             0.00151866422           
       0.722144             0.00828327751             0.00152114471           
       0.724785             0.00614627897              0.0012888384           
       0.727425             0.00619880347             0.00120056072           
       0.730065             0.00606524569             0.00122192896           
       0.732706              0.0073122618             0.00120649484           
       0.735346             0.00803823673             0.00136638265           
       0.737987             0.00653067979             0.00106600461           
       0.740627             0.00747000477             0.00124895884           
       0.743267             0.00811181277             0.00111952081           
       0.745908              0.0038665433            0.000828357492           
       0.748548             0.00688884375             0.00103123997           
       0.751189             0.00416660316            0.000794450175           
       0.753829             0.00673979971             0.00101952809           
       0.756469             0.00621633407            0.000920922119           
       0.759110             0.00519605694            0.000870875906           
       0.761750             0.00666607739            0.000902760772           
       0.764390             0.00516529488            0.000853031034           
       0.767031             0.00640642025            0.000859642417           
       0.769671             0.00555417344            0.000848875503           
       0.772312             0.00641344418            0.000831239484           
       0.774952             0.00576021733            0.000844532277           
       0.777592             0.00689684452            0.000845234305           
       0.780233             0.00684974051            0.000888005809           
       0.782873             0.00594133878            0.000756274888           
       0.785513             0.00724199925            0.000888200796           
       0.788154             0.00619296413             0.00075442528           
       0.790794              0.0065433355            0.000802592027           
       0.793435                 0.0059361            0.000734241257           
       0.796075             0.00683771852            0.000792195328           
       0.798715             0.00665328313            0.000776977179           
       0.801356             0.00562160829            0.000695087885           
       0.803996             0.00588509066            0.000722555798           
       0.806637             0.00753292586            0.000772733564           
       0.809277             0.00631155139            0.000739972161           
       0.811917             0.00709637079            0.000742488974           
       0.814558             0.00712602464            0.000762219881           
       0.817198             0.00775334604             0.00075809263           
       0.819838             0.00698077093            0.000750340292           
       0.822479             0.00771056227            0.000726725489           
       0.825119             0.00574046773            0.000673610961           
       0.827760             0.00697104861            0.000687825243           
       0.830400              0.0067388291            0.000712537975           
       0.833040             0.00645758581            0.000650976225           
       0.835681             0.00743774882            0.000731620557           
       0.838321             0.00571273813            0.000600142708           
       0.840961             0.00718465452            0.000703481763           
       0.843602             0.00655436181            0.000632918395           
       0.846242             0.00735324357            0.000694050264           
       0.848883             0.00685015741            0.000651649849           
       0.851523             0.00745277964             0.00068480316           
       0.854163              0.0073859348            0.000673805152           
       0.856804              0.0059038741            0.000587006871           
       0.859444             0.00707234782            0.000647094608           
       0.862085             0.00559341382            0.000567101292           
       0.864725             0.00629236101            0.000599282499           
       0.867365             0.00733426423            0.000642364716           
       0.870006              0.0065030148            0.000613307438           
       0.872646             0.00642599737            0.000583131728           
       0.875286             0.00640709221            0.000602113211           
       0.877927             0.00695494544             0.00060064055           
       0.880567             0.00719863474            0.000623010418           
       0.883208             0.00736683606            0.000612045369           
       0.885848             0.00542676645            0.000538930529           
       0.888488             0.00713297871            0.000587484179           
       0.891129             0.00642028859            0.000585887962           
       0.893769             0.00651086119            0.000557702387           
       0.896410             0.00712089759            0.000601210411           
       0.899050             0.00609608393            0.000536351949           
       0.901690             0.00707902303            0.000590042179           
       0.904331             0.00673897504            0.000555596932           
       0.906971             0.00695340835            0.000582763164           
       0.909611               0.007122436            0.000566112411           
       0.912252             0.00708160514            0.000574268898           
       0.914892             0.00631614113            0.000528607703           
       0.917533             0.00712341438            0.000574040044           
       0.920173             0.00660893752            0.000530389738           
       0.922813             0.00636079171            0.000543761665           
       0.925454             0.00669646978            0.000529504195           
       0.928094             0.00628564272            0.000524016159           
       0.930734             0.00695496894            0.000538055419           
       0.933375             0.00830119022            0.000600358009           
       0.936015             0.00690077151            0.000523742349           
       0.938656             0.00773826794            0.000577877509           
       0.941296             0.00726777855            0.000539871564           
       0.943936             0.00767336676            0.000564721764           
       0.946577             0.00759992962            0.000541253223           
       0.949217             0.00717049972            0.000544306397           
       0.951858             0.00720128163            0.000515681056           
       0.954498             0.00729359769            0.000545985185           
       0.957138             0.00833945535            0.000561137417           
       0.959779             0.00623515613            0.000495816427           
       0.962419             0.00762937133            0.000527995986           
       0.965059             0.00805154296            0.000557814427           
       0.967700             0.00679776361            0.000495971761           
       0.970340             0.00700784936            0.000517727846           
       0.972981             0.00751524742            0.000517661655           
       0.975621             0.00755350424            0.000529844048           
       0.978261             0.00896824568             0.00055084958           
       0.980902             0.00701657416            0.000510438719           
       0.983542             0.00811900498            0.000533088446           
       0.986182             0.00766587339             0.00052482038           
       0.988823             0.00851918419            0.000535408251           
       0.991463             0.00723539969             0.00050520599           
       0.994104             0.00675315576            0.000471627678           
       0.996744             0.00723397345            0.000503958144           
       0.999384             0.00695924163            0.000477519271           
       1.002025             0.00716082966            0.000497872746           
       1.004665             0.00694669412            0.000470285484           
       1.007306             0.00710970645            0.000491713558           
       1.009946             0.00817739736             0.00050705775           
       1.012586             0.00775558064            0.000508011354           
       1.015227             0.00697714258            0.000467257342           
       1.017867             0.00744183868             0.00049639558           
       1.020507             0.00827964008            0.000503881645           
       1.023148              0.0074487376            0.000483702501           
       1.025788             0.00800635321             0.00049634583           
       1.028429             0.00707603546            0.000476819188           
       1.031069             0.00782281316            0.000483024987           
       1.033709             0.00727884045            0.000474875623           
       1.036350             0.00866896321            0.000504652388           
       1.038990             0.00691192009            0.000461742314           
       1.041630              0.0077442291            0.000479350093           
       1.044271             0.00724713711              0.0004637626           
       1.046911              0.0075049775            0.000463171858           
       1.049552             0.00839568177            0.000507540826           
       1.052192             0.00813993546            0.000477277712           
       1.054832             0.00756464496            0.000469050529           
       1.057473             0.00780438655            0.000470393829           
       1.060113             0.00826069649            0.000489190626           
       1.062754             0.00746148177            0.000459782295           
       1.065394             0.00818344377            0.000476446557           
       1.068034             0.00702401092            0.000439697596           
       1.070675             0.00786398919            0.000473429468           
       1.073315             0.00731587445            0.000442674879           
       1.075955               0.007612055            0.000459119804           
       1.078596             0.00766335944            0.000459753859           
       1.081236             0.00749192396            0.000447839834           
       1.083877             0.00766097913            0.000467011332           
       1.086517             0.00796457999            0.000465403413           
       1.089157             0.00892172186            0.000496186537           
       1.091798             0.00845646359            0.000472840461           
       1.094438             0.00821505418            0.000473449266           
       1.097078             0.00816591931            0.000459901244           
       1.099719             0.00809436231            0.000469616819           
       1.102359              0.0094141554             0.00047977698           
       1.105000             0.00816204459             0.00046432717           
       1.107640               0.008081237            0.000446962118           
       1.110280             0.00857309426            0.000469581278           
       1.112921             0.00870017498            0.000464489328           
       1.115561              0.0081945438            0.000456510676           
       1.118202             0.00875120569            0.000457992294           
       1.120842             0.00798218997            0.000451188197           
       1.123482              0.0073533632            0.000420903833           
       1.126123             0.00875753875            0.000462203099           
       1.128763              0.0068808956            0.000407666352           
       1.131403             0.00722476235            0.000417079184           
       1.134044             0.00794665635            0.000436661093           
       1.136684             0.00875870881            0.000461874427           
       1.139325             0.00804411959            0.000430160957           
       1.141965             0.00832467688            0.000443321197           
       1.144605             0.00922063956            0.000469308961           
       1.147246             0.00882374863            0.000450402691           
       1.149886             0.00823453206            0.000438199216           
       1.152527             0.00801057084            0.000432632181           
       1.155167             0.00889938277            0.000449590899           
       1.157807             0.00800511365            0.000426697805           
       1.160448             0.00832048778            0.000440973934           
       1.163088             0.00911711315            0.000444476213           
       1.165728             0.00852049338            0.000447397894           
       1.168369             0.00875571191              0.0004373405           
       1.171009             0.00860314409            0.000437107637           
       1.173650             0.00878782227             0.00043858859           
       1.176290             0.00885218528            0.000445356872           
       1.178930             0.00846223302            0.000423196438           
       1.181571             0.00827392268            0.000432128839           
       1.184211             0.00871713844            0.000430155981           
       1.186851             0.00952554316            0.000453805707           
       1.189492             0.00878697929            0.000438278177           
       1.192132             0.00884151736            0.000433125088           
       1.194773             0.00960013881            0.000448601409           
       1.197413             0.00989015923            0.000459041404           
       1.200053             0.00820037794             0.00041536132           
       1.202694              0.0090479248            0.000433010565           
       1.205334              0.0095810763            0.000450456534           
       1.207975             0.00955351099            0.000440994692           
       1.210615             0.00889983397            0.000434641026           
       1.213255             0.00939523109            0.000434759824           
       1.215896             0.00898542024            0.000433231378           
       1.218536             0.00839957935            0.000406805746           
       1.221176             0.00930441184            0.000438376315           
       1.223817             0.00927622917            0.000428591043           
       1.226457             0.00922189614            0.000432761872           
       1.229098             0.00946441997            0.000431764346           
       1.231738             0.00940896517            0.000436559642           
       1.234378             0.00875009521             0.00041281692           
       1.237019             0.00953151329            0.000434331133           
       1.239659             0.00869271067            0.000414555425           
       1.242299              0.0104501365            0.000452209853           
       1.244940             0.00980963801            0.000433403232           
       1.247580              0.0103698245            0.000447573889           
       1.250221             0.00956848329             0.00043695078           
       1.252861             0.00954554524            0.000420167003           
       1.255501             0.00964191822            0.000434205493           
       1.258142               0.010100391            0.000435622904           
       1.260782              0.0094773683            0.000426740284           
       1.263423             0.00915819734            0.000411182131           
       1.266063             0.00981650337             0.00043363846           
       1.268703             0.00994723085            0.000425518283           
       1.271344              0.0099469496            0.000434779931           
       1.273984             0.00997960917            0.000428694743           
       1.276624              0.0104965166             0.00043697445           
       1.279265             0.00972464378            0.000421519304           
       1.281905             0.00955635817            0.000420431763           
       1.284546              0.0105111408            0.000436117702           
       1.287186              0.0100621831            0.000427112143           
       1.289826             0.00974360933            0.000422475993           
       1.292467              0.0100679535            0.000421785229           
       1.295107             0.00960762314            0.000419292529           
       1.297747              0.0105335934            0.000427517624           
       1.300388              0.0105493005            0.000438822754           
       1.303028             0.00938661296             0.00040340861           
       1.305669             0.00966286074            0.000414589887           
       1.308309               0.009504964             0.00040500597           
       1.310949             0.00954881008            0.000410998643           
       1.313590              0.0100907706            0.000415962638           
       1.316230               0.010531701            0.000432602691           
       1.318871              0.0102003369            0.000416557921           
       1.321511              0.0104415209            0.000423565882           
       1.324151              0.0105169005            0.000426771768           
       1.326792             0.00990740872            0.000410865321           
       1.329432              0.0109747831            0.000434687289           
       1.332072             0.00990790603            0.000405936614           
       1.334713             0.00985043243            0.000409777281           
       1.337353             0.00982117726            0.000402874357           
       1.339994              0.0102943036            0.000418339231           
       1.342634             0.00968816236            0.000396699865           
       1.345274              0.0109386862            0.000427036299           
       1.347915              0.0100719421            0.000410858131           
       1.350555              0.0107575944            0.000422953712           
       1.353195              0.0106732434            0.000413232755           
       1.355836              0.0107593051            0.000422723622           
       1.358476              0.0101909526            0.000410250039           
       1.361117              0.0103679655            0.000403417146           
       1.363757              0.0106886234            0.000423182741           
       1.366397             0.00970185846            0.000390620631           
       1.369038              0.0100852251            0.000406657772           
       1.371678              0.0102632362            0.000401947524           
       1.374319              0.0102973716             0.00040580859           
       1.376959              0.0101850759            0.000398033606           
       1.379599              0.0106367339            0.000414691914           
       1.382240              0.0102972057            0.000400269928           
       1.384880              0.0107882639            0.000414733228           
       1.387520              0.0111775957            0.000417214732           
       1.390161              0.0107316544            0.000407696305           
       1.392801              0.0109171521            0.000413655603           
       1.395442                0.01090172            0.000409080116           
       1.398082              0.0111049428            0.000414288315           
       1.400722              0.0103038383            0.000397262553           
       1.403363              0.0108587056             0.00041160318           
       1.406003             0.00998025097            0.000384913496           
       1.408644              0.0106616319            0.000406188218           
       1.411284              0.0110208814            0.000410710058           
       1.413924              0.0102806502            0.000391784923           
       1.416565              0.0108347281            0.000401731237           
       1.419205              0.0109310215            0.000407487277           
       1.421845              0.0108799211             0.00040142286           
       1.424486             0.00991573669            0.000384914965           
       1.427126             0.00995946854            0.000385519442           
       1.429767              0.0096369218             0.00037338155           
       1.432407              0.0106640417             0.00040267027           
       1.435047              0.0107395305             0.00039194973           
       1.437688               0.010689337            0.000399692102           
       1.440328               0.010155338            0.000382031065           
       1.442968             0.00994262281            0.000383241611           
       1.445609              0.0107389053            0.000391741402           
       1.448249             0.00993517134            0.000379233067           
       1.450890              0.0108585613            0.000393636631           
       1.453530              0.0105571027               0.000391009           
       1.456170              0.0106638127            0.000392095428           
       1.458811             0.00988034442            0.000374414443           
       1.461451              0.0103886547            0.000386747023           
       1.464092              0.0109862609            0.000394248535           
       1.466732             0.00998528491            0.000373554001           
       1.469372              0.0101223126             0.00037495228           
       1.472013              0.0104778842            0.000388306055           
       1.474653             0.00996969554            0.000369419834           
       1.477293              0.0106718116            0.000388640155           
       1.479934              0.0112217188            0.000394356321           
       1.482574              0.0109514161            0.000388616384           
       1.485215              0.0100658277            0.000373531799           
       1.487855              0.0099337853            0.000370997081           
       1.490495              0.0100762972            0.000372844577           
       1.493136             0.00957096457            0.000358609781           
       1.495776              0.0105306071            0.000382716771           
       1.498416              0.0107638948            0.000379415763           
       1.501057             0.00985946315            0.000366249307           
       1.503697               0.010052038            0.000366253194           
       1.506338             0.00997024184            0.000367442476           
       1.508978              0.0101190759            0.000367989238           
       1.511618             0.00992541325            0.000364266685           
       1.514259              0.0100409282            0.000367041979           
       1.516899             0.00972379943            0.000361367423           
       1.519540             0.00983093575            0.000361336344           
       1.522180              0.0101391606            0.000362374357           
       1.524820             0.00996482595            0.000366501361           
       1.527461             0.00954169755            0.000350702032           
       1.530101              0.0104216819            0.000370306738           
       1.532741              0.0107106427            0.000373626746           
       1.535382              0.0103790493             0.00036860765           
       1.538022               0.010279964            0.000363598272           
       1.540663             0.00964070281             0.00035543943           
       1.543303             0.00991523332             0.00035597896           
       1.545943             0.00994808574             0.00035856654           
       1.548584               0.010268947            0.000366243104           
       1.551224             0.00909265911            0.000335793815           
       1.553864             0.00995801507             0.00036058962           
       1.556505             0.00957125063            0.000348079547           
       1.559145              0.0102982742            0.000361892205           
       1.561786             0.00995489201            0.000354195748           
       1.564426             0.00961816369            0.000347839338           
       1.567066               0.010131395            0.000354212773           
       1.569707             0.00955747026            0.000349014503           
       1.572347             0.00913425188            0.000336772784           
       1.574988             0.00968924978             0.00034548093           
       1.577628              0.0104294002             0.00036650362           
       1.580268              0.0089167506            0.000327189821           
       1.582909             0.00914368871            0.000337524444           
       1.585549             0.00823444724            0.000317310204           
       1.588189             0.00955316392            0.000345592393           
       1.590830             0.00918794128            0.000333104122           
       1.593470             0.00915279553            0.000335181432           
       1.596111             0.00944314873            0.000337514591           
       1.598751             0.00916003627            0.000335814836           
       1.601391             0.00936340227            0.000337351405           
       1.604032             0.00922277422            0.000332012562           
       1.606672             0.00836769355            0.000322612176           
       1.609312             0.00928835209            0.000329783211           
       1.611953             0.00845970327            0.000319290173           
       1.614593             0.00876005778            0.000322437632           
       1.617234             0.00843441755            0.000318181249           
       1.619874             0.00897819258            0.000324415848           
       1.622514             0.00806702045            0.000310233192           
       1.625155             0.00849069172            0.000317488398           
       1.627795             0.00901869917            0.000323904766           
       1.630436             0.00895745158            0.000326047674           
       1.633076             0.00880353225            0.000321591993           
       1.635716             0.00922463379            0.000328619476           
       1.638357             0.00910151772            0.000325032301           
       1.640997             0.00924539143            0.000330153114           
       1.643637             0.00878271865            0.000315810807           
       1.646278             0.00829501685            0.000311511188           
       1.648918             0.00893771695            0.000319185357           
       1.651559             0.00832878426            0.000311994473           
       1.654199             0.00865836561            0.000313747212           
       1.656839             0.00882218185            0.000316616081           
       1.659480              0.0084214676            0.000312066426           
       1.662120             0.00806322682            0.000301264907           
       1.664761             0.00859077007            0.000314330887           
       1.667401             0.00858799285             0.00031135228           
       1.670041             0.00817996626            0.000304213639           
       1.672682             0.00896542329            0.000315487629           
       1.675322              0.0082023562            0.000307098636           
       1.677962             0.00868330895            0.000309698648           
       1.680603             0.00834456266            0.000306292112           
       1.683243             0.00830592308            0.000303321534           
       1.685884             0.00854722516            0.000308866901           
       1.688524             0.00856710696            0.000308355918           
       1.691164             0.00784942583            0.000294399074           
       1.693805             0.00816274045            0.000302644888           
       1.696445             0.00866815084             0.00030754497           
       1.699085             0.00797906733            0.000296245583           
       1.701726              0.0085299959            0.000302318043           
       1.704366             0.00856698345            0.000310344796           
       1.707007             0.00774657591            0.000288813512           
       1.709647             0.00789956588            0.000295275297           
       1.712287             0.00822220135            0.000296210412           
       1.714928             0.00813245157             0.00029755152           
       1.717568             0.00822729884            0.000296529556           
       1.720209              0.0086203514            0.000305404482           
       1.722849             0.00773751696            0.000289807428           
       1.725489             0.00916205368            0.000310332463           
       1.728130             0.00783902992            0.000292896412           
       1.730770              0.0081727218            0.000292743944           
       1.733410             0.00762761492            0.000286525391           
       1.736051             0.00889779818            0.000304660438           
       1.738691             0.00827990887            0.000296891664           
       1.741332             0.00779065574            0.000286213776           
       1.743972             0.00810423269            0.000292025336           
       1.746612             0.00858675841            0.000300662389           
       1.749253             0.00854024268            0.000301142737           
       1.751893             0.00827906728            0.000294723388           
       1.754533             0.00796503837             0.00028511229           
       1.757174             0.00839741627            0.000298222027           
       1.759814             0.00827946962            0.000291605754           
       1.762455             0.00872841646             0.00030195641           
       1.765095             0.00785240209            0.000282381115           
       1.767735              0.0079205497            0.000288422893           
       1.770376             0.00848781574            0.000294044737           
       1.773016             0.00845253168            0.000293896026           
       1.775657             0.00828572012            0.000291577695           
       1.778297             0.00800989578            0.000288085897           
       1.780937             0.00858762656            0.000296902452           
       1.783578             0.00828549055            0.000290263347           
       1.786218             0.00808979143             0.00029139178           
       1.788858             0.00866247522            0.000294037808           
       1.791499              0.0084852847            0.000296378457           
       1.794139             0.00816466949            0.000285356712           
       1.796780             0.00870530367            0.000296403705           
       1.799420             0.00906854437            0.000302139272           
       1.802060             0.00879209256             0.00029383927           
       1.804701             0.00888845173            0.000299408726           
       1.807341             0.00886632465            0.000296146348           
       1.809981             0.00919500832            0.000303588527           
       1.812622             0.00938920462            0.000305106228           
       1.815262             0.00844640179            0.000290414498           
       1.817903             0.00876770117             0.00029223106           
       1.820543             0.00876645479            0.000295822025           
       1.823183             0.00847241615            0.000286337631           
       1.825824             0.00847214589            0.000290639032           
       1.828464             0.00850329151            0.000290279401           
       1.831105             0.00852965148            0.000291854529           
       1.833745             0.00881873487            0.000296573796           
       1.836385             0.00844216066            0.000289044049           
       1.839026             0.00818276727            0.000288846577           
       1.841666             0.00880256219            0.000295696074           
       1.844306             0.00886111572            0.000300423367           
       1.846947             0.00891950478            0.000297538166           
       1.849587             0.00930631731             0.00030804341           
       1.852228             0.00846340004            0.000290637472           
       1.854868              0.0088919747            0.000303369129           
       1.857508             0.00899971069            0.000299565925           
       1.860149             0.00878793086            0.000298393014           
       1.862789              0.0093523324             0.00030918811           
       1.865429             0.00895430338            0.000303449268           
       1.868070             0.00912748691            0.000305311052           
       1.870710             0.00868657457            0.000298656734           
       1.873351             0.00868159695            0.000300477258           
       1.875991             0.00805810734            0.000291052429           
       1.878631             0.00841213688            0.000294613339           
       1.881272             0.00814596363            0.000289235744           
       1.883912             0.00911436156            0.000309533418           
       1.886553             0.00912047421            0.000305922948           
       1.889193             0.00894282673            0.000306428255           
       1.891833             0.00872010661            0.000299144994           
       1.894474             0.00884639295            0.000303688008           
       1.897114             0.00857847094             0.00029673423           
       1.899754             0.00865231121            0.000301350706           
       1.902395              0.0093157863            0.000312758039           
       1.905035             0.00870970187            0.000301227806           
       1.907676             0.00851611658            0.000298207672           
       1.910316             0.00935604282            0.000314560693           
       1.912956             0.00883018355            0.000305580726           
       1.915597             0.00904634654            0.000306073864           
       1.918237              0.0083610787            0.000298719627           
       1.920878             0.00897673513            0.000304044409           
       1.923518             0.00891366788            0.000311024083           
       1.926158             0.00918236137            0.000308423085           
       1.928799             0.00867657376             0.00030379241           
       1.931439             0.00887511514             0.00030478624           
       1.934079             0.00910366958            0.000311811784           
       1.936720             0.00834793552            0.000296831595           
       1.939360             0.00839954728            0.000300617412           
       1.942001             0.00906099815            0.000311028558           
       1.944641             0.00914301914            0.000311086804           
       1.947281             0.00837999422            0.000299262161           
       1.949922             0.00852979687            0.000302303046           
       1.952562             0.00810966527              0.0002973006           
       1.955202             0.00844064573              0.0002956863           
       1.957843              0.0082959952            0.000302453857           
       1.960483             0.00873232786            0.000305356192           
       1.963124             0.00882596529            0.000306761355           
       1.965764             0.00922271223            0.000313692483           
       1.968404             0.00825815027            0.000302143789           
       1.971045             0.00803354895            0.000290536497           
       1.973685             0.00799977383            0.000295335485           
       1.976326              0.0086159563            0.000305162325           
       1.978966             0.00841292183            0.000302972232           
       1.981606             0.00837617338            0.000299112707           
       1.984247             0.00826954169            0.000299794216           
       1.986887             0.00878728212            0.000311926753           
       1.989527             0.00862850279            0.000302656252           
       1.992168             0.00855873101            0.000308702706           
       1.994808             0.00792502077            0.000293599178           
       1.997449              0.0081155934            0.000296672587           
       2.000089             0.00785908283            0.000290227377           
       2.002729             0.00846171697            0.000308049846           
       2.005370             0.00807062005            0.000295127732           
       2.008010             0.00849190289            0.000306751801           
       2.010650              0.0082364669            0.000301238811           
       2.013291             0.00800261308            0.000298621666           
       2.015931             0.00754739984             0.00028792847           
       2.018572             0.00836177662            0.000307089636           
       2.021212             0.00780560955            0.000294038384           
       2.023852             0.00814754277            0.000301987808           
       2.026493             0.00784918216            0.000295107932           
       2.029133             0.00724626884            0.000281384521           
       2.031774             0.00758781537            0.000290731917           
       2.034414             0.00777109439            0.000292466327           
       2.037054             0.00772515414            0.000295277421           
       2.039695             0.00813530981            0.000297046108           
       2.042335             0.00727946297            0.000285769964           
       2.044975             0.00792864285            0.000295856731           
       2.047616             0.00769575193            0.000292728197           
       2.050256               0.007888066            0.000292877107           
       2.052897             0.00778042067            0.000299486622           
       2.055537              0.0072317929            0.000280862603           
       2.058177             0.00777657317            0.000293822097           
       2.060818             0.00797449192            0.000298430836           
       2.063458             0.00714664031            0.000282905183           
       2.066098             0.00725898355            0.000283854811           
       2.068739             0.00730919593            0.000287804751           
       2.071379             0.00847465661             0.00030532535           
       2.074020             0.00751293412            0.000291416012           
       2.076660             0.00761255163             0.00029135325           
       2.079300             0.00775265699            0.000293979537           
       2.081941             0.00768171529            0.000294410441           
       2.084581             0.00768031585            0.000294601683           
       2.087222             0.00735172806            0.000288427163           
       2.089862             0.00738187032            0.000285415515           
       2.092502             0.00757270442             0.00029433381           
       2.095143             0.00757983667            0.000290263824           
       2.097783              0.0078669572            0.000300210018           
       2.100423              0.0072610447            0.000282887036           
       2.103064             0.00729648339            0.000288472695           
       2.105704             0.00745490134            0.000290471969           
       2.108345             0.00730443844            0.000288845744           
       2.110985             0.00756386743            0.000289801878           
       2.113625             0.00746863518            0.000292508936           
       2.116266             0.00749695143            0.000290893815           
       2.118906             0.00758305829            0.000292346867           
       2.121546             0.00746920515            0.000289913524           
       2.124187             0.00777707917            0.000299919971           
       2.126827             0.00767440295            0.000293261118           
       2.129468             0.00700374752            0.000283077985           
       2.132108             0.00711572183            0.000284741481           
       2.134748             0.00792675744            0.000299398238           
       2.137389             0.00756157225            0.000294869499           
       2.140029              0.0070747581             0.00028452711           
       2.142670             0.00713995347            0.000286302139           
       2.145310             0.00749223769            0.000294400627           
       2.147950             0.00745037616            0.000294711941           
       2.150591             0.00767528759            0.000296383972           
       2.153231             0.00770698769             0.00030138626           
       2.155871             0.00773981233            0.000297665444           
       2.158512               0.007316004            0.000294615888           
       2.161152             0.00772794004            0.000295232845           
       2.163793             0.00680445596            0.000281539412           
       2.166433             0.00719636035            0.000284512795           
       2.169073             0.00757675463            0.000298751552           
       2.171714             0.00769789395            0.000294999754           
       2.174354             0.00730923923            0.000291848883           
       2.176995             0.00699313692            0.000283100344           
       2.179635             0.00791998406            0.000306979115           
       2.182275             0.00758560115            0.000294465115           
       2.184916             0.00691268709            0.000287041971           
       2.187556             0.00801929472            0.000304187524           
       2.190196             0.00740512745              0.0002969017           
       2.192837             0.00758929465             0.00029727961           
       2.195477             0.00742444775            0.000296869582           
       2.198118             0.00736477318             0.00029021545           
       2.200758             0.00786474314            0.000304561895           
       2.203398             0.00707026257            0.000283980536           
       2.206039              0.0074836141            0.000296629544           
       2.208679             0.00717181403            0.000287541802           
       2.211319             0.00733347529             0.00029213313           
       2.213960             0.00760862234            0.000294399172           
       2.216600             0.00748738817             0.00029892533           
       2.219241             0.00760344591            0.000296853719           
       2.221881             0.00775824336            0.000301423313           
       2.224521             0.00727173351              0.0002908072           
       2.227162             0.00722436089            0.000294411176           
       2.229802             0.00756474204            0.000296376768           
       2.232443             0.00711237098            0.000288508309           
       2.235083             0.00724533225            0.000289446481           
       2.237723             0.00734193127            0.000293602529           
       2.240364             0.00734497825            0.000292169756           
       2.243004             0.00700634577            0.000286217279           
       2.245644             0.00697705283            0.000284958766           
       2.248285             0.00755660508            0.000298482947           
       2.250925             0.00725431881            0.000291084362           
       2.253566             0.00696856086            0.000285991249           
       2.256206              0.0070253359            0.000286293758           
       2.258846             0.00677993666            0.000281251614           
       2.261487             0.00712152913            0.000288748312           
       2.264127             0.00736348774            0.000296390636           
       2.266767             0.00765775955            0.000297369706           
       2.269408             0.00692952471            0.000286236642           
       2.272048             0.00741291275            0.000294230844           
       2.274689             0.00737878627            0.000294707126           
       2.277329             0.00746547482            0.000296039332           
       2.279969             0.00719356633            0.000291478924           
       2.282610              0.0072575879            0.000289917973           
       2.285250             0.00714935157            0.000292273569           
       2.287891             0.00709472268            0.000288216713           
       2.290531             0.00708292582            0.000289397101           
       2.293171              0.0069545639            0.000286748642           
       2.295812             0.00778058709            0.000301690348           
       2.298452              0.0074348874            0.000296800819           
       2.301092             0.00753689646            0.000300728214           
       2.303733             0.00723057747            0.000288727522           
       2.306373             0.00666969153             0.00028408559           
       2.309014             0.00749079284            0.000295263395           
       2.311654             0.00687980198            0.000285651105           
       2.314294             0.00720844936            0.000291755939           
       2.316935             0.00807330352            0.000309982727           
       2.319575             0.00729329822            0.000293524612           
       2.322215               0.006807788            0.000287627542           
       2.324856             0.00698527997            0.000284036351           
       2.327496             0.00688120635             0.00028882154           
       2.330137             0.00700839283            0.000286102897           
       2.332777             0.00690347008            0.000287058844           
       2.335417             0.00706833657            0.000289594347           
       2.338058             0.00682722778            0.000285751407           
       2.340698              0.0076082041            0.000298682704           
       2.343339             0.00752215925            0.000302656293           
       2.345979             0.00701203302            0.000286382559           
       2.348619             0.00685413334            0.000288486781           
       2.351260             0.00664807694             0.00027807775           
       2.353900             0.00659630146            0.000282860201           
       2.356540             0.00766905695            0.000300800232           
       2.359181             0.00709744932             0.00029324276           
       2.361821             0.00690294402            0.000285673036           
       2.364462             0.00741518931            0.000301031197           
       2.367102             0.00674689061             0.00027884206           
       2.369742             0.00771712938             0.00030890554           
       2.372383             0.00697025723            0.000285019083           
       2.375023             0.00697072133            0.000292454757           
       2.377663              0.0074968883            0.000296846458           
       2.380304             0.00678814825            0.000286384838           
       2.382944             0.00680662073            0.000283969295           
       2.385585             0.00713232193            0.000293431996           
       2.388225             0.00718993559             0.00029328362           
       2.390865             0.00706092656            0.000291384764           
       2.393506             0.00720229988            0.000292931137           
       2.396146             0.00735891402            0.000297080326           
       2.398787             0.00672828421            0.000284314429           
       2.401427             0.00695455206            0.000287300417           
       2.404067             0.00727113619            0.000298250641           
       2.406708             0.00688979234            0.000286675159           
       2.409348               0.007343962              0.0002981996           
       2.411988             0.00688369177            0.000287781786           
       2.414629             0.00692833784            0.000289658174           
       2.417269             0.00706297504            0.000289803126           
       2.419910             0.00665347555            0.000284823657           
       2.422550             0.00725705443            0.000292946907           
       2.425190             0.00689809379            0.000294602313           
       2.427831             0.00676974639            0.000280872668           
       2.430471             0.00679065965            0.000289529152           
       2.433112             0.00722140883            0.000291525633           
       2.435752             0.00690010791            0.000292180697           
       2.438392             0.00669010254            0.000282864371           
       2.441033             0.00722508762             0.00029530376           
       2.443673              0.0070556655            0.000292600183           
       2.446313             0.00679504299              0.0002856154           
       2.448954             0.00717771836            0.000296123512           
       2.451594             0.00758390847            0.000302560713           
       2.454235             0.00670684027            0.000283642648           
       2.456875             0.00772426112            0.000305939335           
       2.459515             0.00734741831            0.000298843177           
       2.462156             0.00790569656            0.000308390865           
       2.464796             0.00751538249            0.000305985504           
       2.467436             0.00773876011             0.00030398889           
       2.470077             0.00852639346            0.000323483792           
       2.472717              0.0073326053            0.000296231042           
       2.475358             0.00730266468            0.000298974927           
       2.477998             0.00755841138            0.000302542323           
       2.480638             0.00781635956            0.000308409037           
       2.483279             0.00708535981            0.000294895069           
       2.485919             0.00757929871            0.000302865263           
       2.488560             0.00796566153            0.000311776641           
       2.491200             0.00747035007            0.000301513864           
       2.493840             0.00685779616            0.000287314859           
       2.496481             0.00674998958            0.000288775098           
       2.499121             0.00659963038            0.000281738842           
       2.501761             0.00716491825            0.000298541827           
       2.504402             0.00720816024            0.000293702847           
       2.507042             0.00687477046            0.000291598371           
       2.509683             0.00681610252            0.000287707289           
       2.512323             0.00719382641            0.000296728996           
       2.514963              0.0136117948            0.000408978589           
       2.517604              0.0316173347            0.000620871806           
       2.520244              0.0176242457            0.000463649211           
       2.522884             0.00896331864             0.00032992682           
       2.525525             0.00973302309             0.00034662496           
       2.528165              0.0156371853              0.0004373481           
       2.530806              0.0214995541            0.000510892333           
       2.533446              0.0157710971            0.000441456615           
       2.536086              0.0117175246            0.000377324246           
       2.538727              0.0126036425            0.000393840282           
       2.541367              0.0121544964            0.000385653216           
       2.544008             0.00732801963            0.000299701924           
       2.546648             0.00744640692            0.000302456188           
       2.549288             0.00769272999            0.000307462283           
       2.551929              0.0072212754            0.000298875792           
       2.554569             0.00705244538            0.000292662262           
       2.557209             0.00702931381            0.000295483207           
       2.559850              0.0072135985            0.000295889374           
       2.562490             0.00734718392            0.000300790811           
       2.565131             0.00690724244            0.000292153721           
       2.567771             0.00691644377            0.000290798797           
       2.570411             0.00697350117            0.000295549087           
       2.573052             0.00704817487            0.000293658935           
       2.575692             0.00698577745            0.000293131709           
       2.578332             0.00683543493            0.000289103717           
       2.580973             0.00711298152            0.000297305888           
       2.583613             0.00691914778            0.000290554881           
       2.586254             0.00725016286            0.000300055108           
       2.588894             0.00698952295            0.000293040766           
       2.591534             0.00727245232            0.000299462753           
       2.594175             0.00681960399            0.000291672604           
       2.596815             0.00710884345            0.000295024974           
       2.599456             0.00680169516            0.000290942196           
       2.602096             0.00683259979             0.00029051117           
       2.604736             0.00761037277            0.000307404575           
       2.607377             0.00706888744            0.000295133776           
       2.610017             0.00614592907            0.000275096708           
       2.612657             0.00686790712             0.00029286055           
       2.615298             0.00721760076            0.000297287076           
       2.617938             0.00713951808             0.00029826122           
       2.620579              0.0073811134            0.000300788423           
       2.623219             0.00663328007            0.000289705193           
       2.625859             0.00801066406            0.000313000104           
       2.628500             0.00684376871            0.000293930014           
       2.631140             0.00671844397            0.000286090679           
       2.633780             0.00742295379             0.00030457926           
       2.636421             0.00681736082            0.000289234475           
       2.639061             0.00725179744            0.000301874584           
       2.641702             0.00719928004            0.000297564179           
       2.644342             0.00719768279            0.000299971843           
       2.646982             0.00718537501            0.000299460812           
       2.649623               0.007459994            0.000306958935           
       2.652263             0.00691134006            0.000293104538           
       2.654904             0.00726052627            0.000302048856           
       2.657544             0.00713595166            0.000297339608           
       2.660184             0.00704425766            0.000295800966           
       2.662825              0.0071889338            0.000299539387           
       2.665465             0.00732983882            0.000303020069           
       2.668105             0.00694471928            0.000295068911           
       2.670746             0.00676714808            0.000288807575           
       2.673386             0.00651324026            0.000286771579           
       2.676027             0.00751423179             0.00030540217           
       2.678667             0.00724615901            0.000301464151           
       2.681307             0.00752140842            0.000304721269           
       2.683948             0.00704834163            0.000297912329           
       2.686588             0.00721725484            0.000298694535           
       2.689229             0.00764889484            0.000310256534           
       2.691869             0.00786862259            0.000311540308           
       2.694509             0.00756847395             0.00030973082           
       2.697150             0.00742110642            0.000301805519           
       2.699790             0.00755069515            0.000310752885           
       2.702430             0.00621232438            0.000276465674           
       2.705071             0.00697770565            0.000297011931           
       2.707711             0.00678340416            0.000289943475           
       2.710352             0.00669406469            0.000289667235           
       2.712992             0.00652077512            0.000286822855           
       2.715632             0.00656812595            0.000286224916           
       2.718273             0.00673159848            0.000290726879           
       2.720913             0.00659849818              0.0002883189           
       2.723553             0.00735347083            0.000303308795           
       2.726194             0.00639923944            0.000284310232           
       2.728834              0.0064087474             0.00028199217           
       2.731475             0.00701501655             0.00029760755           
       2.734115             0.00653101457            0.000285446243           
       2.736755             0.00662701091            0.000289437158           
       2.739396             0.00703707157            0.000296680356           
       2.742036             0.00740322945            0.000306378043           
       2.744677             0.00680090508            0.000294079592           
       2.747317             0.00756729159            0.000308700073           
       2.749957             0.00752073011            0.000309981473           
       2.752598               0.007205697            0.000304333385           
       2.755238             0.00696656614            0.000299106055           
       2.757878             0.00691073023              0.0002970568           
       2.760519             0.00715271889            0.000299022047           
       2.763159             0.00746149712            0.000310374034           
       2.765800             0.00740477611            0.000303954439           
       2.768440             0.00657801613            0.000290257731           
       2.771080             0.00648046068            0.000285669548           
       2.773721              0.0065607656            0.000290960299           
       2.776361             0.00653618319             0.00028729554           
       2.779001             0.00683664319             0.00029691322           
       2.781642             0.00697877024            0.000297936678           
       2.784282             0.00698844282            0.000298247087           
       2.786923             0.00739386279            0.000304443084           
       2.789563             0.00639745338             0.00028375631           
       2.792203             0.00673434301            0.000292984945           
       2.794844             0.00653462472             0.00028729455           
       2.797484             0.00649131088            0.000286744275           
       2.800125              0.0066796148            0.000290497681           
       2.802765             0.00622249255            0.000285579101           
       2.805405             0.00668697911            0.000291772583           
       2.808046             0.00659436672            0.000294187876           
       2.810686             0.00669033776            0.000293163429           
       2.813326             0.00662275138            0.000295287594           
       2.815967             0.00651560265            0.000291043346           
       2.818607             0.00694787345            0.000303547131           
       2.821248             0.00691863152            0.000299130748           
       2.823888             0.00650596907            0.000294744902           
       2.826528             0.00655165338            0.000294013254           
       2.829169             0.00662622593            0.000294376387           
       2.831809             0.00680931471             0.00029867708           
       2.834449             0.00708700591            0.000299387808           
       2.837090             0.00753129273            0.000310486858           
       2.839730             0.00730433787            0.000303601384           
       2.842371             0.00661850381            0.000291010501           
       2.845011             0.00665545943            0.000291170979           
       2.847651             0.00653310094             0.00028901181           
       2.850292             0.00677233889            0.000292584024           
       2.852932             0.00663408324            0.000290101395           
       2.855573             0.00688155271            0.000298057569           
       2.858213             0.00674449479            0.000291763662           
       2.860853             0.00655474067            0.000289782928           
       2.863494             0.00731724847            0.000306911676           
       2.866134             0.00731472108            0.000311162871           
       2.868774               0.007319327            0.000306496176           
       2.871415             0.00659957955            0.000293917127           
       2.874055             0.00705377387            0.000305367962           
       2.876696             0.00692868626            0.000299923011           
       2.879336             0.00716789467            0.000307081382           
       2.881976             0.00729527055            0.000309542863           
       2.884617             0.00650274609            0.000290622471           
       2.887257             0.00702973804            0.000300062438           
       2.889897             0.00712271035            0.000305502179           
       2.892538             0.00727012218            0.000306507333           
       2.895178             0.00626914842            0.000281723281           
       2.897819             0.00668133839            0.000293828603           
       2.900459             0.00654022955            0.000288302295           
       2.903099             0.00701457975            0.000300133281           
       2.905740             0.00677888571            0.000291754427           
       2.908380             0.00719359403            0.000304552736           
       2.911021             0.00697602512            0.000300481937           
       2.913661             0.00701984601            0.000298107104           
       2.916301             0.00662250115              0.0002936664           
       2.918942             0.00717669849            0.000301095151           
       2.921582             0.00671820701            0.000294374953           
       2.924222             0.00685805896            0.000295698048           
       2.926863             0.00631641738            0.000284534744           
       2.929503             0.00681573976            0.000298848382           
       2.932144             0.00728844081             0.00030396936           
       2.934784             0.00737930822            0.000307158163           
       2.937424             0.00746266792            0.000309459504           
       2.940065             0.00667349128            0.000292877922           
       2.942705             0.00645172587            0.000288845538           
       2.945346             0.00700920792             0.00029928809           
       2.947986              0.0080286107            0.000321433578           
       2.950626             0.00857711463            0.000333253671           
       2.953267              0.0104593414            0.000364097873           
       2.955907             0.00923166949            0.000346585384           
       2.958547             0.00804813812            0.000320288744           
       2.961188             0.00727638001            0.000307203746           
       2.963828             0.00647387653            0.000288126269           
       2.966469             0.00695221837            0.000298655492           
       2.969109             0.00708028552            0.000302935133           
       2.971749             0.00874656052            0.000335709499           
       2.974390             0.00991920607            0.000358487083           
       2.977030             0.00938216741            0.000347984044           
       2.979670             0.00825295016            0.000324267425           
       2.982311             0.00752471315            0.000311865036           
       2.984951             0.00771485484              0.0003165972           
       2.987592             0.00746290542            0.000310333623           
       2.990232             0.00758258326             0.00031361081           
       2.992872             0.00849289729            0.000329305669           
       2.995513             0.00939030561            0.000348986983           
       2.998153              0.0116967335            0.000392007655           
       3.000794              0.0223080769             0.00053349118           
       3.003434              0.0355776865            0.000680872576           
       3.006074              0.0250533664            0.000573201658           
       3.008715              0.0172842771             0.00047972737           
       3.011355              0.0181387453            0.000496553107           
       3.013995              0.0150207937            0.000449655097           
       3.016636               0.027734071            0.000612143746           
       3.019276               0.159176065             0.00150155742           
       3.021917               0.432726532             0.00243377843           
       3.024557                 0.1539122             0.00146306697           
       3.027197              0.0762524472             0.00104708808           
       3.029838               0.116909839             0.00129032798           
       3.032478              0.0888353624             0.00113150091           
       3.035118              0.0569668546            0.000910757675           
       3.037759              0.0921052391             0.00116010715           
       3.040399              0.0731618464             0.00104577809           
       3.043040              0.0615233681            0.000968311371           
       3.045680              0.0532450235            0.000886939222           
       3.048320              0.0798401021             0.00110351588           
       3.050961               0.189058657              0.0017151397           
       3.053601               0.123009942             0.00137735682           
       3.056242              0.0543628885             0.00092152761           
       3.058882               0.189409638             0.00174570565           
       3.061522               0.248219309             0.00198457858           
       3.064163               0.036673862            0.000764219958           
       3.066803              0.0186520938            0.000555548099           
       3.069443               0.035980314            0.000766457697           
       3.072084              0.0954847184             0.00125971276           
       3.074724              0.0429701544            0.000850051021           
       3.077365              0.0113605427            0.000436767213           
       3.080005             0.00932933438            0.000400189165           
       3.082645             0.00962789746            0.000408612262           
       3.085286             0.00818537543            0.000376828872           
       3.087926             0.00789263661            0.000372383448           
       3.090566             0.00725615647            0.000360730832           
       3.093207             0.00798902062            0.000374419968           
       3.095847             0.00758330503            0.000372435191           
       3.098488              0.0080504348            0.000383038942           
       3.101128             0.00800547426             0.00038404856           
       3.103768              0.0087961023             0.00040483457           
       3.106409              0.0096907325            0.000427769623           
       3.109049              0.0106186889            0.000451263473           
       3.111690              0.0132395521            0.000501900942           
       3.114330              0.0165902672            0.000566833099           
       3.116970              0.0173266716            0.000587335303           
       3.119611              0.0144209038            0.000532340681           
       3.122251              0.0106671282            0.000461593193           
       3.124891             0.00971644851            0.000442682876           
       3.127532             0.00805512706            0.000410325788           
       3.130172             0.00955463342            0.000437695733           
       3.132813             0.00871367551            0.000426497202           
       3.135453             0.00796734236            0.000416426246           
       3.138093             0.00651653501            0.000367672283           
       3.140734             0.00680927534            0.000382834741           
       3.143374             0.00610092001              0.0003679148           
       3.146014             0.00600194645            0.000362269363           
       3.148655             0.00621053101             0.00037141189           
       3.151295             0.00716497737            0.000402089614           
       3.153936             0.00680995071            0.000397788179           
       3.156576             0.00605775587            0.000370869805           
       3.159216             0.00696341076            0.000400879789           
       3.161857             0.00672270727            0.000398722238           
       3.164497             0.00638394951            0.000396739199           
       3.167138             0.00537269732            0.000355230403           
       3.169778              0.0062278717            0.000389364019           
       3.172418             0.00652509954            0.000400875874           
       3.175059             0.00628811853            0.000398679018           
       3.177699             0.00610201374             0.00039118378           
       3.180339             0.00591927923            0.000388725794           
       3.182980             0.00619876216            0.000403167124           
       3.185620             0.00578503143            0.000393736407           
       3.188261             0.00672122046            0.000418841135           
       3.190901             0.00622915101            0.000409430959           
       3.193541             0.00579073667            0.000396060827           
       3.196182             0.00591102384            0.000408479024           
       3.198822             0.00602858537            0.000407520272           
       3.201463             0.00579427328            0.000404688776           
       3.204103             0.00586731641            0.000412654341           
       3.206743             0.00598694072            0.000420364003           
       3.209384             0.00593917702            0.000416817417           
       3.212024             0.00612118492            0.000424659204           
       3.214664             0.00608423929            0.000431445388           
       3.217305             0.00598446178            0.000437875987           
       3.219945             0.00598626879            0.000434280002           
       3.222586               0.005794765              0.0004296952           
       3.225226             0.00489614717            0.000403873335           
       3.227866             0.00604438435            0.000452210717           
       3.230507                0.00561121            0.000440904721           
       3.233147             0.00659151324            0.000470800999           
       3.235787             0.00564532178            0.000435820042           
       3.238428             0.00535550839            0.000431982752           
       3.241068             0.00523023075            0.000435556862           
       3.243709             0.00606795937             0.00046653962           
       3.246349             0.00554180891            0.000443359738           
       3.248989             0.00667473081            0.000497693845           
       3.251630             0.00638854559            0.000489061581           
       3.254270             0.00562419141            0.000472978263           
       3.256911             0.00602212563            0.000477161895           
       3.259551             0.00580568545            0.000478861408           
       3.262191             0.00571420893            0.000479444477           
       3.264832             0.00568641491            0.000482764739           
       3.267472             0.00518723618            0.000467627405           
       3.270112             0.00470846794            0.000446792962           
       3.272753             0.00651389682            0.000531975372           
       3.275393             0.00497170524            0.000467146903           
       3.278034             0.00513368061            0.000484365644           
       3.280674             0.00598691655            0.000524588931           
       3.283314             0.00586414243            0.000522050916           
       3.285955             0.00523472739            0.000502503819           
       3.288595             0.00525021177            0.000508860731           
       3.291235             0.00564735447            0.000530856039           
       3.293876             0.00625962435            0.000562201897           
       3.296516             0.00583660233            0.000553945634           
       3.299157             0.00547847644            0.000544793589           
       3.301797             0.00532936797            0.000537556926           
       3.304437             0.00502091725            0.000531549184           
       3.307078             0.00532962962            0.000552966806           
       3.309718             0.00568562652            0.000576837431           
       3.312359             0.00639835403            0.000624289641           
       3.314999             0.00702000626            0.000660774047           
       3.317639             0.00511209418            0.000569947858           
       3.320280             0.00635369819            0.000644681437           
       3.322920             0.00509761529             0.00058609108           
       3.325560             0.00577501471            0.000635864079           
       3.328201             0.00609052008            0.000655763034           
       3.330841             0.00507711339            0.000613287578           
       3.333482             0.00587886457            0.000668316255           
       3.336122             0.00430934428            0.000584627151           
       3.338762             0.00423489638            0.000584855981           
       3.341403             0.00540244624            0.000666704092           
       3.344043              0.0059788271            0.000728137205           
       3.346683              0.0061976271            0.000748859926           
       3.349324             0.00509374922            0.000689410735           
       3.351964             0.00698517607            0.000833278363           
       3.354605             0.00492681822            0.000707741961           
       3.357245              0.0050647084            0.000742800243           
       3.359885              0.0062771962            0.000827244212           
       3.362526             0.00607828021            0.000855653941           
       3.365166             0.00500208124            0.000766633689           
       3.367807             0.00559425767               0.000867873           
       3.370447               0.005880052            0.000890110397           
       3.373087             0.00505492398            0.000871017817           
       3.375728             0.00543123706             0.00089603233           
       3.378368             0.00684682293             0.00108711053           
       3.381008              0.0031654121            0.000732724762           
       3.383649             0.00486656859            0.000983231414           
       3.386289             0.00566148325             0.00106093434           
       3.388930             0.00328136673            0.000887055498           
       3.391570             0.00545126937             0.00114381107           
       3.394210             0.00489645066             0.00116152745           
       3.396851             0.00408192209             0.00114879946           
       3.399491             0.00425039493             0.00119354262           
       3.402131             0.00548791674             0.00160536892           
       3.404772             0.00317139868             0.00122090705           
       3.407412             0.00490551494             0.00188420081           
       3.410053             0.00377222573              0.0017204835           
       3.412693             0.00291158006              0.0021385188           
       3.415333             0.00429114992             0.00318095679           
