################################################################################
# EDF_DataBlockID                     0.Image.Psd
# EDF_BinarySize                      2105344
# EDF_HeaderSize                      2560
# ByteOrder                           LowByteFirst
# DataType                            FloatValue
# Dim_1                               512
# Dim_2                               1028
# Image                               0
# HeaderID                            EH:000000:000000:000000
# Size                                2105344
# Center_1                            304.9000
# Center_2                            588.7000
# Comment                             Xenocs_Cell_Window - front_window_open_only
# DDummy                              0.6
# Date                                2025-10-19T17:06:58
# Delta                               21.910000
# Dummy                               -1.5
# ExposureTime                        360
# Gamma                               15.360000
# Intensity1                          8.91156e-10
# PSize_1                             7.5e-05
# PSize_2                             7.5e-05
# Pressure                            0.0327549
# SampleDistance                      0.115750
# SampleEnvKind                       large
# SampleEnvPN                         ElectroChemical cell
# SampleEnvSN                         1141
# Thickness                           0
# Wavelength                          1.541891e-10
# Wavelength                          1.54189e-10
# aux                                 0
# aux_dial                            0.002375
# beamx                               588.429
# beamx_dial                          588.429
# beamz                               657.855
# beamz_dial                          657.855
# det0x                               -0.000396875
# det0x_dial                          6.36905
# det0xvd                             -0.0005
# det0xvd_dial                        -0.0005
# det0y                               450.002
# det0y_dial                          481.635
# det0z                               0
# det0z_dial                          1.2295
# det0zvd                             0
# det0zvd_dial                        0
# mag                                 1.818
# mag_dial                            1.818
# om                                  0.2499
# om_dial                             -0.610199
# phi                                 -0.0120535
# phi_dial                            0
# ry                                  0.599993
# ry_dial                             0.599993
# s1bot                               0.8
# s1bot_dial                          -1.66094
# s1hl                                0.8
# s1hl_dial                           -0.608437
# s1hr                                0.8
# s1hr_dial                           0.970938
# s1top                               0.8
# s1top_dial                          -0.461562
# s2bot                               0.45
# s2bot_dial                          1.36109
# s2hl                                0.45
# s2hl_dial                           -0.83375
# s2hr                                0.45
# s2hr_dial                           -0.118594
# s2top                               0.45
# s2top_dial                          1.44734
# w2theta                             32
# w2theta_dial                        32
# waxsch                              19.2605
# waxsch_dial                         -32.7238
# waxsh                               137.085
# waxsh_dial                          -43.5335
# waxsth                              26.0607
# waxsth_dial                         -19.4068
# waxsz                               67.0407
# waxsz_dial                          -23.7962
# wind                                65.9854
# wind_dial                           66.0041
# wpsi                                124
# wpsi_dial                           124
# wstod                               115
# wstod_dial                          115
# x                                   0
# x_dial                              1.00969
# z                                   0
# z_dial                              13.3172
# CountCutoff                         6807993
# DetectorModel                       Dectris EIGER2 Si 500K, S/N E-01-0554
# ThresholdSetting                    4023.88989258
# Saturation                          0
# FlatField                           Corrected
# BackgroundReductionExtra            0.02
# BackgroundCorrectionConstant        0.0026712
# Detector                            0
# Monitor                             0
# Pil_Roi0                            0
# SumForIntensity1                    3.20816e+08
# TransmittedFlux                     891156
# det                                 0
# mon                                 0
# pilai0                              3.20816e+08
# pilai1                              693519
# pilct0                              5.54645e+08
# pilct1                              693519
# pilroi0                             0
# pilroi1                             0
# sec                                 1
# title                               20251017__1_00427.edf
# usaxs0                              0
# Operation                           Azimuthal average I(q)
# Error_model                         ErrorModel.poisson
# Geometrical_correction              True
# Transmission_correction             True
# Thickness_correction                False
# Binning mode                        Uniform
# Binning factor                      1.0
# Psi                                 0.0
# Omega                               0.2499
# MaskInvalidPixels                   True
# DetectorEdge                        3
# MaskFiles                           ['20251017__1_00233_mask.edf']
################################################################################
    q(A⁻¹)                Intensity(a.u.)            Sigma_I(a.u.)            
       0.690460           -2.27909526e-05                         0           
       0.693100             0.00793917541             0.00367962427           
       0.695741              0.0046910985             0.00238956678           
       0.698381             0.00821441361             0.00295744275           
       0.701021             0.00896108032             0.00252100156           
       0.703662             0.00762807122              0.0021529931           
       0.706302             0.00892583726             0.00224923898           
       0.708942             0.00962817926             0.00207504314           
       0.711583             0.00523530085             0.00152984109           
       0.714223             0.00798217327             0.00164611548           
       0.716864             0.00724419053             0.00160024457           
       0.719504             0.00565457456             0.00130848354           
       0.722144             0.00664284574             0.00136971772           
       0.724785              0.0056619353             0.00124382519           
       0.727425             0.00716639427             0.00129797136           
       0.730065             0.00441053897             0.00104773669           
       0.732706                0.00775149              0.0012490412           
       0.735346             0.00695538882             0.00127801871           
       0.737987             0.00641627546             0.00106244376           
       0.740627             0.00774249757             0.00127853549           
       0.743267              0.0099238973             0.00124508473           
       0.745908              0.0076376515             0.00117063323           
       0.748548             0.00697698927             0.00104353054           
       0.751189             0.00653023507             0.00100005657           
       0.753829             0.00526194974            0.000905802702           
       0.756469             0.00591310927            0.000903125796           
       0.759110              0.0070414713             0.00101937879           
       0.761750             0.00749995524            0.000962833967           
       0.764390             0.00677171664            0.000982089852           
       0.767031             0.00762614089            0.000943076885           
       0.769671             0.00743275033            0.000987401126           
       0.772312             0.00627815751            0.000826953657           
       0.774952             0.00532282729            0.000816305211           
       0.777592             0.00604132942             0.00079543138           
       0.780233             0.00541351393            0.000793785096           
       0.782873             0.00843199583            0.000905914638           
       0.785513             0.00646052057            0.000843529433           
       0.788154             0.00720155773            0.000818021536           
       0.790794             0.00710733614            0.000841072123           
       0.793435             0.00619239573            0.000754053386           
       0.796075             0.00718955205            0.000816793263           
       0.798715              0.0056351064            0.000718995024           
       0.801356             0.00619261116            0.000733551987           
       0.803996             0.00588125971            0.000726297508           
       0.806637             0.00771716697             0.00078643248           
       0.809277              0.0060244766            0.000726928246           
       0.811917             0.00640726889              0.0007094028           
       0.814558             0.00672817674            0.000744714606           
       0.817198             0.00721920554            0.000735541123           
       0.819838             0.00566654914            0.000679751959           
       0.822479              0.0066704351            0.000679655779           
       0.825119             0.00650602717             0.00072107096           
       0.827760             0.00703901401            0.000694975562           
       0.830400             0.00582342941            0.000666023825           
       0.833040             0.00724933754            0.000693527615           
       0.835681             0.00534880169            0.000623846809           
       0.838321             0.00659209467            0.000648229299           
       0.840961             0.00727277471             0.00071167962           
       0.843602             0.00558788602            0.000587612256           
       0.846242             0.00610842413            0.000636063688           
       0.848883             0.00797344336            0.000706922075           
       0.851523             0.00753426155            0.000692327409           
       0.854163             0.00647226374            0.000634226318           
       0.856804             0.00694164318            0.000640015288           
       0.859444             0.00738784614            0.000665011966           
       0.862085             0.00711187096            0.000642981768           
       0.864725              0.0063107709            0.000603462864           
       0.867365             0.00593487925            0.000581023782           
       0.870006             0.00604275698            0.000594460482           
       0.872646             0.00797934659            0.000653378183           
       0.875286             0.00897659971            0.000716618742           
       0.877927             0.00668024588            0.000591900317           
       0.880567             0.00695551039            0.000615771105           
       0.883208             0.00710395277            0.000604334948           
       0.885848              0.0074321031            0.000634165551           
       0.888488              0.0074401479            0.000603303798           
       0.891129             0.00692854265            0.000611987865           
       0.893769             0.00716965436            0.000588460015           
       0.896410             0.00766307518            0.000627112171           
       0.899050             0.00741461938            0.000594775935           
       0.901690             0.00711029332            0.000594599744           
       0.904331             0.00760095325            0.000593309783           
       0.906971             0.00702368417            0.000588925388           
       0.909611             0.00705454099             0.00056650969           
       0.912252             0.00715757293            0.000580519613           
       0.914892             0.00764520772            0.000584772287           
       0.917533             0.00668728556            0.000559252048           
       0.920173             0.00807213396            0.000589397153           
       0.922813              0.0070975307            0.000577552147           
       0.925454             0.00635235959            0.000518559446           
       0.928094             0.00728509436            0.000567246713           
       0.930734             0.00762778861            0.000566582688           
       0.933375             0.00711806059            0.000558991919           
       0.936015             0.00635164764            0.000505238725           
       0.938656             0.00698980699            0.000552244077           
       0.941296             0.00739944692            0.000547739175           
       0.943936             0.00803266882            0.000580973123           
       0.946577             0.00821335965            0.000565771014           
       0.949217             0.00719308641            0.000548164528           
       0.951858             0.00703082644            0.000512346805           
       0.954498             0.00756880483            0.000559252808           
       0.957138             0.00694996029            0.000515081688           
       0.959779             0.00702809773             0.00052929855           
       0.962419             0.00761736073            0.000530484953           
       0.965059             0.00586909034            0.000478872774           
       0.967700             0.00814772059            0.000545979766           
       0.970340             0.00724020408            0.000529138197           
       0.972981             0.00753267042            0.000521114793           
       0.975621             0.00755842791            0.000532934852           
       0.978261             0.00728376318            0.000499162264           
       0.980902             0.00745674785            0.000529103144           
       0.983542             0.00757429206            0.000517730145           
       0.986182             0.00727683618            0.000514145137           
       0.988823             0.00694188253            0.000485969765           
       0.991463              0.0073904525            0.000513401705           
       0.994104             0.00895004289            0.000545937621           
       0.996744             0.00848842819            0.000548913884           
       0.999384             0.00815744038            0.000519842118           
       1.002025             0.00679294577             0.00048758498           
       1.004665             0.00770699404            0.000498080524           
       1.007306              0.0079896908            0.000524126235           
       1.009946             0.00732026654            0.000482389543           
       1.012586             0.00723891957            0.000493500617           
       1.015227              0.0077265033            0.000494417001           
       1.017867             0.00761286106            0.000504831326           
       1.020507             0.00766947829            0.000487629852           
       1.023148             0.00762549994            0.000492102668           
       1.025788             0.00804323979            0.000500226939           
       1.028429             0.00711899675            0.000480897683           
       1.031069             0.00887689141            0.000517372256           
       1.033709                0.00784595             0.00049574245           
       1.036350             0.00775219445            0.000479850161           
       1.038990             0.00767332328            0.000489188943           
       1.041630               0.007383314            0.000470623872           
       1.044271             0.00777255767             0.00048292426           
       1.046911             0.00743925136            0.000463678167           
       1.049552             0.00804914342            0.000499691997           
       1.052192             0.00740406298            0.000457699343           
       1.054832             0.00815041607            0.000489553104           
       1.057473             0.00714140243            0.000452447869           
       1.060113             0.00837623069            0.000495311797           
       1.062754             0.00770122972             0.00046968242           
       1.065394             0.00738090384            0.000454972847           
       1.068034             0.00863594687            0.000490231311           
       1.070675             0.00858644141            0.000497422014           
       1.073315             0.00807539411            0.000467647032           
       1.075955             0.00775816183            0.000466057014           
       1.078596             0.00747023712            0.000456423022           
       1.081236             0.00786703457             0.00046144095           
       1.083877             0.00806077556            0.000481679604           
       1.086517             0.00813328857            0.000472896151           
       1.089157             0.00725701486             0.00044997067           
       1.091798             0.00808553108              0.0004648995           
       1.094438             0.00866698156            0.000488975085           
       1.097078             0.00945400475            0.000497570374           
       1.099719             0.00892626034            0.000495874369           
       1.102359              0.0091740683            0.000476227284           
       1.105000             0.00875748289            0.000483613959           
       1.107640             0.00744165844            0.000431271962           
       1.110280             0.00855066756            0.000471548697           
       1.112921             0.00915318369            0.000479051715           
       1.115561               0.008831351            0.000476526091           
       1.118202             0.00797429958            0.000439597346           
       1.120842             0.00822612195            0.000460552173           
       1.123482             0.00838149938            0.000451840644           
       1.126123              0.0094323256             0.00048232056           
       1.128763             0.00783295313            0.000437350584           
       1.131403             0.00880291712            0.000462918569           
       1.134044             0.00773618817            0.000433211879           
       1.136684              0.0099831074             0.00049581688           
       1.139325             0.00797437873            0.000430650269           
       1.141965             0.00835372658            0.000446539104           
       1.144605             0.00963015736            0.000482258154           
       1.147246             0.00883301293            0.000453120186           
       1.149886             0.00834640298            0.000443594724           
       1.152527             0.00883288724            0.000456796739           
       1.155167             0.00950195677            0.000467120209           
       1.157807             0.00936804422            0.000464136463           
       1.160448             0.00886670386            0.000457724534           
       1.163088             0.00838257116            0.000428541652           
       1.165728             0.00949287081            0.000474837394           
       1.168369             0.00943638353             0.00045652159           
       1.171009             0.00941710068            0.000459835997           
       1.173650             0.00984217006            0.000466709555           
       1.176290             0.00856087321            0.000440378904           
       1.178930             0.00883541002            0.000434807905           
       1.181571              0.0089344883            0.000451519933           
       1.184211             0.00881186475            0.000434868019           
       1.186851             0.00923541369            0.000449301449           
       1.189492               0.008914611            0.000443880235           
       1.192132              0.0089352732            0.000437812765           
       1.194773             0.00882192673            0.000432402468           
       1.197413             0.00898665006            0.000439980771           
       1.200053             0.00929357643            0.000444616031           
       1.202694             0.00908416087            0.000436265604           
       1.205334             0.00949001874            0.000450779171           
       1.207975             0.00988237758             0.00045099024           
       1.210615             0.00934567565            0.000447847011           
       1.213255             0.00917087103            0.000431902311           
       1.215896             0.00853625307             0.00042458917           
       1.218536             0.00874127645            0.000417282624           
       1.221176             0.00949615724             0.00044530865           
       1.223817             0.00941125398            0.000434075893           
       1.226457             0.00931197918            0.000437264721           
       1.229098             0.00994405925            0.000445006332           
       1.231738             0.00993128827            0.000450982834           
       1.234378             0.00924701964            0.000426713668           
       1.237019             0.00873525751            0.000418082945           
       1.239659             0.00940344854            0.000433543951           
       1.242299             0.00916446232            0.000425811217           
       1.244940              0.0091105624            0.000419974394           
       1.247580             0.00973498914            0.000436045027           
       1.250221             0.00979067016            0.000444428336           
       1.252861             0.00916638438            0.000414004602           
       1.255501             0.00938534581            0.000430748025           
       1.258142              0.0105098125            0.000446810799           
       1.260782              0.0103724473            0.000448895183           
       1.263423             0.00978677129            0.000427399016           
       1.266063             0.00974521342             0.00043443982           
       1.268703             0.00934991401            0.000414815999           
       1.271344             0.00976344094            0.000433122301           
       1.273984             0.00986762477            0.000428629707           
       1.276624             0.00989438505            0.000426591713           
       1.279265               0.010236964            0.000434861309           
       1.281905             0.00973519136            0.000426683766           
       1.284546             0.00979330763            0.000423280294           
       1.287186             0.00982917588            0.000424462109           
       1.289826             0.00992724689            0.000428786476           
       1.292467              0.0102412587            0.000427742101           
       1.295107              0.0101445195            0.000433220948           
       1.297747              0.0100384214            0.000419645936           
       1.300388              0.0100241137            0.000430115272           
       1.303028             0.00985560829            0.000415639667           
       1.305669              0.0103602604            0.000431653974           
       1.308309             0.00916816393            0.000399955741           
       1.310949             0.00956333098            0.000413575609           
       1.313590              0.0108292073            0.000433286398           
       1.316230              0.0109299717            0.000443132942           
       1.318871             0.00931964869            0.000400361653           
       1.321511             0.00998402795             0.00041646312           
       1.324151              0.0108634781             0.00043613487           
       1.326792              0.0102393329            0.000419990863           
       1.329432              0.0104417155            0.000426333499           
       1.332072             0.00995878139            0.000409218208           
       1.334713              0.0104126718            0.000423629195           
       1.337353              0.0109153788            0.000427062876           
       1.339994             0.00982536289            0.000410949988           
       1.342634              0.0115189957            0.000434943875           
       1.345274              0.0109240471            0.000429100041           
       1.347915              0.0105778955            0.000423369412           
       1.350555             0.00990247624            0.000408029653           
       1.353195              0.0112276061            0.000426161958           
       1.355836              0.0103117777            0.000416117269           
       1.358476              0.0105165184            0.000419046095           
       1.361117              0.0107580292            0.000413198279           
       1.363757               0.010974306             0.00043116168           
       1.366397              0.0106211475            0.000410958524           
       1.369038              0.0108145342            0.000423423298           
       1.371678               0.010924693            0.000416981107           
       1.374319              0.0109283113            0.000420357825           
       1.376959              0.0106195315             0.00040867197           
       1.379599              0.0104311522              0.0004129259           
       1.382240              0.0109637511            0.000415295683           
       1.384880              0.0096448516             0.00039429874           
       1.387520              0.0103769284            0.000404207541           
       1.390161              0.0104979237            0.000405452242           
       1.392801              0.0111361071            0.000420083374           
       1.395442               0.010676255            0.000407056684           
       1.398082              0.0114539891            0.000423065361           
       1.400722              0.0106870022            0.000406809069           
       1.403363              0.0100049606            0.000397266503           
       1.406003              0.0106368782            0.000399561896           
       1.408644             0.00995102159            0.000394578918           
       1.411284              0.0105719782            0.000404473308           
       1.413924              0.0101663623             0.00039174619           
       1.416565              0.0105778795            0.000399126409           
       1.419205              0.0109901665            0.000410837784           
       1.421845               0.010606876            0.000398535981           
       1.424486              0.0106843854            0.000401755323           
       1.427126              0.0110387862            0.000408106421           
       1.429767              0.0107330173            0.000396213405           
       1.432407              0.0101873437            0.000395734297           
       1.435047             0.00978671115            0.000376218954           
       1.437688              0.0105090203            0.000398488562           
       1.440328               0.010447764             0.00038962582           
       1.442968              0.0103456926            0.000393085048           
       1.445609              0.0105707066            0.000390801337           
       1.448249              0.0109661314            0.000400617396           
       1.450890              0.0102799107             0.00038511337           
       1.453530              0.0102167078            0.000386771469           
       1.456170              0.0102161215            0.000385889634           
       1.458811              0.0108750501              0.0003949724           
       1.461451              0.0100528511              0.0003825397           
       1.464092                0.01004129            0.000378987122           
       1.466732              0.0102592846            0.000380729268           
       1.469372              0.0107698988            0.000388889756           
       1.472013               0.010231918            0.000385833963           
       1.474653              0.0107247272             0.00038526269           
       1.477293             0.00942059507            0.000367157435           
       1.479934               0.010681995            0.000386874285           
       1.482574               0.010134144             0.00037589285           
       1.485215              0.0098538781            0.000371613078           
       1.487855              0.0102227645             0.00037842677           
       1.490495              0.0109028392            0.000389970463           
       1.493136              0.0104267432            0.000376359756           
       1.495776              0.0105726557            0.000385591453           
       1.498416              0.0103751122            0.000374551562           
       1.501057              0.0101279562            0.000373246418           
       1.503697              0.0101977734            0.000370929695           
       1.506338              0.0098089078            0.000366464072           
       1.508978              0.0103033906            0.000373369927           
       1.511618             0.00995750451            0.000366863896           
       1.514259             0.00992398322            0.000366907323           
       1.516899             0.00996158969            0.000367773041           
       1.519540              0.0100430542             0.00036722453           
       1.522180               0.010692544            0.000374180839           
       1.524820              0.0105163498            0.000378580124           
       1.527461             0.00957262034            0.000353203859           
       1.530101              0.0105711148            0.000375005525           
       1.532741              0.0105380245            0.000372644194           
       1.535382             0.00981754213            0.000360471976           
       1.538022             0.00982507067            0.000357419644           
       1.540663                0.01020624            0.000367729699           
       1.543303              0.0105160576            0.000368624249           
       1.545943              0.0101240698            0.000363715767           
       1.548584             0.00988122882             0.00036124059           
       1.551224              0.0104241622            0.000361520044           
       1.553864               0.009482163            0.000353805926           
       1.556505             0.00916388998            0.000342466943           
       1.559145             0.00974418037            0.000353960031           
       1.561786             0.00963841939            0.000350439087           
       1.564426             0.00943350183             0.00034638067           
       1.567066             0.00986215524            0.000351398639           
       1.569707              0.0101974458            0.000362495202           
       1.572347              0.0101990018            0.000357819409           
       1.574988             0.00986478895            0.000350515694           
       1.577628             0.00919365004            0.000346000838           
       1.580268             0.00937254529            0.000337294929           
       1.582909             0.00941114884            0.000344310605           
       1.585549             0.00948429728            0.000342415926           
       1.588189             0.00992288525            0.000354155596           
       1.590830             0.00907916514            0.000332949543           
       1.593470             0.00965377995            0.000346127681           
       1.596111             0.00952426523            0.000340827353           
       1.598751             0.00873036097             0.00032964914           
       1.601391             0.00925487241            0.000337237192           
       1.604032              0.0092718755            0.000334728034           
       1.606672             0.00925057707            0.000341072613           
       1.609312             0.00870320587             0.00032098401           
       1.611953             0.00901270635            0.000331375321           
       1.614593             0.00846580467            0.000318721179           
       1.617234             0.00892142498            0.000329040012           
       1.619874             0.00893627373            0.000325439601           
       1.622514             0.00881419817            0.000326067603           
       1.625155             0.00890798045            0.000326987021           
       1.627795             0.00919221973            0.000328806315           
       1.630436             0.00894540092            0.000327622214           
       1.633076             0.00871701102            0.000321769672           
       1.635716             0.00894322379             0.00032534965           
       1.638357             0.00846702775            0.000315224285           
       1.640997             0.00925223582            0.000332093715           
       1.643637             0.00839977139            0.000310549475           
       1.646278              0.0085835092             0.00031862659           
       1.648918             0.00859887111             0.00031480016           
       1.651559             0.00892046435             0.00032466419           
       1.654199             0.00930153465            0.000326981953           
       1.656839             0.00869566445            0.000316068282           
       1.659480             0.00835524059            0.000312548342           
       1.662120             0.00869819488            0.000314625007           
       1.664761             0.00863061533             0.00031679364           
       1.667401             0.00860031398            0.000313291009           
       1.670041             0.00826653439            0.000307502908           
       1.672682             0.00831501948             0.00030550135           
       1.675322             0.00872147006            0.000318410944           
       1.677962             0.00889483183            0.000315173807           
       1.680603             0.00863167369            0.000313231978           
       1.683243             0.00891400815            0.000315958736           
       1.685884             0.00858329934            0.000311222145           
       1.688524             0.00860425886            0.000310725211           
       1.691164             0.00921311792            0.000320704736           
       1.693805             0.00860995467            0.000312536213           
       1.696445             0.00834418445            0.000303404424           
       1.699085             0.00859027354            0.000309075001           
       1.701726             0.00844905305            0.000302536821           
       1.704366             0.00808574999            0.000303162319           
       1.707007             0.00812948456            0.000297494325           
       1.709647             0.00846880914            0.000307412298           
       1.712287             0.00865897646            0.000305649795           
       1.714928             0.00805364473            0.000297736602           
       1.717568             0.00839055475            0.000301105891           
       1.720209              0.0085148831            0.000305201617           
       1.722849             0.00821103223            0.000300187184           
       1.725489             0.00838204571             0.00029846291           
       1.728130             0.00807584034            0.000298924366           
       1.730770             0.00794880472            0.000290295323           
       1.733410             0.00823780343            0.000299404974           
       1.736051             0.00857916522            0.000300802794           
       1.738691             0.00806220834            0.000294575618           
       1.741332             0.00811751234            0.000293764674           
       1.743972             0.00804506248            0.000292559264           
       1.746612             0.00820849016             0.00029558384           
       1.749253             0.00845014008            0.000301199194           
       1.751893             0.00817862468            0.000294542927           
       1.754533              0.0083307168            0.000293189054           
       1.757174             0.00777219262            0.000288484988           
       1.759814             0.00801738553            0.000288533191           
       1.762455             0.00871011779            0.000303300482           
       1.765095             0.00857722093            0.000296751037           
       1.767735              0.0082222715            0.000295483025           
       1.770376             0.00808688529            0.000288596224           
       1.773016             0.00868057799            0.000299474049           
       1.775657             0.00879195404            0.000302006602           
       1.778297             0.00863683272            0.000300794841           
       1.780937             0.00806216918            0.000289259564           
       1.783578             0.00834633445             0.00029293114           
       1.786218             0.00821094751            0.000295181976           
       1.788858             0.00802942713            0.000284648578           
       1.791499             0.00934901362            0.000312810184           
       1.794139             0.00865115203            0.000295352278           
       1.796780             0.00895868754             0.00030234196           
       1.799420             0.00889591427            0.000300897269           
       1.802060             0.00946082017             0.00030648743           
       1.804701             0.00898634794            0.000302710561           
       1.807341             0.00888574942            0.000298102873           
       1.809981             0.00876831227            0.000298093056           
       1.812622             0.00923091007            0.000304188993           
       1.815262             0.00974787316            0.000313705349           
       1.817903             0.00907901997            0.000299011267           
       1.820543             0.00902349723            0.000301780042           
       1.823183             0.00857372723            0.000289630426           
       1.825824             0.00856370733            0.000293814143           
       1.828464             0.00791536195            0.000281606476           
       1.831105             0.00874101303            0.000297075093           
       1.833745             0.00877584719            0.000297480651           
       1.836385             0.00877587509            0.000296324122           
       1.839026             0.00838137366            0.000293940407           
       1.841666             0.00856824522            0.000293340153           
       1.844306             0.00886460194            0.000302136844           
       1.846947             0.00847123017            0.000291561459           
       1.849587             0.00873802258             0.00030013327           
       1.852228             0.00892884752            0.000300165959           
       1.854868             0.00900509544             0.00030697358           
       1.857508             0.00783228863            0.000281000468           
       1.860149             0.00865564849            0.000297769152           
       1.862789             0.00889951477            0.000303270764           
       1.865429             0.00876744895            0.000301919649           
       1.868070             0.00839330395            0.000294386544           
       1.870710             0.00885666587            0.000303226902           
       1.873351             0.00902992935            0.000308133231           
       1.875991             0.00855352681            0.000301517052           
       1.878631             0.00884019487            0.000303678975           
       1.881272              0.0085944765            0.000298727364           
       1.883912             0.00914875413            0.000311824302           
       1.886553             0.00862007056            0.000299049665           
       1.889193             0.00859020028            0.000301979602           
       1.891833             0.00888614834            0.000303642239           
       1.894474             0.00879495022            0.000304470897           
       1.897114             0.00846060849            0.000296311201           
       1.899754             0.00893474967            0.000307915751           
       1.902395             0.00845054811             0.00029951993           
       1.905035             0.00864748178            0.000301802481           
       1.907676             0.00830890386            0.000296179124           
       1.910316             0.00777347894            0.000288303975           
       1.912956             0.00872184554            0.000305372449           
       1.915597              0.0087708854            0.000303037181           
       1.918237             0.00900225481            0.000311668432           
       1.920878             0.00939384268            0.000312740425           
       1.923518             0.00864983653            0.000308073475           
       1.926158             0.00896747483            0.000306470963           
       1.928799             0.00857108622            0.000303602458           
       1.931439             0.00900284696            0.000308661779           
       1.934079             0.00864002722            0.000305440344           
       1.936720             0.00880014549            0.000306443259           
       1.939360             0.00819109634            0.000298498238           
       1.942001             0.00802767452            0.000294368739           
       1.944641             0.00826930305            0.000297478644           
       1.947281             0.00861010916            0.000305013344           
       1.949922             0.00811344747            0.000296456145           
       1.952562             0.00825704293            0.000301641545           
       1.955202             0.00820031734            0.000293051036           
       1.957843             0.00840561099             0.00030612168           
       1.960483             0.00833571748            0.000299983779           
       1.963124             0.00835595274            0.000300124944           
       1.965764             0.00786941146            0.000291360366           
       1.968404             0.00812249084            0.000301301615           
       1.971045             0.00835740025            0.000297966293           
       1.973685             0.00820671636            0.000300777989           
       1.976326             0.00803880594            0.000296387243           
       1.978966             0.00819066499            0.000300589319           
       1.981606             0.00790238107            0.000292129612           
       1.984247             0.00835141199            0.000302933322           
       1.986887             0.00782022116            0.000295882596           
       1.989527             0.00787278481            0.000290690394           
       1.992168              0.0078542249            0.000297352762           
       1.994808             0.00819806378            0.000300258175           
       1.997449             0.00795307363             0.00029530401           
       2.000089             0.00789551524            0.000292500927           
       2.002729              0.0077515996             0.00029646401           
       2.005370             0.00780482944            0.000291825233           
       2.008010             0.00811118865             0.00030144732           
       2.010650              0.0075887837            0.000290744225           
       2.013291             0.00829693826            0.000305737632           
       2.015931             0.00785206772            0.000295299364           
       2.018572             0.00790177012            0.000300166788           
       2.021212             0.00725403027            0.000285019689           
       2.023852             0.00760454154             0.00029335748           
       2.026493             0.00842522924            0.000307428485           
       2.029133             0.00783753667            0.000294250587           
       2.031774             0.00737754515            0.000288253664           
       2.034414             0.00767876605            0.000292324396           
       2.037054             0.00852014399            0.000311806161           
       2.039695             0.00743823077            0.000285598687           
       2.042335             0.00814872912            0.000304015981           
       2.044975             0.00777149174            0.000294522708           
       2.047616             0.00761420952            0.000292776357           
       2.050256             0.00694701247            0.000276365458           
       2.052897             0.00777877409            0.000301103657           
       2.055537             0.00737475206            0.000285186657           
       2.058177             0.00779888868            0.000295863402           
       2.060818             0.00752972446            0.000291585746           
       2.063458             0.00769034348            0.000295085163           
       2.066098                0.00757661            0.000291595209           
       2.068739             0.00760476677            0.000295182543           
       2.071379             0.00767678318            0.000292197173           
       2.074020             0.00784954004            0.000299512732           
       2.076660             0.00785712265             0.00029762614           
       2.079300             0.00799297383            0.000300144629           
       2.081941             0.00805034011            0.000303051042           
       2.084581             0.00707619404            0.000284334864           
       2.087222             0.00739380244            0.000290843877           
       2.089862             0.00723943716            0.000284204753           
       2.092502             0.00785217448            0.000301365951           
       2.095143             0.00741768733            0.000288723288           
       2.097783             0.00770402654            0.000298720643           
       2.100423             0.00724858666            0.000284200424           
       2.103064              0.0073782157            0.000291681007           
       2.105704             0.00738267277            0.000290652895           
       2.108345             0.00712133893            0.000286772794           
       2.110985              0.0072137504            0.000284573438           
       2.113625             0.00755056786              0.0002957283           
       2.116266             0.00799174565            0.000301993453           
       2.118906             0.00771190586            0.000296443322           
       2.121546             0.00768712075            0.000295731575           
       2.124187             0.00747812034            0.000295718105           
       2.126827             0.00762033577            0.000293835188           
       2.129468             0.00730104518             0.00029061494           
       2.132108             0.00751651125            0.000294261862           
       2.134748             0.00714185062            0.000285753396           
       2.137389             0.00710226592            0.000287347106           
       2.140029             0.00745409899            0.000293663517           
       2.142670             0.00749902197             0.00029502837           
       2.145310             0.00752490442            0.000296666163           
       2.147950             0.00721720118             0.00029166049           
       2.150591             0.00776686413            0.000299788385           
       2.153231             0.00758175345            0.000300573376           
       2.155871             0.00702800441            0.000285209365           
       2.158512             0.00762436113            0.000302416505           
       2.161152             0.00791724488            0.000300472272           
       2.163793             0.00728375001            0.000292890021           
       2.166433             0.00759636418             0.00029392248           
       2.169073              0.0075719849            0.000300301839           
       2.171714             0.00731516512            0.000289156076           
       2.174354             0.00756696026            0.000298584486           
       2.176995             0.00740266017            0.000292875371           
       2.179635             0.00749801111            0.000300333847           
       2.182275             0.00753851674            0.000295166024           
       2.184916             0.00766980688            0.000304017604           
       2.187556             0.00771210495            0.000299946873           
       2.190196             0.00710276746            0.000292378058           
       2.192837             0.00752627744            0.000297672757           
       2.195477             0.00764653147             0.00030293568           
       2.198118             0.00736417708            0.000291801497           
       2.200758             0.00711965882            0.000291371754           
       2.203398             0.00701894535            0.000284505913           
       2.206039             0.00755784769            0.000299738372           
       2.208679             0.00710744037            0.000287824432           
       2.211319             0.00671648749             0.00028111341           
       2.213960             0.00740067097            0.000291946775           
       2.216600              0.0070383359            0.000291418489           
       2.219241             0.00727220459            0.000291913965           
       2.221881             0.00766319492            0.000301220579           
       2.224521             0.00758104791            0.000298562571           
       2.227162             0.00704546281             0.00029234381           
       2.229802             0.00714682961            0.000289659898           
       2.232443             0.00680128916            0.000283681691           
       2.235083             0.00768026814             0.00029964834           
       2.237723             0.00735509196            0.000295483512           
       2.240364             0.00732661858            0.000293410976           
       2.243004             0.00731917865            0.000294147935           
       2.245644             0.00771884601            0.000301374684           
       2.248285             0.00701767261            0.000289225964           
       2.250925             0.00693565393            0.000286186291           
       2.253566             0.00749229514            0.000298176353           
       2.256206             0.00684255141            0.000284100456           
       2.258846             0.00717432669            0.000290909124           
       2.261487             0.00691247597            0.000286044899           
       2.264127             0.00707688885            0.000292165173           
       2.266767             0.00740921615            0.000294114582           
       2.269408             0.00723872188            0.000294163656           
       2.272048              0.0071568792             0.00029069674           
       2.274689             0.00712718717            0.000291233827           
       2.277329             0.00740030033            0.000296367062           
       2.279969             0.00747742265            0.000298810298           
       2.282610             0.00696536581            0.000285585081           
       2.285250             0.00735909241            0.000298162422           
       2.287891              0.0074309974            0.000296592092           
       2.290531             0.00733935115            0.000296211031           
       2.293171             0.00702154955            0.000289712654           
       2.295812             0.00730213139            0.000293876336           
       2.298452             0.00757060146            0.000301146384           
       2.301092             0.00664980909            0.000284031856           
       2.303733             0.00673668084            0.000280226525           
       2.306373             0.00746714398            0.000302244326           
       2.309014             0.00708512253            0.000288738012           
       2.311654             0.00740996603            0.000298085336           
       2.314294             0.00713472096            0.000291858159           
       2.316935             0.00702717341            0.000290794878           
       2.319575             0.00646122723            0.000277795117           
       2.322215             0.00698780807            0.000293010043           
       2.324856             0.00741641294            0.000294281887           
       2.327496             0.00742007142            0.000301568444           
       2.330137             0.00704852174            0.000288500534           
       2.332777             0.00714138863            0.000293570968           
       2.335417             0.00695794382            0.000288905954           
       2.338058             0.00694202974            0.000289730342           
       2.340698             0.00710595066            0.000290244938           
       2.343339             0.00708314451            0.000295308577           
       2.345979             0.00740647261            0.000295947628           
       2.348619             0.00706615514             0.00029452746           
       2.351260             0.00717562577            0.000290490997           
       2.353900               0.006784789            0.000288452518           
       2.356540             0.00724047907            0.000293883633           
       2.359181             0.00704754209             0.00029381878           
       2.361821             0.00723247798            0.000294022251           
       2.364462             0.00717575813            0.000297761706           
       2.367102             0.00711223099            0.000287868363           
       2.369742             0.00715073032            0.000298990624           
       2.372383             0.00666465324            0.000280235325           
       2.375023             0.00718130864            0.000298473782           
       2.377663             0.00731989483            0.000294936374           
       2.380304             0.00726896325            0.000297985521           
       2.382944             0.00671386106            0.000283580488           
       2.385585             0.00732185751            0.000298942181           
       2.388225             0.00723538009            0.000295828866           
       2.390865             0.00684321151            0.000288436713           
       2.393506             0.00731765076            0.000296893261           
       2.396146             0.00731639202            0.000297851694           
       2.398787             0.00711244588            0.000293927884           
       2.401427             0.00669819807            0.000283507943           
       2.404067             0.00720570816            0.000298540424           
       2.406708             0.00723209187            0.000295327254           
       2.409348             0.00710942107            0.000295014613           
       2.411988             0.00683066227            0.000288249502           
       2.414629             0.00710954825            0.000295037234           
       2.417269             0.00686299546             0.00028724379           
       2.419910             0.00774247497            0.000308941495           
       2.422550             0.00663843128            0.000281725412           
       2.425190             0.00690003927            0.000296266092           
       2.427831             0.00704242695            0.000288050756           
       2.430471             0.00679786761            0.000291277697           
       2.433112             0.00650342761             0.00027817718           
       2.435752             0.00719626219            0.000300027893           
       2.438392             0.00722511414            0.000295575736           
       2.441033             0.00704273397            0.000293158589           
       2.443673             0.00729389388            0.000299136829           
       2.446313             0.00696817818            0.000290823639           
       2.448954             0.00768112441            0.000308018391           
       2.451594             0.00682924256            0.000288693381           
       2.454235             0.00736917905            0.000298955583           
       2.456875             0.00778614993            0.000308853686           
       2.459515             0.00735871596            0.000300719469           
       2.462156             0.00737394533            0.000299478711           
       2.464796             0.00771935887            0.000311817502           
       2.467436              0.0077071864              0.0003050384           
       2.470077             0.00782739281            0.000311647013           
       2.472717             0.00831272217             0.00031714481           
       2.475358             0.00719251497             0.00029834519           
       2.477998             0.00707820479            0.000294385896           
       2.480638             0.00816509689            0.000316949496           
       2.483279             0.00754949083            0.000306076474           
       2.485919             0.00763378916            0.000305625508           
       2.488560             0.00696110023            0.000293059738           
       2.491200             0.00759699574            0.000305732997           
       2.493840             0.00691811672             0.00029016452           
       2.496481             0.00702863309            0.000296297637           
       2.499121             0.00720575342             0.00029601327           
       2.501761             0.00667612448            0.000289765278           
       2.504402              0.0072228456            0.000295620583           
       2.507042              0.0069274481             0.00029432503           
       2.509683             0.00699471151            0.000293057119           
       2.512323             0.00740300207            0.000302669396           
       2.514963              0.0141989789            0.000420006485           
       2.517604              0.0285627849            0.000593368038           
       2.520244              0.0163871955            0.000449542894           
       2.522884             0.00800576711            0.000313522882           
       2.525525             0.00878284461            0.000331083944           
       2.528165              0.0161912395            0.000447478904           
       2.530806              0.0242452509             0.00054552237           
       2.533446              0.0122022651            0.000390446801           
       2.536086             0.00916005259            0.000335451953           
       2.538727             0.00956366853            0.000344960142           
       2.541367             0.00939676435            0.000340959037           
       2.544008             0.00723774641            0.000299490095           
       2.546648             0.00754408672            0.000306109629           
       2.549288             0.00758809868             0.00030704544           
       2.551929             0.00700628878            0.000296014078           
       2.554569             0.00710826494            0.000295435872           
       2.557209             0.00721221849            0.000300950687           
       2.559850             0.00720674127            0.000297377026           
       2.562490             0.00690294576            0.000293160803           
       2.565131             0.00713508618            0.000298567993           
       2.567771             0.00687111179            0.000291440062           
       2.570411             0.00668419069            0.000290946517           
       2.573052             0.00671976075            0.000288314413           
       2.575692             0.00659994723            0.000286490498           
       2.578332             0.00698740304            0.000293909118           
       2.580973             0.00688862614             0.00029419043           
       2.583613             0.00753213336            0.000304821388           
       2.586254             0.00724818173            0.000301665916           
       2.588894             0.00655157447            0.000285273663           
       2.591534             0.00680658557            0.000291307449           
       2.594175             0.00655441367            0.000287519661           
       2.596815             0.00692931666            0.000292879567           
       2.599456             0.00768621425            0.000310984639           
       2.602096             0.00678274131            0.000291042917           
       2.604736             0.00706662836            0.000297850306           
       2.607377             0.00708796812            0.000297158955           
       2.610017             0.00710600758            0.000297432908           
       2.612657             0.00729290656            0.000303447494           
       2.615298             0.00677162658            0.000289541397           
       2.617938             0.00686771095            0.000294139201           
       2.620579             0.00736589291            0.000302132498           
       2.623219             0.00696516404            0.000298498636           
       2.625859             0.00720458109            0.000298468946           
       2.628500             0.00715233132            0.000302137512           
       2.631140             0.00653765686            0.000283769023           
       2.633780             0.00694358567            0.000296202289           
       2.636421             0.00693905225            0.000293411113           
       2.639061             0.00696511043            0.000297476241           
       2.641702             0.00735473826            0.000302415669           
       2.644342             0.00703686302            0.000298234754           
       2.646982             0.00683176446            0.000293606918           
       2.649623             0.00717095548            0.000302610586           
       2.652263             0.00710101269            0.000298735008           
       2.654904             0.00681488171            0.000294243494           
       2.657544             0.00702451272            0.000296633011           
       2.660184             0.00687926828            0.000293925766           
       2.662825             0.00709912841            0.000299301418           
       2.665465             0.00700785508            0.000297921126           
       2.668105             0.00726177431            0.000303390546           
       2.670746             0.00674974361            0.000290024003           
       2.673386             0.00676707378             0.00029391556           
       2.676027             0.00740026525            0.000304746012           
       2.678667             0.00685176983            0.000294759418           
       2.681307             0.00693669035            0.000294248258           
       2.683948             0.00725020178            0.000303811784           
       2.686588             0.00757069163            0.000307605147           
       2.689229             0.00704683424            0.000299435428           
       2.691869             0.00685795901            0.000292446813           
       2.694509             0.00705910548            0.000300773563           
       2.697150             0.00692427255            0.000293132849           
       2.699790             0.00753985521            0.000312239447           
       2.702430             0.00696206443            0.000294284736           
       2.705071             0.00692084723            0.000297427943           
       2.707711             0.00727180765            0.000301852828           
       2.710352             0.00682871623            0.000294176867           
       2.712992             0.00668035309            0.000291909626           
       2.715632             0.00683621141            0.000293615519           
       2.718273             0.00667558258            0.000291108733           
       2.720913             0.00691331974            0.000296741609           
       2.723553             0.00665141315            0.000290054991           
       2.726194             0.00694297295            0.000297773201           
       2.728834             0.00700791078            0.000296503155           
       2.731475             0.00672469423            0.000292988403           
       2.734115             0.00672012896            0.000291143684           
       2.736755             0.00705021983            0.000300179711           
       2.739396             0.00751492234            0.000308275932           
       2.742036             0.00743289783            0.000308681554           
       2.744677             0.00722474329            0.000304773571           
       2.747317              0.0077486045            0.000314096292           
       2.749957             0.00735850524            0.000308308218           
       2.752598             0.00719328324            0.000305745268           
       2.755238             0.00681226401            0.000297403532           
       2.757878             0.00736093785            0.000308268158           
       2.760519              0.0068263321            0.000293728374           
       2.763159             0.00755237556            0.000313977658           
       2.765800             0.00734287166            0.000304347723           
       2.768440             0.00757794032            0.000313253897           
       2.771080             0.00690767256            0.000296559229           
       2.773721             0.00636090845             0.00028807171           
       2.776361             0.00665911467            0.000291581245           
       2.779001              0.0069021576             0.00029997501           
       2.781642             0.00674847699            0.000294592693           
       2.784282             0.00666190933            0.000292799226           
       2.786923             0.00655928822             0.00028832569           
       2.789563             0.00689132689            0.000296126963           
       2.792203              0.0068203824            0.000296474001           
       2.794844             0.00668350305            0.000292148527           
       2.797484             0.00662658429            0.000291311734           
       2.800125             0.00610980479            0.000279360624           
       2.802765             0.00688823273            0.000302122242           
       2.805405             0.00724081983            0.000305286733           
       2.808046             0.00670846763            0.000298355777           
       2.810686             0.00712939195            0.000304296236           
       2.813326             0.00677781446            0.000300369186           
       2.815967             0.00664689122            0.000295579444           
       2.818607             0.00602016812            0.000284111659           
       2.821248             0.00675768394             0.00029725862           
       2.823888                0.00697974             0.00030696898           
       2.826528             0.00714352833            0.000308696995           
       2.829169             0.00682003604            0.000300294757           
       2.831809             0.00662137585             0.00029614805           
       2.834449             0.00665465045            0.000291709048           
       2.837090             0.00662588119            0.000292829512           
       2.839730             0.00727624806            0.000304685391           
       2.842371             0.00708730042             0.00030279851           
       2.845011             0.00691134631            0.000298349255           
       2.847651             0.00714606453            0.000303930256           
       2.850292             0.00712636091            0.000301786451           
       2.852932             0.00638765697            0.000286229714           
       2.855573             0.00687461697            0.000299547535           
       2.858213             0.00678797584            0.000294314187           
       2.860853             0.00714639044            0.000304244666           
       2.863494             0.00727046582            0.000307613359           
       2.866134             0.00716630055            0.000309685561           
       2.868774             0.00726634448            0.000307066218           
       2.871415             0.00719044758            0.000308481614           
       2.874055             0.00646871815            0.000294039979           
       2.876696             0.00666294539            0.000295734526           
       2.879336             0.00661036233            0.000296520603           
       2.881976             0.00633371077            0.000290010533           
       2.884617             0.00693496149            0.000301777866           
       2.887257             0.00699887145            0.000301051389           
       2.889897             0.00696807092            0.000303831303           
       2.892538             0.00681661692            0.000298427624           
       2.895178             0.00717104903            0.000302966333           
       2.897819             0.00658062556            0.000293211156           
       2.900459             0.00762237983            0.000312954687           
       2.903099             0.00703921227            0.000302315158           
       2.905740             0.00699444617            0.000297988517           
       2.908380             0.00698013851            0.000301651943           
       2.911021             0.00669857283            0.000296067037           
       2.913661             0.00682988173            0.000295664844           
       2.916301             0.00673349527            0.000297747471           
       2.918942             0.00697141096             0.00029839141           
       2.921582             0.00709819511            0.000304251476           
       2.924222             0.00658940576            0.000291444282           
       2.926863             0.00652175348            0.000290714469           
       2.929503             0.00733026993            0.000311629782           
       2.932144             0.00765960341            0.000313328716           
       2.934784             0.00744319111            0.000310183281           
       2.937424              0.0069668659            0.000300649203           
       2.940065             0.00744516539             0.00031105116           
       2.942705             0.00682851243            0.000298796376           
       2.945346             0.00684796089            0.000297454239           
       2.947986              0.0079695519            0.000322012372           
       2.950626             0.00884850025            0.000340348416           
       2.953267              0.0106866933            0.000370060056           
       2.955907             0.00867494972            0.000337822185           
       2.958547             0.00769913386            0.000314991958           
       2.961188             0.00749693547            0.000313541673           
       2.963828             0.00639040566            0.000287838861           
       2.966469             0.00715193112            0.000304582557           
       2.969109             0.00705599376            0.000304080041           
       2.971749             0.00819615937            0.000326764402           
       2.974390              0.0090704006            0.000344693309           
       2.977030             0.00836182324            0.000330326029           
       2.979670             0.00784762753            0.000317945342           
       2.982311             0.00716151036            0.000305920506           
       2.984951             0.00694814729            0.000302108025           
       2.987592             0.00794191564            0.000321900804           
       2.990232              0.0069002949            0.000300815922           
       2.992872             0.00822238766            0.000325802798           
       2.995513              0.0101391618            0.000364632148           
       2.998153              0.0129914241            0.000415408323           
       3.000794               0.023164969            0.000546633952           
       3.003434              0.0331152271            0.000660503956           
       3.006074              0.0223200438            0.000544009492           
       3.008715              0.0155826039            0.000458008425           
       3.011355              0.0185008348            0.000504245824           
       3.013995              0.0159606382            0.000466061008           
       3.016636               0.027602247            0.000614049509           
       3.019276               0.158280945             0.00150557343           
       3.021917                0.43051249             0.00244090972           
       3.024557               0.159045973             0.00149545581           
       3.027197              0.0791852121              0.0010729091           
       3.029838               0.128526801             0.00136036671           
       3.032478               0.093603583             0.00116786534           
       3.035118              0.0622989611            0.000957671769           
       3.037759              0.0885217935              0.0011435775           
       3.040399              0.0720292156             0.00104336465           
       3.043040              0.0614627273            0.000973162707           
       3.045680              0.0532977486            0.000892263946           
       3.048320              0.0691957686              0.0010329811           
       3.050961              0.0739269848             0.00107841837           
       3.053601               0.103517052             0.00127047718           
       3.056242              0.0728225601               0.001072444           
       3.058882               0.117533033             0.00138272086           
       3.061522                0.27601774             0.00210428025           
       3.064163              0.0633775698             0.00101016521           
       3.066803              0.0205133457            0.000585815265           
       3.069443              0.0277647343            0.000676997461           
       3.072084              0.0815843825             0.00117082684           
       3.074724               0.065310967             0.00105375381           
       3.077365              0.0129902332            0.000469616694           
       3.080005             0.00912077536            0.000397869309           
       3.082645             0.00922606236            0.000402196627           
       3.085286             0.00787218637            0.000371584095           
       3.087926             0.00847479879            0.000387997186           
       3.090566             0.00759258162            0.000371030185           
       3.093207             0.00717729096            0.000356842908           
       3.095847             0.00853244744            0.000397230716           
       3.098488             0.00770339377            0.000376754869           
       3.101128              0.0077637683             0.00038028873           
       3.103768             0.00840395176            0.000397886125           
       3.106409             0.00930259368            0.000421422994           
       3.109049              0.0090381804            0.000418619833           
       3.111690              0.0128436764            0.000497062049           
       3.114330              0.0168231176            0.000573939766           
       3.116970              0.0188462268            0.000615921415           
       3.119611              0.0138841945            0.000525216456           
       3.122251              0.0105925439             0.00046250916           
       3.124891             0.00954058796            0.000441073616           
       3.127532             0.00790362589             0.00040868657           
       3.130172             0.00973514547            0.000444243503           
       3.132813              0.0084149955            0.000421431509           
       3.135453             0.00657368703            0.000380338623           
       3.138093             0.00707313093             0.00038516156           
       3.140734             0.00641191821            0.000373542005           
       3.143374             0.00651336587             0.00038224067           
       3.146014             0.00637987543            0.000375557304           
       3.148655             0.00652211921            0.000382710489           
       3.151295              0.0065663926            0.000387046755           
       3.153936             0.00590390832             0.00037242108           
       3.156576             0.00662149072            0.000389877384           
       3.159216             0.00605310591            0.000375817374           
       3.161857               0.006527872            0.000395065164           
       3.164497              0.0063245464            0.000397063206           
       3.167138             0.00592865182            0.000375211792           
       3.169778             0.00662924251            0.000403926648           
       3.172418             0.00564759757             0.00037500131           
       3.175059             0.00609407713            0.000394640413           
       3.177699              0.0056951303            0.000379997417           
       3.180339             0.00569782208            0.000383484621           
       3.182980             0.00558920934            0.000384939409           
       3.185620             0.00563621133            0.000390778724           
       3.188261             0.00617284926            0.000403601394           
       3.190901             0.00581467265            0.000397752986           
       3.193541             0.00576898518            0.000397492791           
       3.196182             0.00601037687            0.000414165406           
       3.198822             0.00493300047            0.000370665062           
       3.201463             0.00607235542            0.000416566966           
       3.204103             0.00551315578            0.000402208606           
       3.206743             0.00536867537            0.000400259065           
       3.209384             0.00597289874            0.000420300457           
       3.212024             0.00617831276            0.000428985191           
       3.214664             0.00638480315            0.000444407119           
       3.217305             0.00625322675            0.000450064992           
       3.219945             0.00579912593            0.000429791239           
       3.222586             0.00595856207            0.000438124849           
       3.225226             0.00632639622            0.000461615843           
       3.227866             0.00577269221            0.000444363705           
       3.230507             0.00629374577            0.000469521679           
       3.233147             0.00571272499            0.000440708101           
       3.235787             0.00597581493            0.000450864437           
       3.238428             0.00574156245            0.000449744297           
       3.241068             0.00539218309            0.000444683806           
       3.243709             0.00587229859            0.000461483128           
       3.246349             0.00553380385            0.000445478679           
       3.248989              0.0058150534            0.000467096712           
       3.251630              0.0059044149            0.000472754363           
       3.254270             0.00620683481            0.000499609622           
       3.256911             0.00600185934            0.000478981036           
       3.259551             0.00575806857            0.000479519272           
       3.262191             0.00614154791            0.000499785611           
       3.264832             0.00550881794            0.000477782285           
       3.267472              0.0046927146            0.000447227581           
       3.270112             0.00510646552            0.000467855006           
       3.272753             0.00517744442            0.000476884685           
       3.275393             0.00470730701            0.000457058314           
       3.278034             0.00505517817            0.000483294336           
       3.280674             0.00577815181            0.000518198985           
       3.283314             0.00493414253            0.000481505238           
       3.285955             0.00556915203            0.000521160429           
       3.288595             0.00638839677            0.000564405233           
       3.291235             0.00575517562            0.000538850254           
       3.293876             0.00622637576            0.000563793933           
       3.296516             0.00637412618             0.00058207907           
       3.299157             0.00511272881            0.000529191709           
       3.301797             0.00495468149            0.000521169561           
       3.304437             0.00508603522              0.0005379305           
       3.307078             0.00500861584            0.000539006463           
       3.309718             0.00562687312            0.000577008744           
       3.312359             0.00513300576            0.000562240899           
       3.314999             0.00621773783            0.000625295055           
       3.317639             0.00562122368            0.000600946348           
       3.320280             0.00654756226            0.000658046004           
       3.322920             0.00473306145            0.000567854692           
       3.325560             0.00603487174            0.000653591402           
       3.328201             0.00622703209            0.000666722109           
       3.330841             0.00506625807            0.000616004599           
       3.333482             0.00585074414            0.000670386737           
       3.336122             0.00518061603            0.000644538184           
       3.338762             0.00493291339            0.000634693207           
       3.341403             0.00518442756            0.000656708841           
       3.344043             0.00525617322            0.000686474838           
       3.346683             0.00498825263            0.000675533131           
       3.349324             0.00409477103            0.000621525049           
       3.351964             0.00585353324            0.000766999418           
       3.354605             0.00488638136            0.000708712216           
       3.357245             0.00547606563            0.000776629173           
       3.359885             0.00655356484            0.000849912565           
       3.362526             0.00458713515            0.000747417268           
       3.365166             0.00588635516            0.000836219564           
       3.367807             0.00688117375            0.000967833767           
       3.370447             0.00499865432            0.000825209856           
       3.373087             0.00794519222              0.0010980105           
       3.375728             0.00488247027             0.00085423757           
       3.378368             0.00397594177             0.00083297837           
       3.381008             0.00526164034            0.000949884677           
       3.383649             0.00455428098            0.000956398301           
       3.386289             0.00533999717             0.00103604464           
       3.388930             0.00717421534              0.0013188493           
       3.391570             0.00431914478             0.00102373822           
       3.394210             0.00666254075             0.00136236441           
       3.396851             0.00476965707             0.00124864795           
       3.399491             0.00628664709             0.00145954468           
       3.402131             0.00508273331             0.00155347518           
       3.404772             0.00597005007             0.00168434376           
       3.407412             0.00559622962             0.00202356524           
       3.410053             0.00526379816             0.00204355275           
       3.412693             0.00447572857             0.00266603065           
       3.415333             0.00879706194             0.00457956592           
