################################################################################
# EDF_DataBlockID                     0.Image.Psd
# EDF_BinarySize                      2105344
# EDF_HeaderSize                      2560
# ByteOrder                           LowByteFirst
# DataType                            FloatValue
# Dim_1                               512
# Dim_2                               1028
# Image                               0
# HeaderID                            EH:000000:000000:000000
# Size                                2105344
# Center_1                            304.9000
# Center_2                            588.7000
# Comment                             Xenocs_Cell_Window - front_window_open_only
# DDummy                              0.6
# Date                                2025-10-20T02:02:09
# Delta                               21.910000
# Dummy                               -1.5
# ExposureTime                        360
# Gamma                               15.360000
# Intensity1                          8.88934e-10
# PSize_1                             7.5e-05
# PSize_2                             7.5e-05
# Pressure                            0.0326958
# SampleDistance                      0.115750
# SampleEnvKind                       large
# SampleEnvPN                         ElectroChemical cell
# SampleEnvSN                         1141
# Thickness                           0
# Wavelength                          1.541891e-10
# Wavelength                          1.54189e-10
# aux                                 0
# aux_dial                            0.002375
# beamx                               588.429
# beamx_dial                          588.429
# beamz                               657.855
# beamz_dial                          657.855
# det0x                               -0.000396875
# det0x_dial                          6.36905
# det0xvd                             -0.0005
# det0xvd_dial                        -0.0005
# det0y                               450.002
# det0y_dial                          481.635
# det0z                               0
# det0z_dial                          1.2295
# det0zvd                             0
# det0zvd_dial                        0
# mag                                 1.818
# mag_dial                            1.818
# om                                  0.2499
# om_dial                             -0.610199
# phi                                 -0.0120535
# phi_dial                            0
# ry                                  0.599993
# ry_dial                             0.599993
# s1bot                               0.8
# s1bot_dial                          -1.66094
# s1hl                                0.8
# s1hl_dial                           -0.608437
# s1hr                                0.8
# s1hr_dial                           0.970938
# s1top                               0.8
# s1top_dial                          -0.461562
# s2bot                               0.45
# s2bot_dial                          1.36109
# s2hl                                0.45
# s2hl_dial                           -0.83375
# s2hr                                0.45
# s2hr_dial                           -0.118594
# s2top                               0.45
# s2top_dial                          1.44734
# w2theta                             32
# w2theta_dial                        32
# waxsch                              19.2605
# waxsch_dial                         -32.7238
# waxsh                               137.085
# waxsh_dial                          -43.5335
# waxsth                              26.0607
# waxsth_dial                         -19.4068
# waxsz                               67.0407
# waxsz_dial                          -23.7962
# wind                                65.9854
# wind_dial                           66.0041
# wpsi                                124
# wpsi_dial                           124
# wstod                               115
# wstod_dial                          115
# x                                   0
# x_dial                              1.00969
# z                                   0
# z_dial                              13.3172
# CountCutoff                         6807993
# DetectorModel                       Dectris EIGER2 Si 500K, S/N E-01-0554
# ThresholdSetting                    4023.88989258
# Saturation                          0
# FlatField                           Corrected
# BackgroundReductionExtra            0.02
# BackgroundCorrectionConstant        0.0026712
# Detector                            0
# Monitor                             0
# Pil_Roi0                            0
# SumForIntensity1                    3.20016e+08
# TransmittedFlux                     888934
# det                                 0
# mon                                 0
# pilai0                              3.20016e+08
# pilai1                              689812
# pilct0                              5.53486e+08
# pilct1                              689812
# pilroi0                             0
# pilroi1                             0
# sec                                 1
# title                               20251017__1_00508.edf
# usaxs0                              0
# Operation                           Azimuthal average I(q)
# Error_model                         ErrorModel.poisson
# Geometrical_correction              True
# Transmission_correction             True
# Thickness_correction                False
# Binning mode                        Uniform
# Binning factor                      1.0
# Psi                                 0.0
# Omega                               0.2499
# MaskInvalidPixels                   True
# DetectorEdge                        3
# MaskFiles                           ['20251017__1_00233_mask.edf']
################################################################################
    q(A⁻¹)                Intensity(a.u.)            Sigma_I(a.u.)            
       0.690460             0.00775827918             0.00814615821           
       0.693100             0.00952615615             0.00403568009           
       0.695741              0.0069984841             0.00292230806           
       0.698381             0.00620669697             0.00257395199           
       0.701021              0.0104136111             0.00272104495           
       0.703662              0.0059037731             0.00189645353           
       0.706302             0.00444349221             0.00158896906           
       0.708942              0.0065784661             0.00171735262           
       0.711583             0.00655912287             0.00171451185           
       0.714223             0.00567719412             0.00138998049           
       0.716864              0.0066128782             0.00153083648           
       0.719504             0.00660557818             0.00141600839           
       0.722144             0.00669237556             0.00137653181           
       0.724785             0.00650741342             0.00133512892           
       0.727425             0.00829554397             0.00139823222           
       0.730065             0.00712829515             0.00133364815           
       0.732706              0.0057860842             0.00108048478           
       0.735346             0.00718946053             0.00130096846           
       0.737987              0.0067981768             0.00109497143           
       0.740627             0.00714812518             0.00123001507           
       0.743267             0.00947833755              0.0012183329           
       0.745908              0.0076613417             0.00117391176           
       0.748548             0.00512679907            0.000895646004           
       0.751189             0.00562989927            0.000929720871           
       0.753829             0.00807343252              0.0011233924           
       0.756469              0.0068551452            0.000973622794           
       0.759110             0.00612310564            0.000951769697           
       0.761750             0.00884053451             0.00104665472           
       0.764390             0.00717922192             0.00101247109           
       0.767031             0.00476446773              0.0007463525           
       0.769671             0.00653417126            0.000926949792           
       0.772312             0.00866828637            0.000972912543           
       0.774952             0.00720934171            0.000951198805           
       0.777592             0.00501239004            0.000725439167           
       0.780233             0.00706178848            0.000907742716           
       0.782873             0.00758312402            0.000860177887           
       0.785513             0.00714157429            0.000887984883           
       0.788154             0.00731366136            0.000825393505           
       0.790794             0.00533817905            0.000729824583           
       0.793435             0.00685689515             0.00079447202           
       0.796075             0.00774856978            0.000849012559           
       0.798715              0.0066725488            0.000783362563           
       0.801356             0.00759540135            0.000813413667           
       0.803996             0.00734176999            0.000812497197           
       0.806637             0.00774633065            0.000788901203           
       0.809277             0.00596496593            0.000724232444           
       0.811917             0.00523415813             0.00064198067           
       0.814558             0.00707379095            0.000764556167           
       0.817198             0.00761345319            0.000756301923           
       0.819838             0.00600345587            0.000700541566           
       0.822479             0.00648357287            0.000670905326           
       0.825119             0.00883882387            0.000841510265           
       0.827760              0.0063724304            0.000662076659           
       0.830400             0.00561857804            0.000655021681           
       0.833040             0.00680340314            0.000672697495           
       0.835681             0.00711066803             0.00072018989           
       0.838321             0.00590794791            0.000614437024           
       0.840961             0.00723114729            0.000710526328           
       0.843602             0.00621655892            0.000620560619           
       0.846242             0.00672955231            0.000668453508           
       0.848883             0.00561356502            0.000593895555           
       0.851523             0.00660013261            0.000648798174           
       0.854163             0.00794620242            0.000703619841           
       0.856804             0.00606061808            0.000598769641           
       0.859444             0.00661219804            0.000629920256           
       0.862085             0.00626824849            0.000604396493           
       0.864725             0.00724722154            0.000647496195           
       0.867365              0.0074338748            0.000651085008           
       0.870006             0.00606140081             0.00059612047           
       0.872646             0.00767852112             0.00064174407           
       0.875286             0.00609088191            0.000591036676           
       0.877927             0.00658612597            0.000588449873           
       0.880567             0.00720004443             0.00062728442           
       0.883208             0.00743491585            0.000619024467           
       0.885848             0.00695763959            0.000614355651           
       0.888488             0.00785565011            0.000620695291           
       0.891129             0.00743120936            0.000634590726           
       0.893769              0.0064998759            0.000560999521           
       0.896410             0.00691737822            0.000596563333           
       0.899050              0.0072782228            0.000590015933           
       0.901690              0.0075365264            0.000612926899           
       0.904331             0.00863436022            0.000633147169           
       0.906971             0.00787858149            0.000624516495           
       0.909611                0.00712251            0.000569943237           
       0.912252             0.00702479041            0.000575828028           
       0.914892             0.00722126127            0.000569037354           
       0.917533             0.00704100744            0.000574568958           
       0.920173             0.00678726037            0.000541132001           
       0.922813             0.00655380384            0.000555682079           
       0.925454             0.00679446768             0.00053697101           
       0.928094             0.00743345209            0.000573709154           
       0.930734             0.00822316199            0.000589013852           
       0.933375             0.00821655289            0.000601328277           
       0.936015              0.0070942988            0.000534626251           
       0.938656             0.00744360256            0.000570600531           
       0.941296             0.00651844754            0.000514740536           
       0.943936             0.00702705052            0.000544069973           
       0.946577             0.00589971615            0.000480106893           
       0.949217              0.0067130103            0.000530217498           
       0.951858             0.00634260506            0.000487233104           
       0.954498             0.00709792286            0.000542253379           
       0.957138             0.00697435383            0.000516629315           
       0.959779             0.00652423366            0.000510609242           
       0.962419              0.0063722149            0.000485800687           
       0.965059             0.00713990062             0.00052883835           
       0.967700             0.00780182232            0.000534932052           
       0.970340             0.00803469652            0.000558110968           
       0.972981             0.00737753601             0.00051636488           
       0.975621               0.007659711            0.000537163736           
       0.978261             0.00638765516            0.000468033218           
       0.980902             0.00725383089            0.000522506185           
       0.983542              0.0086988962            0.000555528844           
       0.986182             0.00759179144            0.000525809801           
       0.988823             0.00784075048             0.00051712025           
       0.991463             0.00686364752            0.000495383329           
       0.994104             0.00794051891            0.000514869322           
       0.996744             0.00778762772             0.00052642351           
       0.999384             0.00719836664            0.000488937784           
       1.002025             0.00823693365            0.000537583757           
       1.004665             0.00633419145            0.000452110664           
       1.007306             0.00730443253            0.000501771815           
       1.009946             0.00812524203            0.000508855766           
       1.012586             0.00753041627            0.000503967378           
       1.015227             0.00714353481            0.000475993027           
       1.017867             0.00715695115            0.000490092977           
       1.020507             0.00762653583             0.00048687014           
       1.023148             0.00799191023            0.000504416131           
       1.025788             0.00854549972            0.000516252787           
       1.028429              0.0078534174            0.000505725365           
       1.031069             0.00726193941             0.00046853399           
       1.033709             0.00790790225             0.00049831745           
       1.036350              0.0073943635            0.000469230057           
       1.038990             0.00816997689            0.000505402525           
       1.041630             0.00721848919            0.000465922354           
       1.044271             0.00789022166            0.000487173613           
       1.046911             0.00745553867            0.000464765255           
       1.049552             0.00868205409            0.000519614084           
       1.052192             0.00791631003            0.000473858574           
       1.054832             0.00796555898            0.000484574054           
       1.057473             0.00856594506            0.000496142631           
       1.060113             0.00778768591            0.000478190209           
       1.062754             0.00816209546            0.000484135813           
       1.065394             0.00801364408            0.000474665688           
       1.068034             0.00753713246            0.000458554805           
       1.070675             0.00774332301            0.000472959761           
       1.073315             0.00779386857            0.000459996965           
       1.075955             0.00769237484            0.000464656438           
       1.078596             0.00807239362            0.000475054704           
       1.081236              0.0072386977            0.000443182836           
       1.083877             0.00796784121            0.000479493017           
       1.086517             0.00752122664            0.000455322524           
       1.089157             0.00880707218            0.000496321499           
       1.091798             0.00876662406            0.000484688934           
       1.094438              0.0078327746            0.000465428227           
       1.097078             0.00703710998            0.000429819272           
       1.099719             0.00776596189            0.000463101964           
       1.102359              0.0095776762            0.000487197973           
       1.105000             0.00834400213            0.000472648726           
       1.107640             0.00909181245            0.000477291501           
       1.110280             0.00912125522            0.000487636214           
       1.112921             0.00761444093            0.000437479221           
       1.115561              0.0079778868            0.000453481063           
       1.118202             0.00843500701            0.000452682412           
       1.120842             0.00817470337            0.000459683985           
       1.123482             0.00852971389            0.000456387537           
       1.126123             0.00871903499            0.000464304296           
       1.128763             0.00807797871            0.000444693117           
       1.131403             0.00867707941            0.000460172001           
       1.134044             0.00836796092            0.000451116566           
       1.136684             0.00828648184            0.000452288595           
       1.139325             0.00831954445             0.00044042116           
       1.141965             0.00848043389            0.000450474813           
       1.144605             0.00893852852            0.000465198185           
       1.147246             0.00792539475            0.000429745698           
       1.149886             0.00867275258            0.000452748776           
       1.152527             0.00835343303            0.000444781033           
       1.155167             0.00823744871            0.000435472367           
       1.157807              0.0076298187            0.000419392288           
       1.160448             0.00933421388            0.000470223221           
       1.163088              0.0080584747            0.000420700422           
       1.165728             0.00898428729            0.000462519505           
       1.168369             0.00785517294            0.000417040769           
       1.171009             0.00890458555            0.000447706422           
       1.173650             0.00922014848            0.000452285148           
       1.176290             0.00851485093            0.000439742162           
       1.178930             0.00885174268            0.000435753191           
       1.181571             0.00914023953            0.000457259759           
       1.184211             0.00885346077            0.000436437642           
       1.186851             0.00855610883            0.000433001999           
       1.189492             0.00902234893            0.000447112207           
       1.192132             0.00874452855            0.000433655452           
       1.194773             0.00934109651            0.000445499765           
       1.197413             0.00908587086            0.000442955573           
       1.200053             0.00894019912            0.000436625791           
       1.202694             0.00900392103            0.000434877074           
       1.205334             0.00880374549            0.000434716529           
       1.207975             0.00963232269            0.000445804084           
       1.210615             0.00907672485            0.000441907144           
       1.213255             0.00923275057            0.000433898246           
       1.215896             0.00931951209            0.000444195309           
       1.218536             0.00996259777            0.000446037405           
       1.221176             0.00869732621            0.000426699536           
       1.223817              0.0101801022            0.000452022547           
       1.226457             0.00918440577            0.000434801548           
       1.229098             0.00956231049             0.00043692598           
       1.231738             0.00935147439            0.000438166702           
       1.234378             0.00905857304            0.000422870771           
       1.237019             0.00945437502            0.000435494944           
       1.239659             0.00992550002            0.000445972275           
       1.242299              0.0096172986            0.000436749345           
       1.244940             0.00976085517            0.000435247477           
       1.247580             0.00986517376            0.000439499192           
       1.250221              0.0101827581            0.000453806126           
       1.252861             0.00921363404            0.000415588694           
       1.255501               0.010210833            0.000449853239           
       1.258142              0.0104801335            0.000446736763           
       1.260782             0.00966761992            0.000433916554           
       1.263423             0.00990281123            0.000430462335           
       1.266063             0.00910810242            0.000420523247           
       1.268703              0.0100397022            0.000430382115           
       1.271344              0.0101115339            0.000441326215           
       1.273984             0.00969150093            0.000425317825           
       1.276624               0.010423415            0.000438394537           
       1.279265             0.00977895943            0.000425552957           
       1.281905             0.00901747822            0.000411167267           
       1.284546             0.00970488029            0.000421891283           
       1.287186             0.00926429627            0.000412599504           
       1.289826              0.0102838133            0.000436964211           
       1.292467              0.0107127263            0.000438023534           
       1.295107              0.0100345602            0.000431404816           
       1.297747              0.0106335751            0.000432446188           
       1.300388             0.00984473166            0.000426781831           
       1.303028              0.0105482254             0.00043053363           
       1.305669              0.0094112297            0.000411922679           
       1.308309              0.0097802744            0.000413607475           
       1.310949              0.0106130746            0.000436227501           
       1.313590              0.0106597627            0.000430420153           
       1.316230               0.010477962            0.000434415226           
       1.318871              0.0104456807            0.000424388088           
       1.321511              0.0104173315            0.000425935664           
       1.324151             0.00992617883            0.000417416412           
       1.326792               0.010406766            0.000423939628           
       1.329432              0.0102225682            0.000422362789           
       1.332072              0.0102204416            0.000415077115           
       1.334713              0.0109509725            0.000434983964           
       1.337353              0.0104703823            0.000418789508           
       1.339994              0.0101420844            0.000418042457           
       1.342634             0.00978944893            0.000401464496           
       1.345274              0.0104289043            0.000419786265           
       1.347915              0.0105533841            0.000423406794           
       1.350555             0.00994996114            0.000409517649           
       1.353195               0.011199394            0.000426157824           
       1.355836              0.0106221832            0.000422861329           
       1.358476              0.0107071791            0.000423355735           
       1.361117              0.0109489717            0.000417369703           
       1.363757              0.0107691944            0.000427646913           
       1.366397              0.0100562302            0.000400379641           
       1.369038              0.0100748639            0.000409197098           
       1.371678              0.0112450255            0.000423578677           
       1.374319              0.0103029957            0.000408664089           
       1.376959              0.0101720615            0.000400468876           
       1.379599             0.00968887787            0.000398460093           
       1.382240              0.0107350428            0.000411454514           
       1.384880              0.0107919157             0.00041760818           
       1.387520               0.010090131            0.000399080505           
       1.390161              0.0105905617            0.000407745903           
       1.392801               0.011130962            0.000420510895           
       1.395442             0.00991768505            0.000392819182           
       1.398082              0.0104161054            0.000403946526           
       1.400722              0.0109149772            0.000411638703           
       1.403363              0.0102517407            0.000402638379           
       1.406003              0.0107889178            0.000402909978           
       1.408644              0.0112104617            0.000419328037           
       1.411284              0.0103528918            0.000400760293           
       1.413924               0.011045821             0.00040884915           
       1.416565              0.0104221879            0.000396673069           
       1.419205              0.0104328619            0.000400785574           
       1.421845               0.010699151            0.000400765712           
       1.424486              0.0111548944            0.000411018819           
       1.427126              0.0109152957            0.000406324143           
       1.429767              0.0113986175            0.000408824063           
       1.432407              0.0107262248            0.000406573218           
       1.435047              0.0104589985            0.000389412103           
       1.437688             0.00960168999            0.000381373659           
       1.440328              0.0105835018            0.000392638477           
       1.442968              0.0103492524            0.000393643729           
       1.445609              0.0110952167            0.000400879672           
       1.448249             0.00975486602            0.000378316989           
       1.450890             0.00984292672            0.000377309866           
       1.453530             0.00981544723            0.000379573688           
       1.456170             0.00995014261            0.000381308819           
       1.458811              0.0104014538            0.000386758836           
       1.461451              0.0104372933            0.000390272493           
       1.464092             0.00985213353            0.000375869383           
       1.466732              0.0108056296            0.000391223444           
       1.469372              0.0105272475            0.000384964088           
       1.472013              0.0112319985            0.000404755311           
       1.474653             0.00992225108            0.000371031721           
       1.477293              0.0102792525            0.000384004253           
       1.479934              0.0102804225            0.000380006715           
       1.482574              0.0110433664            0.000392883129           
       1.485215              0.0112525835            0.000397608471           
       1.487855              0.0105511505            0.000384937029           
       1.490495              0.0107471584            0.000387659869           
       1.493136              0.0109502785            0.000386174446           
       1.495776               0.010429379            0.000383448186           
       1.498416              0.0108122074            0.000382837529           
       1.501057              0.0105033975             0.00038057631           
       1.503697              0.0100516868            0.000368723236           
       1.506338               0.010379478            0.000377442623           
       1.508978              0.0104216511            0.000375975572           
       1.511618              0.0106446821             0.00037978532           
       1.514259              0.0104201753            0.000376437595           
       1.516899             0.00992090236            0.000367479623           
       1.519540              0.0101311678            0.000369292633           
       1.522180              0.0100901696            0.000363942156           
       1.524820              0.0094552336            0.000359421073           
       1.527461              0.0094974252            0.000352253302           
       1.530101               0.010530584            0.000374753423           
       1.532741             0.00975691982            0.000359015528           
       1.535382              0.0101420638            0.000366838914           
       1.538022              0.0105807027             0.00037137267           
       1.540663             0.00968003619            0.000358572037           
       1.543303               0.010284593            0.000365000187           
       1.545943               0.010078085            0.000363342066           
       1.548584             0.00993541775            0.000362682199           
       1.551224              0.0106327918            0.000365575906           
       1.553864                0.01000837            0.000363944516           
       1.556505               0.010228454            0.000362264546           
       1.559145              0.0104539432            0.000367082554           
       1.561786             0.00980581615            0.000353910634           
       1.564426             0.00930140019            0.000344376456           
       1.567066             0.00928083598             0.00034131063           
       1.569707               0.010210825             0.00036318599           
       1.572347             0.00977186958            0.000350684038           
       1.574988             0.00956921817            0.000345655845           
       1.577628             0.00895643319            0.000341934421           
       1.580268             0.00916375064            0.000333933338           
       1.582909             0.00917392055            0.000340367962           
       1.585549             0.00905541965             0.00033500229           
       1.588189             0.00918530844            0.000341164713           
       1.590830              0.0090311372            0.000332482502           
       1.593470             0.00934902109            0.000341045885           
       1.596111             0.00924733276            0.000336255234           
       1.598751             0.00872474803            0.000329954763           
       1.601391             0.00880614125            0.000329370864           
       1.604032             0.00925083807            0.000334765689           
       1.606672             0.00899560881            0.000336759476           
       1.609312             0.00867490365            0.000320861943           
       1.611953             0.00919682117            0.000335161041           
       1.614593             0.00897665879             0.00032860659           
       1.617234             0.00850973086            0.000321759679           
       1.619874             0.00861313437            0.000319900476           
       1.622514             0.00917478284            0.000333085902           
       1.625155             0.00896617291            0.000328463072           
       1.627795             0.00845659567            0.000315769256           
       1.630436             0.00883015756            0.000325911564           
       1.633076             0.00892209315            0.000325939351           
       1.635716             0.00853042972            0.000318149217           
       1.638357                0.00947323            0.000333845346           
       1.640997              0.0082359433            0.000313715584           
       1.643637             0.00833605281            0.000309755769           
       1.646278             0.00854731311            0.000318351201           
       1.648918             0.00875345869            0.000318013955           
       1.651559             0.00865753556            0.000320243195           
       1.654199             0.00835312666            0.000310250951           
       1.656839             0.00851750914            0.000313204464           
       1.659480             0.00891685947            0.000323285175           
       1.662120             0.00807129879            0.000303453739           
       1.664761              0.0087103945            0.000318651961           
       1.667401             0.00886915343            0.000318547331           
       1.670041             0.00810308207            0.000304827902           
       1.672682             0.00863878207            0.000311781158           
       1.675322             0.00833764052            0.000311714376           
       1.677962              0.0081497953            0.000302062426           
       1.680603             0.00843002306            0.000309938178           
       1.683243             0.00820472906            0.000303506562           
       1.685884             0.00842530871             0.00030872968           
       1.688524             0.00854963556            0.000310124208           
       1.691164             0.00869241734            0.000311899337           
       1.693805             0.00847190962            0.000310407838           
       1.696445             0.00853826239            0.000307295937           
       1.699085             0.00879604064            0.000313145449           
       1.701726             0.00828456052             0.00029995152           
       1.704366             0.00777559457              0.0002976624           
       1.707007             0.00828486706            0.000300699054           
       1.709647             0.00831288591            0.000304949612           
       1.712287             0.00805446437            0.000295155766           
       1.714928             0.00840293389            0.000304504403           
       1.717568              0.0083489528            0.000300733651           
       1.720209             0.00822801201            0.000300391095           
       1.722849             0.00858944978            0.000307410042           
       1.725489             0.00828371364            0.000297077666           
       1.728130             0.00853618825            0.000307709961           
       1.730770             0.00827126722            0.000296494922           
       1.733410             0.00835182854            0.000301846533           
       1.736051             0.00833411226            0.000296845953           
       1.738691             0.00874558952            0.000307189553           
       1.741332             0.00881566025            0.000306519157           
       1.743972             0.00846064808            0.000300395256           
       1.746612             0.00817736469            0.000295391394           
       1.749253             0.00850515609            0.000302555536           
       1.751893             0.00828238811            0.000296775713           
       1.754533             0.00820171218            0.000291273475           
       1.757174             0.00828656006            0.000298250164           
       1.759814               0.008552804            0.000298384159           
       1.762455             0.00815956446            0.000293925107           
       1.765095             0.00821797964            0.000290832935           
       1.767735             0.00837040773              0.0002985053           
       1.770376             0.00817855809            0.000290589878           
       1.773016             0.00853271635            0.000297283384           
       1.775657             0.00840299695            0.000295619409           
       1.778297              0.0081493994            0.000292548611           
       1.780937             0.00784904386            0.000285767121           
       1.783578             0.00856469934            0.000297109008           
       1.786218             0.00820024998            0.000295358077           
       1.788858             0.00880832974            0.000298507762           
       1.791499             0.00820647028            0.000293439313           
       1.794139             0.00881231931            0.000298463051           
       1.796780             0.00919513461            0.000306688424           
       1.799420             0.00898527821            0.000302782538           
       1.802060             0.00888192296            0.000297333528           
       1.804701             0.00953600331            0.000312220392           
       1.807341             0.00951639394            0.000308885445           
       1.809981             0.00893638612            0.000301312346           
       1.812622             0.00940195246            0.000307377709           
       1.815262             0.00887783716            0.000299752411           
       1.817903             0.00847566483            0.000289265782           
       1.820543             0.00912751764            0.000303893576           
       1.823183             0.00835008515             0.00028618503           
       1.825824             0.00812459111            0.000286539603           
       1.828464             0.00860596083            0.000294001157           
       1.831105             0.00883499398            0.000299040903           
       1.833745             0.00844130795            0.000292119923           
       1.836385             0.00888606268            0.000298551038           
       1.839026             0.00865111764            0.000299006003           
       1.841666             0.00850860967            0.000292682651           
       1.844306             0.00861770085            0.000298271587           
       1.846947             0.00863145283              0.0002946734           
       1.849587             0.00864493182            0.000298903124           
       1.852228             0.00890874349            0.000300202339           
       1.854868             0.00903342364            0.000307840061           
       1.857508             0.00853234486            0.000293656089           
       1.860149             0.00818677978            0.000289953638           
       1.862789             0.00911358583            0.000307279886           
       1.865429             0.00858857809            0.000299197182           
       1.868070              0.0091585997            0.000307898893           
       1.870710             0.00856965218            0.000298645727           
       1.873351             0.00856812572             0.00030052554           
       1.875991             0.00878921623            0.000306024679           
       1.878631              0.0087760595            0.000302953304           
       1.881272             0.00871103361            0.000301121834           
       1.883912             0.00829612216            0.000297309412           
       1.886553             0.00884103388             0.00030323655           
       1.889193             0.00856055529            0.000301834613           
       1.891833             0.00817136269            0.000291537724           
       1.894474             0.00921386488            0.000312026961           
       1.897114             0.00842259318            0.000296014027           
       1.899754             0.00882793672            0.000306451975           
       1.902395             0.00824577365            0.000296238227           
       1.905035             0.00839728523            0.000297775896           
       1.907676             0.00859023576            0.000301527709           
       1.910316             0.00879927163            0.000307120204           
       1.912956             0.00840790577            0.000300200688           
       1.915597              0.0089909136            0.000307197885           
       1.918237             0.00887600345            0.000309861776           
       1.920878             0.00823593793            0.000293198012           
       1.923518             0.00820512818            0.000300424365           
       1.926158             0.00857767807            0.000300110528           
       1.928799             0.00894739508            0.000310583062           
       1.931439             0.00838654693            0.000298281708           
       1.934079             0.00844172513            0.000302291933           
       1.936720             0.00838966275            0.000299584615           
       1.939360             0.00852773273            0.000304950714           
       1.942001             0.00838149478            0.000301161643           
       1.944641              0.0082782132            0.000298010627           
       1.947281             0.00829966889            0.000299838229           
       1.949922             0.00840675137            0.000302143986           
       1.952562             0.00814544243            0.000299970353           
       1.955202             0.00827569462            0.000294762525           
       1.957843              0.0084608955            0.000307510337           
       1.960483             0.00825599657            0.000298918737           
       1.963124              0.0077733019            0.000289833766           
       1.965764             0.00900828172            0.000312120602           
       1.968404             0.00826588616            0.000304329227           
       1.971045             0.00855048848            0.000301765169           
       1.973685             0.00837130784            0.000304158603           
       1.976326             0.00816568509            0.000299090182           
       1.978966             0.00824813436            0.000302018771           
       1.981606             0.00862900311            0.000305646213           
       1.984247             0.00859872448            0.000307769954           
       1.986887             0.00777263514             0.00029534944           
       1.989527             0.00867482195            0.000305519465           
       1.992168             0.00789829335            0.000298558232           
       1.994808             0.00798803763            0.000296757261           
       1.997449             0.00752642074             0.00028763266           
       2.000089             0.00813413643            0.000297258884           
       2.002729             0.00799864138            0.000301527227           
       2.005370             0.00760733348            0.000288469213           
       2.008010             0.00818187682            0.000303136166           
       2.010650             0.00730152823            0.000285544634           
       2.013291             0.00786453333            0.000298035883           
       2.015931             0.00830471105            0.000304070904           
       2.018572             0.00786785076            0.000299895955           
       2.021212             0.00728185982            0.000285922575           
       2.023852             0.00747794293            0.000291268709           
       2.026493             0.00749913097            0.000290402814           
       2.029133             0.00798452934            0.000297368057           
       2.031774             0.00745786421            0.000290180513           
       2.034414             0.00740833252              0.0002874893           
       2.037054             0.00790432225            0.000300701541           
       2.039695             0.00805433029            0.000297562506           
       2.042335             0.00803226585            0.000302212636           
       2.044975             0.00786432674            0.000296646667           
       2.047616             0.00764543234            0.000293742458           
       2.050256              0.0074041029             0.00028566896           
       2.052897             0.00813294329            0.000308266571           
       2.055537             0.00712934436            0.000280751701           
       2.058177             0.00723621972            0.000285346709           
       2.060818             0.00789016053            0.000298855861           
       2.063458             0.00767405725            0.000295140719           
       2.066098             0.00727886013             0.00028616513           
       2.068739             0.00773884059            0.000298145171           
       2.071379             0.00788105753            0.000296429028           
       2.074020             0.00739572264             0.00029108887           
       2.076660             0.00748850635            0.000290923642           
       2.079300             0.00798511159            0.000300371681           
       2.081941             0.00756644558            0.000294168884           
       2.084581             0.00754452817            0.000293960108           
       2.087222             0.00741943431            0.000291711473           
       2.089862             0.00733342538            0.000286400969           
       2.092502             0.00698469084            0.000284586907           
       2.095143             0.00770396192            0.000294609485           
       2.097783             0.00723078137            0.000289761763           
       2.100423             0.00735170936            0.000286572378           
       2.103064             0.00773443548            0.000299012192           
       2.105704             0.00717872972            0.000286968186           
       2.108345             0.00776192787            0.000299767144           
       2.110985             0.00746273179            0.000289804304           
       2.113625             0.00725529196            0.000290250272           
       2.116266             0.00774661668            0.000297697265           
       2.118906             0.00725628492             0.00028791221           
       2.121546             0.00714878598            0.000285544699           
       2.124187             0.00756824656            0.000297866344           
       2.126827             0.00743366747            0.000290576457           
       2.129468             0.00758620932            0.000296606004           
       2.132108             0.00731529281            0.000290659009           
       2.134748             0.00714188476            0.000286110995           
       2.137389              0.0074496611            0.000294658334           
       2.140029             0.00751136644            0.000295157622           
       2.142670             0.00725195188            0.000290489897           
       2.145310             0.00721615129            0.000290879051           
       2.147950             0.00713844884            0.000290427162           
       2.150591              0.0073832632            0.000292656539           
       2.153231             0.00758133233            0.000300940443           
       2.155871             0.00729705541            0.000290980376           
       2.158512             0.00716374775            0.000293505343           
       2.161152               0.007570626             0.00029418828           
       2.163793             0.00787657139            0.000304956416           
       2.166433             0.00791236351            0.000300348273           
       2.169073             0.00690958485            0.000287224319           
       2.171714             0.00769139525            0.000296869055           
       2.174354              0.0072471817            0.000292572293           
       2.176995             0.00722788735            0.000289758872           
       2.179635              0.0071805475             0.00029427416           
       2.182275             0.00788817025            0.000302310798           
       2.184916             0.00751446164            0.000301298912           
       2.187556             0.00719135819            0.000290004972           
       2.190196             0.00735561136            0.000297908212           
       2.192837             0.00708072726            0.000289087971           
       2.195477             0.00730506201            0.000296464195           
       2.198118             0.00728421879            0.000290575507           
       2.200758             0.00688596614            0.000286907835           
       2.203398             0.00696452713             0.00028375485           
       2.206039             0.00760928984            0.000301132374           
       2.208679             0.00688151756            0.000283566723           
       2.211319             0.00778527471             0.00030303273           
       2.213960             0.00758228085            0.000295876298           
       2.216600              0.0073142183            0.000297446029           
       2.219241             0.00767927184            0.000300347456           
       2.221881             0.00664364395            0.000280818029           
       2.224521             0.00738596987            0.000295064265           
       2.227162             0.00748507689            0.000301702828           
       2.229802             0.00724208616            0.000291948073           
       2.232443             0.00703480098             0.00028887084           
       2.235083             0.00740765261            0.000294649764           
       2.237723             0.00731262161            0.000294997176           
       2.240364             0.00694990148            0.000286125126           
       2.243004             0.00745639241            0.000297263178           
       2.245644             0.00807464283            0.000308627307           
       2.248285             0.00783318231            0.000305951052           
       2.250925             0.00758059607            0.000299570405           
       2.253566              0.0071097133            0.000290826457           
       2.256206             0.00753546117            0.000298510714           
       2.258846             0.00739402778            0.000295698701           
       2.261487             0.00730949834            0.000294512197           
       2.264127              0.0070677182            0.000292340497           
       2.266767             0.00722532312            0.000290804532           
       2.269408             0.00731433446            0.000296065352           
       2.272048             0.00702123728            0.000288288456           
       2.274689             0.00698560058            0.000288686662           
       2.277329             0.00683645862            0.000285208829           
       2.279969             0.00715257515             0.00029261253           
       2.282610             0.00705260317            0.000287726845           
       2.285250             0.00743542057            0.000300079038           
       2.287891             0.00691451113            0.000286456619           
       2.290531             0.00764410766            0.000302675941           
       2.293171             0.00733693613             0.00029651759           
       2.295812             0.00728565243            0.000293911195           
       2.298452             0.00767422528            0.000303579081           
       2.301092             0.00709582884            0.000293769117           
       2.303733             0.00677768623             0.00028142916           
       2.306373             0.00676929753            0.000288134196           
       2.309014             0.00736081681             0.00029466964           
       2.311654             0.00749825626             0.00030023046           
       2.314294             0.00695383099            0.000288494487           
       2.316935             0.00721882896             0.00029510183           
       2.319575             0.00667451875             0.00028269569           
       2.322215             0.00679510723            0.000289302568           
       2.324856             0.00692106401             0.00028463947           
       2.327496             0.00770295235            0.000307646917           
       2.330137             0.00715975572            0.000291131241           
       2.332777             0.00668744997            0.000284442282           
       2.335417             0.00751566062            0.000300636511           
       2.338058              0.0072396701            0.000296245827           
       2.340698             0.00709030638             0.00029028739           
       2.343339              0.0069115846            0.000292074696           
       2.345979              0.0072763894            0.000293703572           
       2.348619             0.00720510836            0.000297780719           
       2.351260             0.00722399331            0.000291832438           
       2.353900             0.00718109608            0.000297128041           
       2.356540             0.00708669211            0.000291109005           
       2.359181             0.00695395502            0.000292225937           
       2.361821              0.0069828653            0.000289264794           
       2.364462             0.00691899871            0.000292751198           
       2.367102             0.00711562497            0.000288296683           
       2.369742             0.00708096766            0.000297900193           
       2.372383             0.00719079194            0.000291450343           
       2.375023             0.00717828787            0.000298783725           
       2.377663              0.0066681446            0.000281851616           
       2.380304             0.00695737543             0.00029189305           
       2.382944             0.00718591833            0.000293746985           
       2.385585             0.00728818066            0.000298626426           
       2.388225             0.00743366746            0.000300229627           
       2.390865             0.00698033264             0.00029167602           
       2.393506             0.00751124173            0.000301170534           
       2.396146             0.00736850255            0.000299283876           
       2.398787             0.00698284759            0.000291601458           
       2.401427              0.0072181959            0.000294674584           
       2.404067             0.00651451654            0.000284215668           
       2.406708             0.00643846491            0.000279000406           
       2.409348              0.0073069173             0.00029945779           
       2.411988              0.0068935598            0.000289935265           
       2.414629             0.00728312788            0.000298990164           
       2.417269             0.00699585757              0.0002903731           
       2.419910             0.00723276413            0.000298972057           
       2.422550             0.00673120517            0.000284041511           
       2.425190             0.00660652848            0.000290258491           
       2.427831             0.00672381615            0.000281810953           
       2.430471             0.00751456343            0.000306630158           
       2.433112             0.00713482916            0.000291732117           
       2.435752             0.00708708604             0.00029811519           
       2.438392             0.00709579381            0.000293284443           
       2.441033             0.00690971293            0.000290739536           
       2.443673              0.0072893058            0.000299416245           
       2.446313             0.00670190157            0.000285569099           
       2.448954              0.0067337186            0.000288757876           
       2.451594             0.00715561554            0.000295880379           
       2.454235             0.00765831221            0.000305144647           
       2.456875             0.00740559022            0.000301587513           
       2.459515             0.00763962814            0.000306788266           
       2.462156             0.00741058886            0.000300596878           
       2.464796              0.0079646878            0.000317129293           
       2.467436             0.00741051415            0.000299483474           
       2.470077             0.00790816351            0.000313642085           
       2.472717             0.00826846119            0.000316694434           
       2.475358             0.00730579947            0.000301061094           
       2.477998             0.00703817678             0.00029391898           
       2.480638             0.00755484241            0.000305255999           
       2.483279             0.00702911544            0.000295708335           
       2.485919             0.00776510678            0.000308628013           
       2.488560             0.00690349214            0.000292209102           
       2.491200             0.00700621587            0.000293971507           
       2.493840             0.00695025994            0.000291201091           
       2.496481             0.00703341668            0.000296768659           
       2.499121             0.00690758961            0.000290186266           
       2.501761             0.00678652415            0.000292516211           
       2.504402              0.0075639738            0.000302898848           
       2.507042             0.00716465871            0.000299695636           
       2.509683             0.00734738477            0.000300729389           
       2.512323              0.0073042696            0.000301019812           
       2.514963              0.0138426017            0.000415220138           
       2.517604              0.0198065901            0.000494732955           
       2.520244             0.00961366271            0.000344750869           
       2.522884             0.00779820245            0.000309818345           
       2.525525             0.00857905845             0.00032762908           
       2.528165              0.0154665978            0.000437897053           
       2.530806              0.0278838852            0.000585757658           
       2.533446               0.011985391            0.000387444815           
       2.536086             0.00974689225            0.000346462737           
       2.538727             0.00938785962            0.000342201621           
       2.541367             0.00896750366            0.000333496229           
       2.544008             0.00709461751            0.000296884405           
       2.546648              0.0070589126            0.000296472671           
       2.549288             0.00701309207            0.000295551418           
       2.551929             0.00712423747            0.000298868161           
       2.554569             0.00712953401            0.000296247098           
       2.557209             0.00717936075            0.000300639402           
       2.559850             0.00705289857             0.00029455329           
       2.562490             0.00696284919            0.000294797825           
       2.565131             0.00742527132            0.000304959319           
       2.567771             0.00716834744            0.000298048799           
       2.570411             0.00712700572            0.000300804555           
       2.573052               0.007357319            0.000302058701           
       2.575692             0.00734161081              0.0003025365           
       2.578332             0.00702664174            0.000295101337           
       2.580973             0.00678704356             0.00029237798           
       2.583613             0.00680224071            0.000290037761           
       2.586254             0.00702340128            0.000297322351           
       2.588894             0.00707921657            0.000296909126           
       2.591534             0.00714631561            0.000298861616           
       2.594175             0.00695030424            0.000296445349           
       2.596815             0.00728397465            0.000300656219           
       2.599456             0.00694295519            0.000295935445           
       2.602096             0.00711095238            0.000298373605           
       2.604736             0.00711168227            0.000299171492           
       2.607377             0.00747612392            0.000305568301           
       2.610017             0.00693782519            0.000294259146           
       2.612657             0.00675621043            0.000292433367           
       2.615298             0.00677424078            0.000289958997           
       2.617938              0.0068537142            0.000294206327           
       2.620579             0.00680608303            0.000290787325           
       2.623219             0.00694679088            0.000298477019           
       2.625859             0.00608577519             0.00027465964           
       2.628500             0.00694901475            0.000298184156           
       2.631140             0.00681591185            0.000290106871           
       2.633780             0.00720919785            0.000302191395           
       2.636421             0.00697142121            0.000294461996           
       2.639061             0.00689357893            0.000296314406           
       2.641702             0.00695800319            0.000294513427           
       2.644342             0.00752458229            0.000308782025           
       2.646982             0.00694006144            0.000296294512           
       2.649623             0.00711425075            0.000301788229           
       2.652263             0.00664675465            0.000289382929           
       2.654904             0.00715673338            0.000301909818           
       2.657544             0.00747802354            0.000306441021           
       2.660184             0.00686715052            0.000294033577           
       2.662825             0.00733178259             0.00030454618           
       2.665465             0.00696278131            0.000297332396           
       2.668105              0.0068600047            0.000295246654           
       2.670746             0.00707526032            0.000297305967           
       2.673386             0.00677674813            0.000294492951           
       2.676027             0.00720983908            0.000301175252           
       2.678667             0.00734041572            0.000305470127           
       2.681307             0.00669213059              0.0002893757           
       2.683948             0.00732023603            0.000305656911           
       2.686588             0.00750818038            0.000306715185           
       2.689229              0.0075745501            0.000310832689           
       2.691869             0.00772161701            0.000310703173           
       2.694509             0.00761955436            0.000312875618           
       2.697150             0.00732877982            0.000301950225           
       2.699790             0.00729160015            0.000307439594           
       2.702430             0.00693523703            0.000294084057           
       2.705071             0.00711442647            0.000301935511           
       2.707711             0.00680855095            0.000292444536           
       2.710352             0.00656537747            0.000288809148           
       2.712992             0.00682870911            0.000295501795           
       2.715632             0.00673855776            0.000291874969           
       2.718273             0.00671035462            0.000292230468           
       2.720913             0.00683018873            0.000295320494           
       2.723553             0.00686944824            0.000295138875           
       2.726194             0.00674524931            0.000293869142           
       2.728834              0.0067140549            0.000290582589           
       2.731475              0.0068807219            0.000296738072           
       2.734115             0.00685878453            0.000294499294           
       2.736755             0.00728329015            0.000305482208           
       2.739396             0.00739787617            0.000306247822           
       2.742036             0.00758519725             0.00031221743           
       2.744677             0.00769493413            0.000314927551           
       2.747317             0.00784609856            0.000316460894           
       2.749957             0.00775923013            0.000316987199           
       2.752598              0.0069651939            0.000301234617           
       2.755238             0.00704799219            0.000302883212           
       2.757878             0.00738168927            0.000309087955           
       2.760519             0.00764140462             0.00031115795           
       2.763159             0.00768854416            0.000317191195           
       2.765800               0.007048441             0.00029855595           
       2.768440             0.00705690073            0.000302670438           
       2.771080             0.00634108011            0.000284491504           
       2.773721             0.00684407163            0.000299185416           
       2.776361              0.0074035246            0.000307831254           
       2.779001              0.0069129069            0.000300583477           
       2.781642             0.00652829864            0.000290108999           
       2.784282             0.00678678005            0.000295899726           
       2.786923             0.00702375406            0.000298731995           
       2.789563             0.00709449904             0.00030083579           
       2.792203             0.00666961757            0.000293545095           
       2.794844             0.00625720681            0.000283030989           
       2.797484             0.00712427228            0.000302430424           
       2.800125             0.00658926847            0.000290477324           
       2.802765             0.00672617803            0.000298920074           
       2.805405             0.00698555139            0.000300231679           
       2.808046               0.006945484            0.000303959803           
       2.810686             0.00650632362            0.000291058492           
       2.813326             0.00646321299            0.000293681698           
       2.815967             0.00657173074            0.000294270639           
       2.818607             0.00674549214            0.000301115891           
       2.821248             0.00697515773            0.000302381102           
       2.823888             0.00563169356            0.000276080978           
       2.826528             0.00702231848            0.000306449126           
       2.829169             0.00647566999            0.000292980609           
       2.831809             0.00699125276            0.000304687311           
       2.834449             0.00669810407            0.000293025443           
       2.837090             0.00660054712            0.000292634212           
       2.839730             0.00674033606             0.00029361671           
       2.842371             0.00701519895            0.000301630614           
       2.845011             0.00673714652            0.000294933249           
       2.847651             0.00656411062            0.000291655737           
       2.850292             0.00643932797            0.000287228952           
       2.852932              0.0062963454            0.000284531468           
       2.855573             0.00710073302            0.000304814203           
       2.858213             0.00689574745            0.000297011891           
       2.860853             0.00711034922            0.000303855553           
       2.863494             0.00715368458            0.000305513972           
       2.866134             0.00750500625            0.000317315354           
       2.868774             0.00654424504             0.00029177356           
       2.871415             0.00657951127            0.000295454255           
       2.874055             0.00638840256            0.000292573856           
       2.876696             0.00697488318            0.000302955946           
       2.879336             0.00697922847            0.000305061962           
       2.881976             0.00653266864            0.000294898173           
       2.884617             0.00663809618            0.000295616885           
       2.887257             0.00641998583            0.000288692679           
       2.889897             0.00668011582            0.000297858734           
       2.892538             0.00646917417             0.00029108586           
       2.895178             0.00675362603            0.000294383618           
       2.897819             0.00647989699            0.000291321851           
       2.900459             0.00660779057            0.000291747008           
       2.903099              0.0064870771            0.000290579205           
       2.905740             0.00671427417            0.000292324023           
       2.908380             0.00696342052            0.000301666807           
       2.911021             0.00662397685            0.000294781638           
       2.913661             0.00671965431            0.000293635575           
       2.916301             0.00657784102            0.000294653496           
       2.918942             0.00711251694            0.000301772556           
       2.921582              0.0072493682            0.000307858334           
       2.924222             0.00660622073            0.000292180389           
       2.926863             0.00666616245            0.000294282552           
       2.929503             0.00708537183            0.000306762596           
       2.932144             0.00698881004            0.000299668286           
       2.934784             0.00653437476            0.000290993259           
       2.937424             0.00728105085            0.000307737536           
       2.940065             0.00686682234            0.000299098796           
       2.942705              0.0070775288            0.000304575668           
       2.945346             0.00685115542            0.000297895227           
       2.947986             0.00860786397            0.000335077613           
       2.950626             0.00955527537            0.000354121758           
       2.953267             0.00966061976            0.000352285802           
       2.955907             0.00813383224            0.000327524957           
       2.958547             0.00755557632            0.000312431229           
       2.961188             0.00699684514            0.000303281992           
       2.963828             0.00618865155             0.00028361248           
       2.966469             0.00680587626            0.000297493513           
       2.969109              0.0079658577            0.000323494724           
       2.971749              0.0090616158            0.000344012697           
       2.974390             0.00926394395            0.000348786517           
       2.977030             0.00805357507            0.000324585242           
       2.979670             0.00730777992             0.00030719781           
       2.982311             0.00703840596             0.00030365857           
       2.984951             0.00799437029            0.000324460619           
       2.987592             0.00742415497            0.000311619804           
       2.990232             0.00752351422             0.00031449915           
       2.992872             0.00874711489            0.000336457613           
       2.995513              0.0105295608            0.000372049878           
       2.998153              0.0167831945            0.000472744229           
       3.000794              0.0271287269            0.000592294304           
       3.003434              0.0230030425            0.000551183621           
       3.006074              0.0168053667             0.00047263411           
       3.008715              0.0152376035            0.000453475569           
       3.011355              0.0175859637            0.000492234264           
       3.013995              0.0148821866            0.000450602011           
       3.016636              0.0277912087            0.000616917367           
       3.019276                 0.2028186             0.00170641093           
       3.021917               0.377767803             0.00228935646           
       3.024557               0.142236687             0.00141598994           
       3.027197              0.0796232743             0.00107721654           
       3.029838               0.171704628             0.00157431726           
       3.032478               0.104698186             0.00123668251           
       3.035118              0.0834978661             0.00111008461           
       3.037759              0.0741114005             0.00104767148           
       3.040399               0.068138424             0.00101606134           
       3.043040              0.0659460452             0.00100929014           
       3.045680              0.0526654218            0.000888063059           
       3.048320               0.072416502             0.00105806778           
       3.050961              0.0675436254             0.00103209595           
       3.053601              0.0980594314             0.00123807717           
       3.056242              0.0703206926             0.00105517704           
       3.058882                0.11625973             0.00137692824           
       3.061522               0.268397601             0.00207762186           
       3.064163              0.0625631248             0.00100490716           
       3.066803              0.0222490991            0.000610858693           
       3.069443              0.0261712324            0.000658103915           
       3.072084              0.0774612539             0.00114228251           
       3.074724              0.0628263929              0.0010348068           
       3.077365              0.0134243137             0.00047799484           
       3.080005              0.0084209608            0.000382778461           
       3.082645             0.00865312547            0.000389994821           
       3.085286              0.0081928359            0.000379549715           
       3.087926             0.00774841581            0.000371460335           
       3.090566              0.0074085147            0.000366962926           
       3.093207             0.00781280348            0.000372771201           
       3.095847              0.0084244556            0.000395201918           
       3.098488             0.00840809552            0.000394102102           
       3.101128             0.00791860148            0.000384541773           
       3.103768             0.00792193234            0.000386789515           
       3.106409             0.00935820265            0.000423208648           
       3.109049              0.0105843494            0.000453579576           
       3.111690               0.014671982            0.000531927483           
       3.114330              0.0201604964             0.00062907988           
       3.116970              0.0179012966              0.0006010318           
       3.119611              0.0130789855            0.000510395831           
       3.122251              0.0104441752            0.000459832206           
       3.124891              0.0084983798            0.000416805736           
       3.127532             0.00787254864            0.000408391753           
       3.130172             0.00968062395            0.000443551085           
       3.132813             0.00800344448             0.00041151023           
       3.135453             0.00735622963            0.000402842856           
       3.138093             0.00626935485            0.000363070216           
       3.140734             0.00664403379            0.000380718064           
       3.143374             0.00586092486            0.000363044066           
       3.146014             0.00690516774            0.000391200443           
       3.148655             0.00687111008            0.000393306896           
       3.151295             0.00679413221            0.000394193187           
       3.153936             0.00665321633            0.000395842467           
       3.156576             0.00603426975            0.000372653004           
       3.159216             0.00637439921            0.000386144146           
       3.161857             0.00658073455            0.000397156996           
       3.164497             0.00649424443             0.00040285743           
       3.167138             0.00684933714            0.000403798672           
       3.169778             0.00645217099            0.000398993292           
       3.172418             0.00618227858            0.000392841452           
       3.175059             0.00676142034             0.00041620631           
       3.177699             0.00527646405            0.000366220299           
       3.180339             0.00666727105            0.000415345657           
       3.182980             0.00608020402            0.000401992891           
       3.185620             0.00642708069            0.000417817149           
       3.188261             0.00524960757            0.000372662206           
       3.190901             0.00599619756            0.000404418383           
       3.193541             0.00592746929            0.000403418965           
       3.196182             0.00600141229            0.000414373343           
       3.198822             0.00635477808            0.000421229111           
       3.201463             0.00580798315            0.000407906869           
       3.204103             0.00620808207            0.000427338539           
       3.206743             0.00618676756            0.000430211101           
       3.209384             0.00606911306            0.000424201314           
       3.212024             0.00570259888            0.000412653826           
       3.214664              0.0058201199            0.000424830146           
       3.217305             0.00609832791             0.00044501089           
       3.219945             0.00538271158            0.000414590124           
       3.222586             0.00641373106            0.000455118651           
       3.225226             0.00587017974            0.000445215546           
       3.227866             0.00592571451            0.000450777103           
       3.230507             0.00607025261            0.000461685827           
       3.233147             0.00616343871            0.000458335003           
       3.235787             0.00586535535            0.000447235927           
       3.238428             0.00561751819            0.000445415136           
       3.241068             0.00558914108            0.000453297835           
       3.243709             0.00563312545            0.000452552099           
       3.246349              0.0059398607            0.000462109909           
       3.248989             0.00553114812            0.000456120624           
       3.251630             0.00591892171            0.000473925983           
       3.254270             0.00605395174            0.000494034509           
       3.256911             0.00567331301            0.000466268304           
       3.259551             0.00564713649            0.000475470856           
       3.262191             0.00570591068            0.000482335714           
       3.264832             0.00503355787            0.000457278176           
       3.267472             0.00564156004            0.000490973694           
       3.270112             0.00553644913             0.00048776299           
       3.272753              0.0054146157            0.000488294217           
       3.275393             0.00574677595             0.00050563787           
       3.278034              0.0057072467            0.000514160731           
       3.280674             0.00447658775            0.000456686048           
       3.283314             0.00513573933            0.000491856898           
       3.285955             0.00564121777            0.000525176685           
       3.288595             0.00595761185            0.000545724312           
       3.291235             0.00501350597            0.000503560527           
       3.293876             0.00543805332             0.00052755358           
       3.296516             0.00518566348            0.000525673313           
       3.299157             0.00724914248            0.000630916782           
       3.301797             0.00544412208            0.000546987257           
       3.304437             0.00550172872            0.000560180753           
       3.307078             0.00542134705            0.000561475519           
       3.309718             0.00534539062            0.000563093697           
       3.312359             0.00568518682            0.000592449092           
       3.314999             0.00512646285            0.000568486044           
       3.317639             0.00492383342            0.000563136986           
       3.320280             0.00623606672            0.000643004369           
       3.322920             0.00658800818            0.000670788056           
       3.325560             0.00597260569            0.000651023011           
       3.328201             0.00489789049            0.000592039863           
       3.330841             0.00583436099            0.000661879695           
       3.333482             0.00626504424            0.000694582825           
       3.336122             0.00606094972             0.00069802407           
       3.338762             0.00493804702            0.000635816545           
       3.341403             0.00494931388            0.000642446645           
       3.344043             0.00579555083            0.000721737477           
       3.346683             0.00498998943            0.000676494633           
       3.349324             0.00542805133            0.000716486328           
       3.351964             0.00586837987            0.000768930713           
       3.354605             0.00540807154            0.000746516759           
       3.357245             0.00577118235            0.000798277494           
       3.359885             0.00625540761            0.000831391089           
       3.362526             0.00578629068            0.000840493951           
       3.365166             0.00494845565             0.00076766907           
       3.367807             0.00580017906            0.000889676906           
       3.370447              0.0051305633             0.00083707137           
       3.373087             0.00482909381            0.000857095506           
       3.375728             0.00609707054            0.000955788021           
       3.378368             0.00554212296             0.00098467725           
       3.381008              0.0057774361            0.000996597945           
       3.383649             0.00597478482             0.00109681184           
       3.386289             0.00498550792             0.00100231625           
       3.388930             0.00356552177            0.000930918424           
       3.391570             0.00575079276              0.0011827583           
       3.394210             0.00575918791             0.00126822434           
       3.396851              0.0038552861             0.00112400138           
       3.399491              0.0062727291             0.00145974915           
       3.402131             0.00462690545             0.00148403136           
       3.404772             0.00462991706             0.00148515048           
       3.407412             0.00713414506             0.00228761284           
       3.410053             0.00225097011             0.00133802187           
       3.412693              0.0075016414             0.00345583919           
       3.415333             0.00431348399             0.00321078847           
