################################################################################
# EDF_DataBlockID                     0.Image.Psd
# EDF_BinarySize                      4366944
# EDF_HeaderSize                      2560
# ByteOrder                           LowByteFirst
# DataType                            FloatValue
# Dim_1                               1028
# Dim_2                               1062
# Image                               0
# HeaderID                            EH:000000:000000:000000
# Size                                4366944
# Center_1                            607.5320
# Center_2                            651.4720
# Comment                             Xenocs_Cell_Window - front_window_open_only
# DDummy                              0.6
# Date                                2025-10-19T23:36:41
# Delta                               0
# Dummy                               -1.5
# ExposureTime                        360
# Gamma                               0
# Intensity1                          8.9005e-10
# PSize_1                             7.5e-05
# PSize_2                             7.5e-05
# Pressure                            0.0326986
# SampleDistance                      0.450002
# SampleEnvKind                       large
# SampleEnvPN                         ElectroChemical cell
# SampleEnvSN                         1141
# Thickness                           0
# Wavelength                          1.541891e-10
# Wavelength                          1.54189e-10
# aux                                 0
# aux_dial                            0.002375
# beamx                               588.429
# beamx_dial                          588.429
# beamz                               657.855
# beamz_dial                          657.855
# det0x                               -0.000396875
# det0x_dial                          6.36905
# det0xvd                             -0.0005
# det0xvd_dial                        -0.0005
# det0y                               450.002
# det0y_dial                          481.635
# det0z                               0
# det0z_dial                          1.2295
# det0zvd                             0
# det0zvd_dial                        0
# mag                                 1.818
# mag_dial                            1.818
# om                                  0.2499
# om_dial                             -0.610199
# phi                                 -0.0120535
# phi_dial                            0
# ry                                  0.599993
# ry_dial                             0.599993
# s1bot                               0.8
# s1bot_dial                          -1.66094
# s1hl                                0.8
# s1hl_dial                           -0.608437
# s1hr                                0.8
# s1hr_dial                           0.970938
# s1top                               0.8
# s1top_dial                          -0.461562
# s2bot                               0.45
# s2bot_dial                          1.36109
# s2hl                                0.45
# s2hl_dial                           -0.83375
# s2hr                                0.45
# s2hr_dial                           -0.118594
# s2top                               0.45
# s2top_dial                          1.44734
# w2theta                             32
# w2theta_dial                        32
# waxsch                              19.2605
# waxsch_dial                         -32.7238
# waxsh                               137.085
# waxsh_dial                          -43.5335
# waxsth                              26.0607
# waxsth_dial                         -19.4068
# waxsz                               67.0407
# waxsz_dial                          -23.7962
# wind                                65.9854
# wind_dial                           66.0041
# wpsi                                124
# wpsi_dial                           124
# wstod                               115
# wstod_dial                          115
# x                                   0
# x_dial                              1.00969
# z                                   0
# z_dial                              13.3172
# CountCutoff                         15302352
# DetectorModel                       Dectris EIGER2 Si 1M, S/N E-02-0362
# ThresholdSetting                    4023.88989258
# Saturation                          0
# FlatField                           Corrected
# BackgroundReductionExtra            0.02
# BackgroundCorrectionConstant        0.0026712
# Detector                            0
# Monitor                             0
# Pil_Roi0                            0
# SumForIntensity1                    3.20418e+08
# TransmittedFlux                     890050
# det                                 0
# mon                                 0
# pilai0                              3.20418e+08
# pilai1                              689331
# pilct0                              5.54098e+08
# pilct1                              689331
# pilroi0                             0
# pilroi1                             0
# sec                                 1
# title                               20251017__0_00486.edf
# usaxs0                              0
# Operation                           Azimuthal average I(q)
# Error_model                         ErrorModel.poisson
# Geometrical_correction              True
# Transmission_correction             True
# Thickness_correction                False
# Binning mode                        Uniform
# Binning factor                      1.0
# Psi                                 0.0
# Omega                               0.2499
# MaskInvalidPixels                   True
# DetectorEdge                        3
# MaskFiles                           ['SAXS_correted.edf']
################################################################################
    q(A⁻¹)                Intensity(a.u.)            Sigma_I(a.u.)            
       0.000340                352748.374                114.938789           
       0.001019                352132.116                70.3238393           
       0.001698                348930.502                49.4998929           
       0.002377                331907.018                43.1805384           
       0.003056                299463.067                34.6647062           
       0.003735                 260297.07                28.5022001           
       0.004415                 204384.04                 25.256161           
       0.005094                152538.836                18.8957797           
       0.005773                101307.933                14.2568337           
       0.006452                60927.3377                10.6813468           
       0.007131                33016.6044                7.61328223           
       0.007810                16303.1617                5.26817087           
       0.008490                8506.36156                3.37309363           
       0.009169                3313.97119                2.08075766           
       0.009848                1314.80155                1.26033284           
       0.010527                374.381143               0.676176316           
       0.011206                127.931259               0.373565616           
       0.011885                51.9854572               0.225366571           
       0.012564                25.7063819               0.159171704           
       0.013244                17.1428102               0.123638548           
       0.013923                12.4224398               0.106960162           
       0.014602                9.66810841              0.0868537179           
       0.015281                7.57571726              0.0791118838           
       0.015960                6.10985856              0.0702761365           
       0.016639                5.00072577              0.0594453774           
       0.017319                4.17238212                0.05346514           
       0.017998                3.50343081              0.0475634371           
       0.018677                2.88741766              0.0444768933           
       0.019356                2.57939846              0.0412892322           
       0.020035                2.14907934              0.0354632212           
       0.020714                1.88835258              0.0336840152           
       0.021394                1.63714757              0.0295261198           
       0.022073                1.44747071              0.0291043929           
       0.022752                1.26509943              0.0257127164           
       0.023431                 1.1091518              0.0235347572           
       0.024110               0.954496047              0.0228170537           
       0.024789                0.93876562              0.0210965367           
       0.025469               0.822981667              0.0202277826           
       0.026148               0.725877649              0.0179903477           
       0.026827               0.693213583              0.0177221548           
       0.027506               0.602204332              0.0170780187           
       0.028185               0.569860067              0.0159086788           
       0.028864               0.517853288              0.0149598668           
       0.029544               0.452087016              0.0136910956           
       0.030223               0.435238406              0.0138758428           
       0.030902               0.424869232               0.014162913           
       0.031581               0.391226694              0.0127363166           
       0.032260               0.342109991              0.0124250548           
       0.032939               0.322939281              0.0120962446           
       0.033619               0.275801924               0.011582693           
       0.034298               0.296242003              0.0116325129           
       0.034977               0.266398066              0.0109424418           
       0.035656               0.244569498              0.0110029176           
       0.036335               0.231402922              0.0104305223           
       0.037014               0.220182655              0.0107273857           
       0.037693               0.182869428             0.00951437349           
       0.038373               0.169264502             0.00956257522           
       0.039052               0.160460086             0.00915775258           
       0.039731               0.151623343             0.00920684094           
       0.040410               0.150490614             0.00917240845           
       0.041089               0.133814957             0.00904005838           
       0.041768               0.142878665              0.0098346427           
       0.042448               0.136977225             0.00895372219           
       0.043127               0.114973865             0.00856790093           
       0.043806               0.106775218             0.00860617321           
       0.044485               0.111677982             0.00844424749           
       0.045164               0.098620864             0.00840174034           
       0.045843               0.109307647             0.00817056915           
       0.046523               0.110466683             0.00844652731           
       0.047202               0.117468118             0.00914049924           
       0.047881              0.0984342301             0.00828895478           
       0.048560              0.0928778418             0.00817964895           
       0.049239              0.0838729943             0.00738125648           
       0.049918              0.0862025009              0.0084089787           
       0.050598              0.0950622365             0.00830200632           
       0.051277              0.0863495729             0.00769226856           
       0.051956              0.0897251646             0.00870720883           
       0.052635              0.0778173804             0.00829823061           
       0.053314               0.075174118             0.00771330347           
       0.053993              0.0804721654             0.00834070993           
       0.054673              0.0819689531             0.00811173987           
       0.055352              0.0808250792             0.00852457854           
       0.056031               0.077514952             0.00831502859           
       0.056710              0.0900988258             0.00896462276           
       0.057389                0.07222737             0.00802647597           
       0.058068              0.0776854717             0.00810223701           
       0.058748              0.0706736808             0.00775718784           
       0.059427               0.070765232             0.00707253983           
       0.060106              0.0652181159             0.00820042553           
       0.060785              0.0590736538             0.00706542502           
       0.061464              0.0575429226             0.00731091982           
       0.062143              0.0477968318             0.00628493159           
       0.062822               0.055602881             0.00724681611           
       0.063502              0.0463612375              0.0069141383           
       0.064181              0.0496792603             0.00702949178           
       0.064860              0.0538179298             0.00785647462           
       0.065539              0.0550074485              0.0077855563           
       0.066218              0.0494597093             0.00773152204           
       0.066897              0.0567693983             0.00811061462           
       0.067577              0.0360998342             0.00671452969           
       0.068256              0.0503257662             0.00759745584           
       0.068935              0.0529539622             0.00800010367           
       0.069614               0.046622125             0.00720319452           
       0.070293               0.046613849             0.00767280334           
       0.070972              0.0365740742             0.00647689983           
       0.071652              0.0427179893             0.00722448442           
       0.072331               0.042900948              0.0077159315           
       0.073010              0.0287353565             0.00660680888           
       0.073689              0.0474757685             0.00792369424           
       0.074368              0.0473517388             0.00769041629           
       0.075047              0.0414518367              0.0074479609           
       0.075727              0.0438128915             0.00844857701           
       0.076406              0.0366652781             0.00802503293           
       0.077085               0.033387414             0.00698163596           
       0.077764              0.0303719953             0.00698394736           
       0.078443              0.0420057586             0.00768289513           
       0.079122              0.0352490241             0.00736766131           
       0.079802              0.0265093941             0.00687779301           
       0.080481              0.0246627098             0.00600063008           
       0.081160              0.0478805394             0.00998404733           
       0.081839              0.0425893634             0.00871778877           
       0.082518              0.0315120119             0.00706377978           
       0.083197              0.0400473472             0.00873557158           
       0.083876              0.0411663933             0.00742274437           
       0.084556              0.0393636676             0.00881140915           
       0.085235              0.0390173382             0.00815256295           
       0.085914              0.0400164175             0.00785049655           
       0.086593              0.0257739282             0.00667690788           
       0.087272               0.025275849             0.00615554079           
       0.087951              0.0392528506             0.00857642931           
       0.088631              0.0237299388             0.00635806747           
       0.089310               0.036980344              0.0077070412           
       0.089989              0.0326312008               0.006814853           
       0.090668               0.032631443             0.00751307037           
       0.091347              0.0287835641             0.00722494992           
       0.092026                0.02730336             0.00597474674           
       0.092706              0.0202569748             0.00643530508           
       0.093385              0.0315357104             0.00744349708           
       0.094064               0.026710335             0.00690458545           
       0.094743              0.0300937225             0.00690366055           
       0.095422              0.0298313591              0.0074771186           
       0.096101               0.027945421             0.00845093799           
       0.096781              0.0275530389             0.00712686149           
       0.097460              0.0289536899             0.00749236576           
       0.098139              0.0192354246             0.00644960209           
       0.098818               0.036195686             0.00791330807           
       0.099497              0.0182496395             0.00610850013           
       0.100176              0.0293917469             0.00713095038           
       0.100856              0.0366171948             0.00865277439           
       0.101535               0.023673201             0.00752621402           
       0.102214               0.028267955              0.0066914108           
       0.102893              0.0233447194             0.00625978284           
       0.103572               0.028357861             0.00670212911           
       0.104251              0.0256703521             0.00687953117           
       0.104931              0.0257608323             0.00746429944           
       0.105610              0.0254545868             0.00708694483           
       0.106289               0.020295244             0.00644217141           
       0.106968              0.0269917732             0.00619899533           
       0.107647              0.0186113115             0.00590656481           
       0.108326              0.0264236076             0.00735088526           
       0.109005              0.0297902859             0.00651255984           
       0.109685              0.0215594285             0.00652246971           
       0.110364              0.0279768642             0.00661099456           
       0.111043              0.0306136335             0.00791248313           
       0.111722              0.0167493343             0.00508015419           
       0.112401               0.032056087             0.00756531951           
       0.113080              0.0153171706             0.00545030907           
       0.113760              0.0211816129             0.00640935033           
       0.114439              0.0261632092             0.00602774033           
       0.115118              0.0298722354             0.00669357526           
       0.115797              0.0283766113              0.0067051556           
       0.116476              0.0212743099             0.00616337398           
       0.117155              0.0279077601             0.00700384265           
       0.117835              0.0321880449             0.00740700275           
       0.118514              0.0244308345             0.00655314168           
       0.119193              0.0275260407             0.00669916684           
       0.119872               0.022347069              0.0064730815           
       0.120551              0.0191030159             0.00579483233           
       0.121230              0.0176833209             0.00561946318           
       0.121910              0.0339915987              0.0076120229           
       0.122589              0.0304772582             0.00699887768           
       0.123268             0.00950307149             0.00393641039           
       0.123947              0.0293419778             0.00642385642           
       0.124626              0.0308151854             0.00658319737           
       0.125305              0.0195818452             0.00545649473           
       0.125985              0.0210329677             0.00585641356           
       0.126664              0.0117212611             0.00447017706           
       0.127343              0.0264586878             0.00735725242           
       0.128022               0.017817948             0.00539039404           
       0.128701              0.0287293395             0.00627878588           
       0.129380              0.0261508372             0.00678072317           
       0.130059              0.0182646346             0.00580453058           
       0.130739              0.0270142783             0.00700214449           
       0.131418              0.0248327198             0.00622987716           
       0.132097              0.0263813022             0.00660740267           
       0.132776              0.0234193953             0.00651977628           
       0.133455              0.0161561279             0.00541522982           
       0.134134             0.00748209681             0.00339623643           
       0.134814              0.0229095784             0.00574926714           
       0.135493              0.0219441732              0.0063628185           
       0.136172              0.0173466898             0.00503525579           
       0.136851              0.0226374918             0.00567887892           
       0.137530              0.0196175497             0.00546225703           
       0.138209              0.0149159277             0.00476298342           
       0.138889              0.0379821308             0.00760058664           
       0.139568              0.0226079934             0.00586397689           
       0.140247             0.00606992117             0.00310200778           
       0.140926              0.0190132983             0.00510865282           
       0.141605              0.0192802141             0.00517608934           
       0.142284              0.0204138971             0.00568886521           
       0.142964              0.0149906653             0.00477518777           
       0.143643               0.016065461               0.005119429           
       0.144322              0.0178291866             0.00539317642           
       0.145001               0.016139477             0.00513129875           
       0.145680              0.0290311185             0.00620059736           
       0.146359             0.00714044899             0.00325215348           
       0.147039              0.0119475891             0.00426327369           
       0.147718              0.0284992915             0.00713623872           
       0.148397              0.0161621371             0.00513513219           
       0.149076              0.0249447682             0.00624531819           
       0.149755              0.0155345412             0.00450956427           
       0.150434              0.0191044395             0.00554315345           
       0.151114              0.0180934075             0.00504612641           
       0.151793              0.0108672282             0.00415123401           
       0.152472              0.0183440879             0.00511311183           
       0.153151              0.0217095467             0.00582658854           
       0.153830              0.0106860324             0.00383054483           
       0.154509               0.015301172             0.00464066656           
       0.155188              0.0152688694             0.00463581148           
       0.155868              0.0118388721             0.00378604015           
       0.156547              0.0206550835             0.00598180452           
       0.157226              0.0197260613             0.00511199298           
       0.157905              0.0194257713             0.00563052273           
       0.158584              0.0264368867             0.00591812039           
       0.159263              0.0252621329             0.00677378753           
       0.159943              0.0174645506             0.00486784026           
       0.160622              0.0198231425             0.00531586133           
       0.161301              0.0279616056             0.00680505985           
       0.161980              0.0187952072             0.00487683685           
       0.162659              0.0268758168             0.00652928038           
       0.163338             0.00915541515             0.00350362522           
       0.164018              0.0164933846              0.0050102741           
       0.164697              0.0130396405             0.00415671434           
       0.165376              0.0157382317              0.0047671841           
       0.166055              0.0188156643             0.00505308265           
       0.166734              0.0218509367              0.0053188269           
       0.167413              0.0127526634             0.00406336427           
       0.168093              0.0203530374             0.00545655706           
       0.168772              0.0116618835             0.00393123122           
       0.169451             0.00929250585             0.00383968502           
       0.170130             0.00973527331             0.00372583079           
       0.170809              0.0188412214             0.00546754664           
       0.171488              0.0259057676             0.00596572884           
       0.172168             0.00746076513             0.00339317883           
       0.172847              0.0166335166             0.00528853846           
       0.173526              0.0202679768             0.00544560012           
       0.174205              0.0172532889             0.00481045808           
       0.174884              0.0168107145             0.00509361787           
       0.175563               0.020530964             0.00515637952           
       0.176243              0.0188132954             0.00488024624           
       0.176922              0.0227389919              0.0056948317           
       0.177601              0.0170378384             0.00456801392           
       0.178280              0.0169724261             0.00492013557           
       0.178959             0.00872397828             0.00334225263           
       0.179638              0.0172974609              0.0048170291           
       0.180317              0.0180004607             0.00467017642           
       0.180997             0.00954679908             0.00341958076           
       0.181676              0.0200277976             0.00537912893           
       0.182355              0.0298564556             0.00598276919           
       0.183034              0.0208646769             0.00508320255           
       0.183713              0.0147575437             0.00447636278           
       0.184392              0.0102266272             0.00366082539           
       0.185072              0.0159844274             0.00463101126           
       0.185751              0.0166068811             0.00446223143           
       0.186430              0.0132141925              0.0042107328           
       0.187109               0.016789281             0.00451083211           
       0.187788             0.00874377765             0.00334653243           
       0.188467               0.007157783             0.00297755943           
       0.189147              0.0087101615             0.00394765958           
       0.189826              0.0105834139             0.00379119465           
       0.190505              0.0174061828             0.00452088153           
       0.191184              0.0147458241             0.00411845041           
       0.191863              0.0161124021             0.00467798057           
       0.192542               0.011733107             0.00375115508           
       0.193222              0.0130119169             0.00363526818           
       0.193901              0.0163802753             0.00496206505           
       0.194580               0.014664041             0.00426229861           
       0.195259              0.0166750686             0.00507476014           
       0.195938              0.0240069643             0.00567645562           
       0.196617              0.0208983159             0.00508848449           
       0.197297               0.012586228             0.00421173772           
       0.197976              0.0138685811             0.00403593777           
       0.198655              0.0081334163             0.00312350457           
       0.199334              0.0133060644             0.00387346371           
       0.200013              0.0177676668             0.00461669553           
       0.200692              0.0179204475             0.00519073773           
       0.201371               0.016795827             0.00451283901           
       0.202051              0.0147035912             0.00426861489           
       0.202730              0.0185694527             0.00482369297           
       0.203409              0.0105335529             0.00376057861           
       0.204088              0.0204676938             0.00471118385           
       0.204767              0.0121565952             0.00408899691           
       0.205446              0.0110701937             0.00372459696           
       0.206126              0.0190969174             0.00452914091           
       0.206805              0.0161306697             0.00433086472           
       0.207484             0.00858264393             0.00329803431           
       0.208163              0.0159994674              0.0044779225           
       0.208842              0.0103978605             0.00332636638           
       0.209521              0.0118455263             0.00360176123           
       0.210201              0.0119611368             0.00363704281           
       0.210880              0.0129299222              0.0043523147           
       0.211559              0.0122144442             0.00371201754           
       0.212238             0.00963895481             0.00324918881           
       0.212917              0.0184165272             0.00449127648           
       0.213596              0.0161267448             0.00418260412           
       0.214276              0.0188560134             0.00506269727           
       0.214955              0.0184191236             0.00477876626           
       0.215634              0.0146597255             0.00426333525           
       0.216313              0.0145360912             0.00422224104           
       0.216992              0.0180241501             0.00467632853           
       0.217671              0.0142599722             0.00432548785           
       0.218351             0.00695535696              0.0028895247           
       0.219030              0.0219539934             0.00518918764           
       0.219709              0.0170998775             0.00476463053           
       0.220388             0.00844627931             0.00323638623           
       0.221067              0.0170729681             0.00443399982           
       0.221746              0.0174586342             0.00453032381           
       0.222426              0.0150166595             0.00403678645           
       0.223105              0.0171707696             0.00461472819           
       0.223784             0.00895072798             0.00321065783           
       0.224463              0.0133679498             0.00388433033           
       0.225142              0.0218036409             0.00477356196           
       0.225821              0.0172699209             0.00420963721           
       0.226500              0.0117138982             0.00373070484           
       0.227180               0.015960294             0.00414222431           
       0.227859              0.0185538092             0.00479744312           
       0.228538              0.0141488289             0.00367908192           
       0.229217              0.0131510031             0.00367374858           
       0.229896              0.0104220012             0.00351921598           
       0.230575              0.0152951788             0.00411448462           
       0.231255              0.0153963229             0.00430020643           
       0.231934              0.0130424864             0.00395791897           
       0.232613              0.0126125983             0.00383153811           
       0.233292             0.00948164024             0.00339284021           
       0.233971               0.019406527             0.00472858036           
       0.234650               0.013609728             0.00395992567           
       0.235330              0.0126011282             0.00402110477           
       0.236009              0.0180620082             0.00453893294           
       0.236688              0.0193516291             0.00458391783           
       0.237367             0.00779071187             0.00299624122           
       0.238046              0.0102585164             0.00345592016           
       0.238725              0.0175891039             0.00428867723           
       0.239405              0.0142109616             0.00396672097           
       0.240084              0.0155167805             0.00402824085           
       0.240763                0.01355987             0.00454930046           
       0.241442              0.0113766099             0.00346540305           
       0.242121              0.0112169988             0.00377301899           
       0.242800              0.0153385661             0.00398686119           
       0.243480              0.0178834199             0.00449452728           
       0.244159              0.0132778988             0.00358044451           
       0.244838              0.0118558715             0.00360594924           
       0.245517              0.0132539483             0.00422193444           
       0.246196             0.00879600525             0.00315229838           
       0.246875              0.0139014105              0.0040446885           
       0.247554              0.0180315067             0.00468028928           
       0.248234              0.0150877373             0.00421386706           
       0.248913              0.0048960285             0.00250721811           
       0.249592             0.00731536407             0.00281915649           
       0.250271              0.0158143959             0.00440714207           
       0.250950              0.0137682591             0.00400483771           
       0.251629              0.0124544533             0.00397653868           
       0.252309              0.0149522081             0.00417360354           
       0.252988              0.0127492526             0.00387398571           
       0.253667             0.00590107269             0.00269233949           
       0.254346               0.020985017             0.00470790661           
       0.255025              0.0151011612             0.00421639037           
       0.255704             0.00937519458             0.00316166287           
       0.256384              0.0107551383             0.00343538064           
       0.257063             0.00982023382              0.0033150694           
       0.257742               0.019875221              0.0048374789           
       0.258421               0.007293057             0.00262101865           
       0.259100              0.0115307502             0.00411430429           
       0.259779             0.00702377963             0.00292188943           
       0.260459              0.0120202006             0.00349881446           
       0.261138              0.0139395005             0.00405155468           
       0.261817              0.0165074442             0.00460510507           
       0.262496              0.0184651388             0.00478964411           
       0.263175              0.0131140997              0.0041765195           
       0.263854              0.0162826725             0.00437914196           
       0.264534              0.0153212494             0.00412112724           
       0.265213              0.0131147837             0.00381291281           
       0.265892             0.00363223075             0.00217275189           
       0.266571             0.00603848837             0.00275443675           
       0.267250              0.0097813995             0.00350571418           
       0.267929              0.0115660955             0.00369115469           
       0.268609             0.00967991348             0.00346838093           
       0.269288              0.0183313489             0.00459941959           
       0.269967              0.0052386237             0.00268798887           
       0.270646             0.00781380892             0.00300297471           
       0.271325              0.0134916296             0.00409498326           
       0.272004              0.0112389281             0.00341504527           
       0.272683              0.0109539144             0.00391108058           
       0.273363              0.0153125606             0.00426996536           
       0.274042             0.00928777361             0.00313352733           
       0.274721              0.0107247853             0.00361184862           
       0.275400              0.0118519376             0.00377671958           
       0.276079               0.014121087             0.00428515255           
       0.276758             0.00838208703             0.00300524597           
       0.277438             0.00515814587             0.00263580808           
       0.278117               0.015812766             0.00458783786           
       0.278796              0.0130461975              0.0039840266           
       0.279475              0.0129310877             0.00435913723           
       0.280154             0.00785059664             0.00356236364           
       0.280833             0.00706596826             0.00322243572           
       0.281513              0.0190198897              0.0063726049           
       0.282192             0.00797668525             0.00329784851           
       0.282871             0.00588374807             0.00302017006           
       0.283550              0.0129800771              0.0046479113           
       0.284229              0.0124183782              0.0047232838           
       0.284908              0.0133396132             0.00448672836           
       0.285588              0.0174718535             0.00506781429           
       0.286267             0.00974964163             0.00402851016           
       0.286946              0.0117037396             0.00482099583           
       0.287625              0.0162014653             0.00515551559           
       0.288304              0.0130618481             0.00438211604           
       0.288983              0.0112739299             0.00404506477           
       0.289663              0.0123515189             0.00440693537           
       0.290342              0.0128783481             0.00529515281           
       0.291021              0.0168095117             0.00563196538           
       0.291700              0.0178191159             0.00565899087           
       0.292379              0.0202163992             0.00541724235           
       0.293058              0.0199842437             0.00604128594           
       0.293738              0.0156458272             0.00526136157           
       0.294417              0.0172740747             0.00548577462           
       0.295096             0.00783809448             0.00398121882           
       0.295775             0.00908618931             0.00410713118           
       0.296454              0.0148701378              0.0052978831           
       0.297133              0.0192961768             0.00584352412           
       0.297812              0.0081510442             0.00337598621           
       0.298492              0.0102230545             0.00422063462           
       0.299171             0.00923189677             0.00381093913           
       0.299850             0.00747213796             0.00378753605           
       0.300529             0.00994770681             0.00380087008           
       0.301208              0.0135793655              0.0045593231           
       0.301887              0.0121786327             0.00434732652           
       0.302567              0.0115833712             0.00522864825           
       0.303246              0.0120054664              0.0045743942           
       0.303925             0.00918100957             0.00416369458           
       0.304604             0.00180689076             0.00194709329           
       0.305283              0.0051478233             0.00304275411           
       0.305962              0.0217669571             0.00657801533           
       0.306642              0.0147882663             0.00562292592           
       0.307321              0.0139482354             0.00531269535           
       0.308000             0.00639314812             0.00326408068           
       0.308679              0.0203714187             0.00647880167           
       0.309358              0.0140705134             0.00576379462           
       0.310037              0.0134559631             0.00512774937           
       0.310717               0.011112489             0.00458164587           
       0.311396              0.0121400696             0.00500182311           
       0.312075              0.0203039525             0.00614232504           
       0.312754             0.00199231855             0.00212525133           
       0.313433             0.00843546439             0.00383549997           
       0.314112              0.0195317605              0.0059283415           
       0.314792              0.0172160422             0.00707418122           
       0.315471              0.0171387914             0.00649921699           
       0.316150              0.0429533629              0.0105203482           
       0.316829              0.0111361221             0.00561828712           
       0.317508             0.00882213899             0.00447277347           
       0.318187              0.0186416953             0.00709417519           
       0.318866              0.0112642247             0.00510557876           
       0.319546              0.0225399849             0.00854562991           
       0.320225              0.0111248175             0.00561599015           
       0.320904             0.00698919049             0.00410659647           
       0.321583              0.0083115942             0.00421726159           
       0.322262                0.01298223             0.00585160838           
       0.322941              0.0137071602             0.00522252257           
       0.323621              0.0117865506              0.0053333075           
       0.324300              0.0149223957              0.0061330002           
       0.324979              0.0131261075             0.00540321471           
       0.325658              0.0133353295             0.00600143601           
       0.326337              0.0191632825             0.00728165812           
       0.327016             0.00428792762             0.00311913789           
       0.327696             0.00865804223             0.00438862996           
       0.328375             0.00977292053             0.00571065611           
       0.329054              0.0117198825             0.00591551225           
       0.329733             0.00218130464             0.00231958278           
       0.330412              0.0248052819             0.00750286464           
       0.331091             0.00712985738             0.00510868355           
       0.331771              0.0214587572             0.00761438674           
       0.332450              0.0376627301              0.0119360473           
       0.333129              0.0168132324             0.00690669992           
       0.333808              0.0164553796             0.00674910013           
       0.334487              0.0060557376             0.00436943103           
       0.335166              0.0172930776             0.00709423974           
       0.335846              0.0145686865             0.00742439029           
       0.336525             0.00626580194             0.00450790121           
       0.337204             0.00433936998             0.00317062435           
       0.337883             0.00795534403             0.00405216315           
       0.338562              0.0105830229             0.00534845319           
       0.339241              0.0170794622             0.00766542207           
       0.339921              0.0111014728              0.0056133878           
       0.340600             0.00643597615             0.00378526664           
       0.341279             0.00840029308             0.00494536966           
       0.341958             0.00978326992             0.00571604498           
       0.342637              0.0120356123             0.00607765356           
       0.343316              0.0213532852             0.00809548777           
       0.343995              0.0145645331             0.00599638523           
       0.344675              0.0111509523             0.00562672178           
       0.345354              0.0329909322              0.0109939638           
       0.346033               0.019770471             0.00749248161           
       0.346712              0.0164119204              0.0067428614           
       0.347391              0.0045709403             0.00332368657           
       0.348070              0.0220652739             0.00781876062           
       0.348750               0.020194593             0.00766955483           
       0.349429              0.0154695742             0.00698685244           
       0.350108             0.00846375482             0.00608132464           
       0.350787              0.0384172647              0.0118657398           
       0.351466             0.00269648355             0.00283941802           
       0.352145              0.0156847713             0.00643778949           
       0.352825              0.0136210113             0.00684839562           
       0.353504             0.00622432283             0.00449533982           
       0.354183             0.00922065537             0.00539496987           
       0.354862             0.00338334583             0.00352177839           
       0.355541             0.00614446557             0.00440423351           
       0.356220              0.0160483915             0.00721888295           
       0.356900              0.0151725258             0.00682692731           
       0.357579              0.0115478302             0.00672757923           
       0.358258             0.00318758031             0.00331352458           
       0.358937             0.00642491359              0.0046346912           
       0.359616             0.00352037983             0.00365233586           
       0.360295              0.0154348236             0.00777853525           
       0.360975           -0.000303680629                         0           
       0.361654              0.0155486301             0.00700746602           
       0.362333              0.0149675398             0.00614955429           
       0.363012              0.0180482403             0.00906009571           
       0.363691              0.0120670611             0.00700028592           
       0.364370              0.0153084878             0.00889527028           
       0.365050             0.00848940152             0.00609347879           
       0.365729             0.00513407181             0.00527284231           
       0.366408              0.0124528279             0.00724244388           
       0.367087              0.0101101011             0.00511205419           
       0.367766           -0.000303818538                         0           
       0.368445              0.0101197296             0.00723330058           
       0.369124               0.022643885              0.0113483484           
       0.369804             0.00398328493             0.00409658415           
       0.370483              0.0187209058             0.00941998726           
       0.371162              0.0161000601             0.00808792054           
       0.371841             0.00410202873             0.00423667915           
       0.372520              0.0128047519             0.00748552063           
       0.373199             0.00467116287             0.00480707253           
       0.373879           -0.000303941483                         0           
       0.374558             0.00709639354              0.0051037608           
       0.375237           -0.000303970488                         0           
       0.375916              0.0209129236             0.00938854039           
       0.376595           -0.000303997822                         0           
       0.377274             0.00363697865             0.00377801342           
       0.377954             0.00393086221             0.00407065568           
       0.378633            -0.00030404074                         0           
       0.379312           -0.000304053679                         0           
       0.379991              0.0147051354              0.0085310602           
       0.380670             0.00734119276             0.00527796676           
       0.381349              0.0123813305             0.00884914634           
       0.382029              0.0054040108              0.0055463287           
       0.382708           -0.000304126146                         0           
       0.383387           -0.000304141647                         0           
       0.384066              0.0205056843              0.0103019876           
       0.384745              0.0188361318             0.00945356522           
       0.385424              0.0173289749             0.00871193928           
       0.386104              0.0166485834             0.00837975982           
       0.386783           -0.000304213354                         0           
       0.387462              0.0124218998             0.00723864101           
       0.388141              0.0160750513             0.00808635768           
       0.388820              0.0111389223             0.00796474821           
       0.389499              0.0119656333             0.00697694781           
       0.390178              0.0247033468               0.011061123           
       0.390858             0.00349945937             0.00364533371           
       0.391537             0.00968809233             0.00692729384           
       0.392216              0.0160460803              0.0093302561           
       0.392895             0.00571948267             0.00585639951           
       0.393574              0.0111910231             0.00798471229           
       0.394253              0.0146743276             0.00852640957           
       0.394933              0.0111615775             0.00797459403           
       0.395612               0.008169681             0.00587208423           
       0.396291              0.0213212636               0.012323367           
       0.396970               0.014660619             0.00852325269           
       0.397649               0.017315444               0.012321072           
       0.398328              0.0079092869              0.0056741898           
       0.399008             0.00927247541             0.00663616839           
       0.399687             0.00469271094             0.00482263183           
       0.400366             0.00428636164             0.00442099965           
       0.401045             0.00646422461             0.00658401846           
       0.401724              0.0141487333              0.0100407485           
       0.402403             0.00563408338             0.00581451466           
       0.403083             0.00447870283             0.00461274148           
       0.403762              0.0160029876             0.00932163267           
       0.404441               0.009296823             0.00664619708           
       0.405120              0.0111763959             0.00798283345           
       0.405799             0.00976527727             0.00695840388           
       0.406478             0.00515119154             0.00528917594           
       0.407158              0.0267297156              0.0133914191           
       0.407837             0.00853128704             0.00611765404           
       0.408516             0.00736586035             0.00748415405           
       0.409195              0.0160889938             0.00934850367           
       0.409874             0.00856139137             0.00866761237           
       0.410553              0.0140292433              0.0100015347           
       0.411233           -0.000304752103                         0           
       0.411912              0.0188712597              0.0109369352           
       0.412591           -0.000304783564                         0           
       0.413270              0.0179502604              0.0103827455           
       0.413949             0.00794472758             0.00804710007           
       0.414628             0.00645463158             0.00658245547           
       0.415307           -0.000304846087                         0           
       0.415987           -0.000304861808                         0           
       0.416666           -0.000304880125                         0           
       0.417345           -0.000304891859                         0           
       0.418024           -0.000304909605                         0           
       0.418703             0.00644105989             0.00657655107           
       0.419382              0.0161219646               0.016214819           
       0.420062              0.0162282445              0.0115036676           
       0.420741             0.00738830582             0.00749901253           
       0.421420              0.0119366096              0.0084693819           
       0.422099           -0.000305003673                         0           
       0.422778           -0.000305018503                         0           
       0.423457           -0.000305034925                         0           
       0.424137             0.00493001857             0.00505878407           
       0.424816           -0.000305067281                         0           
       0.425495             0.00926563014             0.00939079435           
       0.426174              0.0282452799              0.0163964408           
       0.426853              0.0226128824               0.016071459           
       0.427532             0.00927813304             0.00939786867           
       0.428212           -0.000305147967                         0           
       0.428891           -0.000305161794                         0           
       0.429570           -0.000305178679                         0           
       0.430249              0.0415544594               0.020775293           
       0.430928              0.0140169514               0.014149056           
       0.431607           -0.000305228647                         0           
       0.432287           -0.000305244064                         0           
       0.432966           -0.000305261998                         0           
       0.433645              0.0189411261              0.0134309007           
       0.434324           -0.000305293457                         0           
       0.435003              0.0226668635               0.022762848           
       0.435682           -0.000305326462                         0           
       0.436361              0.0205876945               0.014626758           
       0.437041           -0.000305360297                         0           
       0.437720              0.0124617094              0.0125814082           
       0.438399           -0.000305390648                         0           
       0.439078           -0.000305408909                         0           
       0.439757           -0.000305423778                         0           
       0.440436            -0.00030544482                         0           
       0.441116               0.113647264              0.0403048064           
       0.441795           -0.000305473373                         0           
       0.442474              0.0102081704              0.0103020464           
       0.443153              0.0125326541              0.0126199452           
       0.443832           -0.000305524028                         0           
       0.444511           -0.000305542761                         0           
       0.445191           -0.000305558616                         0           
       0.445870              0.0112023899              0.0113204196           
       0.446549           -0.000305589417                         0           
       0.447228           -0.000305607557                         0           
       0.447907           -0.000305626541                         0           
       0.448586           -0.000305646266                         0           
       0.449266              0.0111802326               0.011310798           
       0.449945           -0.000305673675                         0           
       0.450624              0.0549909659              0.0239188065           
       0.451303           -0.000305712497                         0           
       0.451982           -0.000305726972                         0           
       0.452661           -0.000305740818                         0           
       0.453341           -0.000305761857                         0           
       0.454020           -0.000305777666                         0           
       0.454699           -0.000305791273                         0           
       0.455378              0.0387432734              0.0384514082           
       0.456057              0.0111913235              0.0113195444           
       0.456736              0.0140520685              0.0141816303           
       0.457416           -0.000305864197                         0           
       0.458095           -0.000305881148                         0           
       0.458774              0.0326845419              0.0231237955           
       0.459453             -0.0003059172                         0           
       0.460132            -0.00030593389                         0           
       0.460811              0.0385170095              0.0383477207           
       0.461490           -0.000305969696                         0           
       0.462170            -0.00030598485                         0           
       0.462849           -0.000306005812                         0           
       0.463528           -0.000306016881                         0           
       0.464207            -0.00030603655                         0           
       0.464886           -0.000306048932                         0           
       0.465565           -0.000306075238                         0           
       0.466245           -0.000306100652                         0           
       0.466924           -0.000306106658                         0           
       0.467603           -0.000306130231                         0           
       0.468282           -0.000306142775                         0           
       0.468961               0.037963287              0.0380843247           
       0.469640           -0.000306180099                         0           
       0.470320                       nan                       nan           
       0.470999           -0.000306219754                         0           
       0.471678           -0.000306234826                         0           
       0.472357            -0.00030624653                         0           
       0.473036           -0.000306268351                         0           
       0.473715           -0.000306285065                         0           
       0.474395              0.0382638477              0.0382433522           
       0.475074                       nan                       nan           
       0.475753           -0.000306338768                         0           
       0.476432           -0.000306361349                         0           
       0.477111           -0.000306379884                         0           
       0.477790                       nan                       nan           
       0.478470           -0.000306417793                         0           
       0.479149           -0.000306432057                         0           
       0.479828           -0.000306452397                         0           
       0.480507           -0.000306467409                         0           
       0.481186           -0.000306487816                         0           
       0.481865           -0.000306503436                         0           
       0.482545           -0.000306521813                         0           
       0.483224           -0.000306537379                         0           
       0.483903                       nan                       nan           
       0.484582                       nan                       nan           
       0.485261           -0.000306596553                         0           
