################################################################################
# EDF_DataBlockID                     0.Image.Psd
# EDF_BinarySize                      2105344
# EDF_HeaderSize                      2560
# ByteOrder                           LowByteFirst
# DataType                            FloatValue
# Dim_1                               512
# Dim_2                               1028
# Image                               0
# HeaderID                            EH:000000:000000:000000
# Size                                2105344
# Center_1                            304.9000
# Center_2                            588.7000
# Comment                             Xenocs_Cell_Window - front_window_open_only
# DDummy                              0.6
# Date                                2025-10-19T00:29:59
# Delta                               21.910000
# Dummy                               -1.5
# ExposureTime                        360
# Gamma                               15.360000
# Intensity1                          9.04455e-10
# PSize_1                             7.5e-05
# PSize_2                             7.5e-05
# Pressure                            0.0332069
# SampleDistance                      0.115750
# SampleEnvKind                       large
# SampleEnvPN                         ElectroChemical cell
# SampleEnvSN                         1141
# Thickness                           0
# Wavelength                          1.541891e-10
# Wavelength                          1.54189e-10
# aux                                 0
# aux_dial                            0.002375
# beamx                               588.429
# beamx_dial                          588.429
# beamz                               657.855
# beamz_dial                          657.855
# det0x                               -0.000396875
# det0x_dial                          6.36905
# det0xvd                             -0.0005
# det0xvd_dial                        -0.0005
# det0y                               450.002
# det0y_dial                          481.635
# det0z                               0
# det0z_dial                          1.2295
# det0zvd                             0
# det0zvd_dial                        0
# mag                                 1.818
# mag_dial                            1.818
# om                                  0.2499
# om_dial                             -0.610199
# phi                                 -0.0120535
# phi_dial                            0
# ry                                  0.599993
# ry_dial                             0.599993
# s1bot                               0.8
# s1bot_dial                          -1.66094
# s1hl                                0.8
# s1hl_dial                           -0.608437
# s1hr                                0.8
# s1hr_dial                           0.970938
# s1top                               0.8
# s1top_dial                          -0.461562
# s2bot                               0.45
# s2bot_dial                          1.36109
# s2hl                                0.45
# s2hl_dial                           -0.83375
# s2hr                                0.45
# s2hr_dial                           -0.118594
# s2top                               0.45
# s2top_dial                          1.44734
# w2theta                             32
# w2theta_dial                        32
# waxsch                              19.2605
# waxsch_dial                         -32.7238
# waxsh                               137.085
# waxsh_dial                          -43.5335
# waxsth                              26.0607
# waxsth_dial                         -19.4068
# waxsz                               67.0407
# waxsz_dial                          -23.7962
# wind                                65.9854
# wind_dial                           66.0041
# wpsi                                124
# wpsi_dial                           124
# wstod                               115
# wstod_dial                          115
# x                                   0
# x_dial                              1.00969
# z                                   0
# z_dial                              13.3172
# CountCutoff                         6807993
# DetectorModel                       Dectris EIGER2 Si 500K, S/N E-01-0554
# ThresholdSetting                    4023.88989258
# Saturation                          0
# FlatField                           Corrected
# BackgroundReductionExtra            0.02
# BackgroundCorrectionConstant        0.0026712
# Detector                            0
# Monitor                             0
# Pil_Roi0                            0
# SumForIntensity1                    3.25604e+08
# TransmittedFlux                     904455
# det                                 0
# mon                                 0
# pilai0                              3.25604e+08
# pilai1                              702559
# pilct0                              5.63332e+08
# pilct1                              702559
# pilroi0                             0
# pilroi1                             0
# sec                                 1
# title                               20251017__1_00276.edf
# usaxs0                              0
# Operation                           Azimuthal average I(q)
# Error_model                         ErrorModel.poisson
# Geometrical_correction              True
# Transmission_correction             True
# Thickness_correction                False
# Binning mode                        Uniform
# Binning factor                      1.0
# Psi                                 0.0
# Omega                               0.2499
# MaskInvalidPixels                   True
# DetectorEdge                        3
# MaskFiles                           ['20251017__1_00233_mask.edf']
################################################################################
    q(A⁻¹)                Intensity(a.u.)            Sigma_I(a.u.)            
       0.690460           -2.24558371e-05                         0           
       0.693100             0.00938270308             0.00397066409           
       0.695741             0.00691119322             0.00287900089           
       0.698381              0.0100304415             0.00324392999           
       0.701021             0.00472132319             0.00181638614           
       0.703662              0.0058337385             0.00186892611           
       0.706302             0.00329225953             0.00135594332           
       0.708942             0.00517938491             0.00151069755           
       0.711583              0.0073451795             0.00179870562           
       0.714223              0.0085943534             0.00169546845           
       0.716864              0.0065239272             0.00150740298           
       0.719504             0.00591009336              0.0013278495           
       0.722144             0.00738533109             0.00143358141           
       0.724785             0.00530634871             0.00119524841           
       0.727425             0.00688152373             0.00126252636           
       0.730065             0.00674211638             0.00128584266           
       0.732706             0.00726604296             0.00120037387           
       0.735346             0.00525898477             0.00110308975           
       0.737987             0.00720152404             0.00111727491           
       0.740627             0.00618751632             0.00113452433           
       0.743267             0.00700943891             0.00103868244           
       0.745908             0.00579059723             0.00101177978           
       0.748548             0.00658205181             0.00100608615           
       0.751189             0.00686140623             0.00101753677           
       0.753829             0.00641875059            0.000993044934           
       0.756469             0.00714915141            0.000985714008           
       0.759110             0.00715526925             0.00102000022           
       0.761750             0.00580813094            0.000841053558           
       0.764390             0.00763790205             0.00103531442           
       0.767031             0.00615416029            0.000840935092           
       0.769671              0.0078604875             0.00100792211           
       0.772312             0.00595630639            0.000799534059           
       0.774952             0.00722687906            0.000944148181           
       0.777592             0.00810455775             0.00091450168           
       0.780233             0.00488755568            0.000748673663           
       0.782873             0.00800278526            0.000876044269           
       0.785513             0.00679587261            0.000858761339           
       0.788154              0.0064379532            0.000767730524           
       0.790794             0.00779322887            0.000874222363           
       0.793435             0.00519249801            0.000685400313           
       0.796075             0.00661871952            0.000777914032           
       0.798715             0.00751647884            0.000824262287           
       0.801356             0.00575578487            0.000701987946           
       0.803996             0.00587661121            0.000720653069           
       0.806637             0.00682134856            0.000733923849           
       0.809277             0.00617268553             0.00073038584           
       0.811917              0.0076939832            0.000771641232           
       0.814558             0.00573198777            0.000682302857           
       0.817198             0.00662234254             0.00069928057           
       0.819838             0.00624762182            0.000708487007           
       0.822479              0.0074050039            0.000710817258           
       0.825119             0.00671806787            0.000727320198           
       0.827760             0.00687377768            0.000681702278           
       0.830400             0.00679128012            0.000713936467           
       0.833040             0.00682231908            0.000667827037           
       0.835681             0.00691864224            0.000704277044           
       0.838321             0.00662704084            0.000645149178           
       0.840961             0.00676124337            0.000681131762           
       0.843602             0.00629653363            0.000619157624           
       0.846242             0.00668467001            0.000660479563           
       0.848883             0.00674612268            0.000645444776           
       0.851523             0.00648864121            0.000637751437           
       0.854163             0.00658562379            0.000635035496           
       0.856804             0.00577321193             0.00057936378           
       0.859444             0.00738644376            0.000660042077           
       0.862085             0.00701291936            0.000633781463           
       0.864725             0.00710959374            0.000635792091           
       0.867365             0.00747143035            0.000647102723           
       0.870006             0.00774101651            0.000667863651           
       0.872646             0.00592427355            0.000558832816           
       0.875286             0.00740085728            0.000645887134           
       0.877927             0.00682598666            0.000593907011           
       0.880567             0.00635097035            0.000584061033           
       0.883208              0.0066460905            0.000580221996           
       0.885848             0.00752450365            0.000633386931           
       0.888488             0.00705297083            0.000583061956           
       0.891129             0.00794701322             0.00065058975           
       0.893769             0.00672130201            0.000565559028           
       0.896410             0.00673859458            0.000583729627           
       0.899050             0.00617978847            0.000538988065           
       0.901690             0.00647619221            0.000563279843           
       0.904331             0.00680380338            0.000557194398           
       0.906971             0.00663660994            0.000568243297           
       0.909611             0.00683069682            0.000553335906           
       0.912252             0.00649411913             0.00054888014           
       0.914892             0.00666173808            0.000541837802           
       0.917533             0.00723979758            0.000577602742           
       0.920173             0.00662651846            0.000530078202           
       0.922813             0.00717815445            0.000576537218           
       0.925454             0.00668415969            0.000528004722           
       0.928094             0.00781620449            0.000583224473           
       0.930734             0.00664052725            0.000524745404           
       0.933375             0.00774150334            0.000578656357           
       0.936015             0.00701106081             0.00052690059           
       0.938656             0.00690028951            0.000544647502           
       0.941296             0.00668426141            0.000516754507           
       0.943936             0.00761913693            0.000561645632           
       0.946577             0.00645247945            0.000497768001           
       0.949217             0.00749733019            0.000555507587           
       0.951858             0.00704140673            0.000508948624           
       0.954498             0.00794088489            0.000568607203           
       0.957138             0.00709749937            0.000516679244           
       0.959779             0.00770319392            0.000550048025           
       0.962419             0.00716189028            0.000510584969           
       0.965059             0.00693498613            0.000516702941           
       0.967700             0.00839540639             0.00055012671           
       0.970340             0.00751629266            0.000535154197           
       0.972981             0.00905209865             0.00056704424           
       0.975621             0.00637613025            0.000485870309           
       0.978261             0.00751487586            0.000503278212           
       0.980902             0.00772766119            0.000534654265           
       0.983542             0.00833216242            0.000539007339           
       0.986182             0.00801742558            0.000535692157           
       0.988823             0.00761317037            0.000505169102           
       0.991463             0.00706242752            0.000498175287           
       0.994104             0.00754241631            0.000497472525           
       0.996744             0.00720117069            0.000501851832           
       0.999384             0.00640187693            0.000457121402           
       1.002025             0.00814255174            0.000529888989           
       1.004665             0.00746539422            0.000486594065           
       1.007306             0.00759374866            0.000507203694           
       1.009946             0.00736389763            0.000480254779           
       1.012586             0.00839591614            0.000527555622           
       1.015227             0.00735900355            0.000478955088           
       1.017867             0.00749204336            0.000497113859           
       1.020507             0.00736649628            0.000474374402           
       1.023148             0.00776001818            0.000492760984           
       1.025788             0.00714644764            0.000468036865           
       1.028429             0.00785343023            0.000501367719           
       1.031069             0.00802909029            0.000488415276           
       1.033709             0.00712065986            0.000468788389           
       1.036350             0.00768144623            0.000474130834           
       1.038990             0.00787043124            0.000491776232           
       1.041630             0.00813284694            0.000490289925           
       1.044271             0.00745565088            0.000469486614           
       1.046911             0.00698119373            0.000445861796           
       1.049552             0.00758968926            0.000481640441           
       1.052192             0.00777852657            0.000465668963           
       1.054832             0.00751285423            0.000466547413           
       1.057473             0.00807925692            0.000477689713           
       1.060113             0.00762337717             0.00046904169           
       1.062754             0.00734308361            0.000455246786           
       1.065394             0.00823062118            0.000476903377           
       1.068034             0.00825405484            0.000475732834           
       1.070675             0.00729337504            0.000455057268           
       1.073315             0.00803686179            0.000463087389           
       1.075955             0.00811521229            0.000473143588           
       1.078596             0.00719360397            0.000444587243           
       1.081236             0.00834937044            0.000471868356           
       1.083877             0.00858956541            0.000493558714           
       1.086517             0.00777551913            0.000458966271           
       1.089157             0.00865511234            0.000487781069           
       1.091798              0.0076606989            0.000449182043           
       1.094438              0.0081291334            0.000470065422           
       1.097078             0.00794816903            0.000452859558           
       1.099719             0.00892179831            0.000492092191           
       1.102359             0.00815046153            0.000445561621           
       1.105000             0.00750676802            0.000444446062           
       1.107640             0.00923858803            0.000476982609           
       1.110280             0.00896018525            0.000479146608           
       1.112921             0.00830263442            0.000452884705           
       1.115561             0.00799732957            0.000450120709           
       1.118202             0.00909738054            0.000466069147           
       1.120842             0.00742353515            0.000434280205           
       1.123482             0.00847561796            0.000451017619           
       1.126123             0.00828587681            0.000448723696           
       1.128763             0.00829411412            0.000446719937           
       1.131403             0.00906077173            0.000466183906           
       1.134044             0.00862325252            0.000453999926           
       1.136684             0.00802333349            0.000441213959           
       1.139325             0.00819625705            0.000433378602           
       1.141965             0.00814957958            0.000437794556           
       1.144605             0.00899654701              0.0004626837           
       1.147246             0.00866993465            0.000445605225           
       1.149886             0.00834413462            0.000440261526           
       1.152527             0.00797844984            0.000430937509           
       1.155167             0.00851378952            0.000438901406           
       1.157807             0.00801479397            0.000426138516           
       1.160448              0.0084978558            0.000444796287           
       1.163088             0.00905977232            0.000442228209           
       1.165728             0.00820697975            0.000438249263           
       1.168369             0.00750595212            0.000404152072           
       1.171009             0.00910709624            0.000448867031           
       1.173650             0.00832134974            0.000425972472           
       1.176290             0.00838298869            0.000432563927           
       1.178930             0.00831809442            0.000418773687           
       1.181571             0.00803860568            0.000425124207           
       1.184211             0.00888823494            0.000433525559           
       1.186851             0.00912615612            0.000443340059           
       1.189492             0.00884806992            0.000438957292           
       1.192132             0.00857272154             0.00042567412           
       1.194773             0.00913458451            0.000436751319           
       1.197413             0.00939460186            0.000446536904           
       1.200053             0.00958571738            0.000448218086           
       1.202694             0.00856847755            0.000420575319           
       1.205334             0.00942870977              0.0004460051           
       1.207975             0.00847731123            0.000414618687           
       1.210615             0.00968663012             0.00045257866           
       1.213255             0.00902748881            0.000425350649           
       1.215896             0.00947882922            0.000444115577           
       1.218536               0.010595282            0.000456018561           
       1.221176             0.00926540336            0.000436619103           
       1.223817             0.00903266488              0.0004221174           
       1.226457              0.0094288876            0.000436754166           
       1.229098             0.00933951401            0.000428084855           
       1.231738             0.00971025336            0.000442645328           
       1.234378             0.00936249353            0.000426201344           
       1.237019             0.00960589633            0.000435188017           
       1.239659             0.00936946721            0.000429566483           
       1.242299             0.00996644426            0.000440775158           
       1.244940             0.00954256042            0.000426644414           
       1.247580             0.00984505074            0.000435267226           
       1.250221              0.0098002283            0.000441364108           
       1.252861             0.00888447067             0.00040458083           
       1.255501             0.00977078681            0.000436260919           
       1.258142              0.0103689351            0.000440531168           
       1.260782             0.00980748898            0.000433277988           
       1.263423             0.00945151273            0.000416915312           
       1.266063             0.00962421599            0.000428548534           
       1.268703             0.00985274656            0.000422681979           
       1.271344              0.0104071688            0.000443873051           
       1.273984             0.00930608101            0.000413183295           
       1.276624             0.00922326654             0.00040883096           
       1.279265              0.0101791888            0.000430432595           
       1.281905             0.00953710724            0.000419204168           
       1.284546              0.0104452672             0.00043391685           
       1.287186              0.0100297525            0.000425607105           
       1.289826               0.010241185            0.000432299925           
       1.292467             0.00998086679            0.000419153258           
       1.295107             0.00998947865            0.000426725411           
       1.297747              0.0110273135            0.000436584747           
       1.300388              0.0101285189            0.000429159004           
       1.303028             0.00964680421            0.000408178748           
       1.305669             0.00966450153            0.000413831479           
       1.308309              0.0107410115            0.000429711254           
       1.310949             0.00997320797            0.000419228836           
       1.313590             0.00993715145            0.000411994161           
       1.316230              0.0103153314            0.000427316337           
       1.318871              0.0100904288             0.00041351465           
       1.321511              0.0103114796            0.000420114367           
       1.324151              0.0106235142            0.000428108499           
       1.326792              0.0102917269            0.000417956922           
       1.329432               0.010403829            0.000422419073           
       1.332072              0.0105346836              0.0004177784           
       1.334713              0.0110008042            0.000432215559           
       1.337353              0.0113405086            0.000432087862           
       1.339994              0.0106284047            0.000424260012           
       1.342634                 0.0106335            0.000414808279           
       1.345274              0.0119536697            0.000445554449           
       1.347915              0.0108872817            0.000426346751           
       1.350555              0.0104356672            0.000415779735           
       1.353195              0.0108394186            0.000415640132           
       1.355836              0.0106551196            0.000419866784           
       1.358476              0.0109597895            0.000424629632           
       1.361117              0.0102449754            0.000400249677           
       1.363757              0.0105963898            0.000420546451           
       1.366397              0.0108754738            0.000412781051           
       1.369038              0.0109374112            0.000422679803           
       1.371678              0.0106746888            0.000409140767           
       1.374319              0.0105571402            0.000410108847           
       1.376959              0.0107989242            0.000409068279           
       1.379599              0.0108604653            0.000418228461           
       1.382240              0.0100004776            0.000393705598           
       1.384880              0.0105248947            0.000408855534           
       1.387520               0.010044184            0.000394739619           
       1.390161              0.0108954508            0.000410009565           
       1.392801              0.0103629615            0.000402248212           
       1.395442              0.0106876957            0.000404269379           
       1.398082              0.0104148622            0.000400441643           
       1.400722              0.0108328813            0.000406553827           
       1.403363              0.0109221152            0.000412013093           
       1.406003              0.0100402931            0.000385330648           
       1.408644              0.0100630899            0.000393866556           
       1.411284              0.0100585944            0.000391619016           
       1.413924              0.0110608089            0.000405600817           
       1.416565              0.0102921678            0.000390794077           
       1.419205              0.0105875461            0.000400266537           
       1.421845              0.0104751022            0.000393130113           
       1.424486               0.010455213            0.000394490634           
       1.427126              0.0105059178            0.000395196556           
       1.429767              0.0105008276            0.000389012361           
       1.432407              0.0113995938             0.00041552895           
       1.435047              0.0102509047            0.000382196557           
       1.437688              0.0100763897            0.000387320611           
       1.440328              0.0102765686            0.000383569001           
       1.442968              0.0101630811             0.00038672551           
       1.445609              0.0104851738            0.000386344945           
       1.448249              0.0104267978            0.000387759051           
       1.450890              0.0107854552            0.000391558405           
       1.453530             0.00997922986            0.000379429281           
       1.456170              0.0111380207            0.000399951642           
       1.458811              0.0104340741            0.000384026735           
       1.461451              0.0102328973            0.000383102144           
       1.464092              0.0103367785            0.000381685523           
       1.466732              0.0109232805            0.000389957838           
       1.469372              0.0104320512            0.000379917179           
       1.472013              0.0101719284            0.000381862455           
       1.474653              0.0106496459            0.000381078806           
       1.477293              0.0104287058            0.000383452658           
       1.479934              0.0109712247             0.00038918368           
       1.482574               0.010283429            0.000375857215           
       1.485215               0.010248558            0.000376185597           
       1.487855              0.0116633657            0.000401229636           
       1.490495              0.0110062699            0.000388924566           
       1.493136              0.0103164673            0.000371601732           
       1.495776              0.0106813888            0.000384709225           
       1.498416             0.00973140517            0.000360069533           
       1.501057              0.0102175914            0.000372128037           
       1.503697             0.00998559181             0.00036434198           
       1.506338              0.0106578407            0.000379174458           
       1.508978             0.00953366569            0.000356502516           
       1.511618             0.00995857285             0.00036417628           
       1.514259              0.0102310251            0.000369790994           
       1.516899             0.00996405212            0.000365104299           
       1.519540              0.0099462369            0.000362753462           
       1.522180              0.0100583039            0.000360235729           
       1.524820             0.00988971642            0.000364418655           
       1.527461              0.0100532904            0.000359291979           
       1.530101              0.0102365928            0.000366301226           
       1.532741             0.00959189615            0.000352898958           
       1.535382              0.0105964196            0.000371734682           
       1.538022              0.0100781273            0.000359322061           
       1.540663              0.0108827637            0.000376919672           
       1.543303              0.0110473952            0.000375034097           
       1.545943             0.00979289043            0.000355077699           
       1.548584              0.0093922259             0.00034958977           
       1.551224             0.00951587766            0.000342862203           
       1.553864             0.00972727121            0.000355705264           
       1.556505              0.0103459678            0.000361199941           
       1.559145              0.0101393262            0.000358401239           
       1.561786             0.00971475914            0.000349227982           
       1.564426              0.0096575821            0.000347884251           
       1.567066             0.00933795793            0.000339409114           
       1.569707             0.00989123667            0.000354376768           
       1.572347              0.0101028438            0.000353500688           
       1.574988             0.00986256285            0.000347889921           
       1.577628             0.00954775785             0.00034999936           
       1.580268             0.00932193437            0.000333900788           
       1.582909             0.00880327173            0.000330547988           
       1.585549             0.00935376418            0.000337542117           
       1.588189             0.00929028951            0.000340152082           
       1.590830             0.00945875703            0.000337330714           
       1.593470             0.00892359005             0.00033032453           
       1.596111             0.00894814314            0.000327920485           
       1.598751             0.00943664756            0.000340195136           
       1.601391             0.00868424833            0.000324264757           
       1.604032              0.0087082397            0.000322000735           
       1.606672              0.0085800471            0.000326054844           
       1.609312             0.00930256781             0.00032940378           
       1.611953             0.00939944317            0.000335913146           
       1.614593             0.00938632379            0.000333125557           
       1.617234             0.00950886242            0.000337193555           
       1.619874             0.00897590685            0.000323753685           
       1.622514             0.00848312823            0.000317524797           
       1.625155             0.00905325558            0.000327210071           
       1.627795             0.00948765552            0.000331583408           
       1.630436             0.00895042303             0.00032529591           
       1.633076             0.00873200746            0.000319669901           
       1.635716             0.00898265457                0.00032366           
       1.638357             0.00870758369            0.000317311923           
       1.640997               0.008215123            0.000310618795           
       1.643637              0.0090787671            0.000320474803           
       1.646278             0.00836825162            0.000312284427           
       1.648918             0.00865745223             0.00031353979           
       1.651559             0.00845684967            0.000313782233           
       1.654199             0.00858207327            0.000311764006           
       1.656839             0.00753687973            0.000292084633           
       1.659480             0.00848992529            0.000312732516           
       1.662120             0.00841399853             0.00030715902           
       1.664761             0.00865254332            0.000314855186           
       1.667401             0.00847092016            0.000308630937           
       1.670041             0.00879981445            0.000314925358           
       1.672682             0.00828220282            0.000302648004           
       1.675322             0.00818742312            0.000306231698           
       1.677962             0.00861982373            0.000307973838           
       1.680603              0.0089717965            0.000316987166           
       1.683243             0.00789511178            0.000295159239           
       1.685884             0.00884678913            0.000313631436           
       1.688524             0.00850822046            0.000306706168           
       1.691164             0.00801115701            0.000296847275           
       1.693805              0.0088574339            0.000314656899           
       1.696445             0.00883796417            0.000309948448           
       1.699085             0.00828345639            0.000301265613           
       1.701726              0.0079938548             0.00029210281           
       1.704366             0.00831801582            0.000305216722           
       1.707007             0.00884349082            0.000307994124           
       1.709647             0.00860487325            0.000307585381           
       1.712287             0.00855735935            0.000301608864           
       1.714928             0.00870026868            0.000307174891           
       1.717568              0.0080162288            0.000292140893           
       1.720209             0.00833717726            0.000299771533           
       1.722849             0.00860867283             0.00030510179           
       1.725489             0.00820883589            0.000293183502           
       1.728130             0.00844918457            0.000303499681           
       1.730770             0.00811815117            0.000291206509           
       1.733410             0.00795742302            0.000292094182           
       1.736051              0.0089845101            0.000305555381           
       1.738691             0.00787468257            0.000288981275           
       1.741332             0.00797913937            0.000289100939           
       1.743972             0.00827392367            0.000294502025           
       1.746612             0.00787140124            0.000287315104           
       1.749253             0.00867028775            0.000302846105           
       1.751893             0.00887430466            0.000304550286           
       1.754533             0.00825879267            0.000289766539           
       1.757174             0.00783210527            0.000287457792           
       1.759814                0.00823129            0.000290199548           
       1.762455             0.00825484663            0.000293088634           
       1.765095             0.00801615223            0.000284764148           
       1.767735             0.00841918446             0.00029679394           
       1.770376             0.00874678999            0.000297925542           
       1.773016             0.00819563035            0.000288841399           
       1.775657             0.00845832678            0.000294035216           
       1.778297             0.00838015184            0.000294105035           
       1.780937             0.00804003793            0.000286730709           
       1.783578             0.00782327939            0.000281511056           
       1.786218             0.00845858195            0.000297389317           
       1.788858             0.00876000459            0.000295122479           
       1.791499             0.00848519427            0.000295809603           
       1.794139             0.00865823282            0.000293292777           
       1.796780             0.00887754693            0.000298748754           
       1.799420             0.00840018931            0.000290235728           
       1.802060             0.00865727078            0.000291019547           
       1.804701             0.00854881219            0.000293070586           
       1.807341             0.00895212037            0.000297006171           
       1.809981             0.00897319302            0.000299330345           
       1.812622             0.00912592719            0.000300222419           
       1.815262             0.00858550485            0.000292235717           
       1.817903             0.00862446668            0.000289279446           
       1.820543             0.00872376693            0.000294536067           
       1.823183             0.00851075327            0.000286435431           
       1.825824             0.00853645851            0.000291181676           
       1.828464             0.00824935685            0.000285364982           
       1.831105             0.00839337782            0.000288959602           
       1.833745             0.00823883898            0.000286108388           
       1.836385             0.00832608995            0.000286500725           
       1.839026             0.00878822955            0.000298769164           
       1.841666             0.00832077439            0.000286939826           
       1.844306             0.00864323112             0.00029613894           
       1.846947             0.00865321278            0.000292502075           
       1.849587              0.0081541165            0.000287792453           
       1.852228             0.00848061923            0.000290376124           
       1.854868             0.00848225348            0.000295730316           
       1.857508             0.00827305951            0.000286667964           
       1.860149             0.00801729908             0.00028446401           
       1.862789             0.00791392626            0.000283874751           
       1.865429             0.00788407676            0.000284193122           
       1.868070             0.00852432417            0.000294486129           
       1.870710             0.00842889039            0.000293630516           
       1.873351             0.00823519932            0.000292090078           
       1.875991             0.00831926066            0.000295165109           
       1.878631             0.00871214127             0.00029924689           
       1.881272             0.00800669115            0.000286203682           
       1.883912             0.00798665269            0.000289197654           
       1.886553             0.00860028446            0.000296502052           
       1.889193             0.00848503744            0.000297910788           
       1.891833             0.00847999697            0.000294433106           
       1.894474             0.00867020511            0.000300073169           
       1.897114             0.00813286145            0.000288371504           
       1.899754             0.00924421776            0.000310891737           
       1.902395             0.00831783226            0.000294965859           
       1.905035             0.00862644843            0.000299210878           
       1.907676              0.0086680333             0.00030027989           
       1.910316             0.00773652782            0.000285495553           
       1.912956             0.00838175748            0.000297150584           
       1.915597             0.00848632563            0.000295881241           
       1.918237             0.00852521883            0.000301060182           
       1.920878             0.00892037298            0.000302508285           
       1.923518             0.00832074432            0.000299926495           
       1.926158              0.0083142335             0.00029291981           
       1.928799             0.00822692351            0.000295249701           
       1.931439             0.00841977563            0.000296296531           
       1.934079             0.00837145028            0.000298436943           
       1.936720             0.00810875247             0.00029198837           
       1.939360             0.00828241824             0.00029794268           
       1.942001             0.00816215403            0.000294633814           
       1.944641             0.00809044846            0.000292072738           
       1.947281             0.00826245114            0.000296587163           
       1.949922             0.00839053747            0.000299251282           
       1.952562             0.00808998166            0.000296371228           
       1.955202             0.00836687315            0.000293827817           
       1.957843              0.0081236962            0.000298723691           
       1.960483             0.00810887982            0.000293690633           
       1.963124             0.00764816657            0.000285013977           
       1.965764             0.00790938464             0.00028994397           
       1.968404             0.00846847525            0.000305381583           
       1.971045             0.00775958718            0.000284993025           
       1.973685             0.00791586987             0.00029322031           
       1.976326             0.00797006495            0.000292939577           
       1.978966             0.00810866018            0.000296873819           
       1.981606             0.00823592108            0.000296030236           
       1.984247             0.00834914237            0.000300657064           
       1.986887              0.0083163284            0.000302871985           
       1.989527             0.00804309034            0.000291649576           
       1.992168             0.00776122791            0.000293405949           
       1.994808             0.00778537938            0.000290444041           
       1.997449             0.00741555016            0.000283045932           
       2.000089              0.0078406471            0.000289331919           
       2.002729             0.00835231312            0.000305466143           
       2.005370             0.00846102695            0.000301603279           
       2.008010              0.0073580383              0.0002849926           
       2.010650             0.00822104247            0.000300380573           
       2.013291             0.00790510831            0.000296228791           
       2.015931             0.00742716927            0.000285079206           
       2.018572             0.00715132309             0.00028345037           
       2.021212             0.00793684016            0.000295932309           
       2.023852             0.00744263986            0.000288076304           
       2.026493             0.00737768529            0.000285559551           
       2.029133             0.00740216348            0.000283850895           
       2.031774             0.00777743134            0.000293778749           
       2.034414             0.00799645797            0.000296108966           
       2.037054             0.00762336058            0.000292764115           
       2.039695             0.00731572565            0.000281147012           
       2.042335             0.00762644281            0.000291941522           
       2.044975             0.00769273096            0.000290864184           
       2.047616             0.00802358376            0.000298326046           
       2.050256             0.00738103957            0.000282765796           
       2.052897             0.00727820815            0.000289105313           
       2.055537             0.00735286125            0.000282661762           
       2.058177             0.00729604077            0.000284054647           
       2.060818             0.00742753819            0.000287463415           
       2.063458             0.00778029031            0.000294615636           
       2.066098             0.00728489113            0.000283816628           
       2.068739             0.00777657064            0.000296295576           
       2.071379             0.00753478985            0.000287346115           
       2.074020             0.00766113421            0.000293712957           
       2.076660             0.00734023986            0.000285547141           
       2.079300             0.00774210835            0.000293217164           
       2.081941             0.00771901509            0.000294559476           
       2.084581             0.00707993278             0.00028231126           
       2.087222             0.00807103719            0.000301629674           
       2.089862             0.00736759005            0.000284593547           
       2.092502             0.00742205732            0.000290833715           
       2.095143             0.00668949464            0.000272162066           
       2.097783             0.00705842332            0.000283820387           
       2.100423              0.0069845342            0.000276917348           
       2.103064             0.00710905042            0.000284198421           
       2.105704             0.00725916402            0.000286084635           
       2.108345             0.00736967029            0.000289577314           
       2.110985             0.00759948819            0.000289927468           
       2.113625             0.00710444394            0.000284741987           
       2.116266             0.00763531253            0.000293003965           
       2.118906             0.00756667913             0.00029147201           
       2.121546             0.00751452768            0.000290235195           
       2.124187             0.00741027729            0.000292201408           
       2.126827             0.00726783804            0.000284841167           
       2.129468             0.00694573028            0.000281363503           
       2.132108             0.00730195113            0.000287891385           
       2.134748             0.00759054269            0.000292419155           
       2.137389              0.0077655467            0.000298248155           
       2.140029             0.00706358336            0.000283758148           
       2.142670             0.00727715849            0.000288486682           
       2.145310             0.00699119928            0.000283842058           
       2.147950             0.00788664435            0.000302637479           
       2.150591             0.00764445817             0.00029522198           
       2.153231             0.00772767065            0.000301212762           
       2.155871             0.00723198558            0.000287183795           
       2.158512              0.0072326235            0.000292371526           
       2.161152             0.00766383537            0.000293443053           
       2.163793             0.00770780196            0.000299071975           
       2.166433             0.00735176881            0.000287018058           
       2.169073             0.00763963351             0.00029941446           
       2.171714             0.00723495262            0.000285444374           
       2.174354             0.00765146301             0.00029803148           
       2.176995             0.00702336672            0.000283168541           
       2.179635             0.00746878421            0.000297536042           
       2.182275              0.0066450397             0.00027507783           
       2.184916             0.00694165886            0.000287092295           
       2.187556              0.0068685064            0.000280978062           
       2.190196             0.00744506625            0.000297131467           
       2.192837             0.00744907839            0.000293956885           
       2.195477             0.00734625481            0.000294736938           
       2.198118             0.00744828982            0.000291297712           
       2.200758              0.0074500757            0.000295856821           
       2.203398             0.00770307501            0.000295849484           
       2.206039             0.00731762624            0.000292760024           
       2.208679             0.00738307191            0.000291187668           
       2.211319             0.00729091236             0.00029072661           
       2.213960             0.00712977139            0.000284439117           
       2.216600             0.00673666187            0.000283000933           
       2.219241             0.00714954383            0.000287305791           
       2.221881             0.00748017332            0.000295405733           
       2.224521             0.00734558952             0.00029172084           
       2.227162             0.00714379269            0.000292204531           
       2.229802             0.00733402329            0.000291263583           
       2.232443              0.0070623189            0.000286941085           
       2.235083               0.007290938            0.000289800262           
       2.237723             0.00703400752            0.000286829621           
       2.240364             0.00730555711            0.000290826931           
       2.243004             0.00688235826            0.000283130499           
       2.245644             0.00742242419            0.000293350512           
       2.248285             0.00742070277             0.00029522058           
       2.250925             0.00760107106            0.000297389685           
       2.253566             0.00731146853            0.000292382552           
       2.256206             0.00750617967            0.000295362775           
       2.258846             0.00656005809            0.000276123899           
       2.261487             0.00723003193            0.000290382797           
       2.264127             0.00707534635             0.00028997763           
       2.266767             0.00673041979            0.000278249817           
       2.269408              0.0068724055            0.000284508891           
       2.272048             0.00689240051            0.000283169815           
       2.274689              0.0069214556            0.000284881888           
       2.277329             0.00705370585            0.000287208521           
       2.279969             0.00739976921            0.000295061176           
       2.282610             0.00672216621            0.000278484841           
       2.285250             0.00760128648            0.000300792994           
       2.287891              0.0070503599            0.000286764272           
       2.290531              0.0072483113            0.000292195954           
       2.293171             0.00672485336            0.000281433491           
       2.295812             0.00740652785            0.000293785604           
       2.298452             0.00697519457            0.000286928713           
       2.301092             0.00739387876            0.000297291171           
       2.303733             0.00732685149            0.000290087046           
       2.306373             0.00662063461            0.000282497162           
       2.309014             0.00725578635            0.000290038672           
       2.311654             0.00706436156            0.000288903197           
       2.314294             0.00708200745            0.000288632292           
       2.316935             0.00659923504            0.000279721985           
       2.319575              0.0071021066            0.000289097329           
       2.322215             0.00693429803            0.000289732131           
       2.324856              0.0074570821            0.000292910155           
       2.327496             0.00711581131            0.000293141597           
       2.330137               0.007388499            0.000293196712           
       2.332777             0.00684116509            0.000285213575           
       2.335417             0.00697271283            0.000287078262           
       2.338058              0.0069384359            0.000287517921           
       2.340698             0.00672058678            0.000280182201           
       2.343339             0.00745363968            0.000300698037           
       2.345979              0.0072379323             0.00029040213           
       2.348619             0.00714044252            0.000293886852           
       2.351260             0.00743097212            0.000293433023           
       2.353900              0.0073647364            0.000298310233           
       2.356540              0.0071447639            0.000289780445           
       2.359181             0.00698090344            0.000290268503           
       2.361821             0.00712212399            0.000289617492           
       2.364462             0.00738666948            0.000299876661           
       2.367102             0.00732769742            0.000290040177           
       2.369742             0.00724607373             0.00029875634           
       2.372383             0.00672280582            0.000279378364           
       2.375023             0.00755731485            0.000303928577           
       2.377663             0.00671028671            0.000280304351           
       2.380304             0.00739371403            0.000298314001           
       2.382944             0.00701366841             0.00028770418           
       2.385585             0.00682885976            0.000286572192           
       2.388225             0.00689807076            0.000286719401           
       2.390865             0.00698324978            0.000289222936           
       2.393506             0.00719671133            0.000292257004           
       2.396146             0.00720578137            0.000293410409           
       2.398787             0.00714881972            0.000292504033           
       2.401427             0.00702366495            0.000288171825           
       2.404067             0.00714131603            0.000295010397           
       2.406708             0.00749091978             0.00029834758           
       2.409348              0.0072077068            0.000294854902           
       2.411988              0.0071351572            0.000292430266           
       2.414629             0.00679320897            0.000286270567           
       2.417269             0.00729415447            0.000293944038           
       2.419910             0.00719207525            0.000295560802           
       2.422550             0.00718293076            0.000290889146           
       2.425190             0.00733265836             0.00030315887           
       2.427831             0.00713545311            0.000287807435           
       2.430471             0.00694496785            0.000292239816           
       2.433112             0.00680831229            0.000282522776           
       2.435752             0.00698406123            0.000293390163           
       2.438392             0.00718371186            0.000292552802           
       2.441033             0.00681302154            0.000286210293           
       2.443673             0.00649060358            0.000280101925           
       2.446313             0.00712930488            0.000291996106           
       2.448954             0.00719548045             0.00029592219           
       2.451594             0.00706458962            0.000291458961           
       2.454235             0.00726901485            0.000294725883           
       2.456875             0.00779869995            0.000306821578           
       2.459515             0.00730521089            0.000297413235           
       2.462156             0.00785244397            0.000306762174           
       2.464796             0.00753481686            0.000305794456           
       2.467436             0.00700191243            0.000288601316           
       2.470077             0.00786510569            0.000310091649           
       2.472717             0.00773310721            0.000303631187           
       2.475358             0.00768967546            0.000306207655           
       2.477998             0.00777475537            0.000306254296           
       2.480638             0.00702716742            0.000291865613           
       2.483279             0.00752558693            0.000303336515           
       2.485919             0.00722985465            0.000295234894           
       2.488560             0.00740628268            0.000300054912           
       2.491200             0.00724968112            0.000296458707           
       2.493840             0.00734344449             0.00029674517           
       2.496481             0.00719973697            0.000297669579           
       2.499121             0.00723137744             0.00029435091           
       2.501761             0.00761242383            0.000307134778           
       2.504402             0.00695248006            0.000287894764           
       2.507042             0.00749730655            0.000303932104           
       2.509683             0.00751797706             0.00030157911           
       2.512323              0.0073396033            0.000299146726           
       2.514963              0.0134115499            0.000405182154           
       2.517604              0.0289915344            0.000593393604           
       2.520244              0.0367084778            0.000667859938           
       2.522884             0.00899177192            0.000329817575           
       2.525525             0.00962103236            0.000343965388           
       2.528165               0.016971459            0.000454752917           
       2.530806              0.0209528699            0.000503389748           
       2.533446              0.0141376377            0.000417170366           
       2.536086              0.0121441853            0.000383397184           
       2.538727              0.0113784505            0.000373492261           
       2.541367              0.0102400433            0.000353302995           
       2.544008             0.00762911142            0.000305211678           
       2.546648              0.0074445276            0.000301839181           
       2.549288             0.00686575664            0.000289910374           
       2.551929             0.00730236571            0.000299973938           
       2.554569             0.00713729347            0.000293853986           
       2.557209             0.00689483693            0.000292083005           
       2.559850             0.00700613213            0.000291045237           
       2.562490             0.00707376449            0.000294575997           
       2.565131             0.00645421055            0.000281869826           
       2.567771             0.00668661071             0.00028537909           
       2.570411             0.00665641506            0.000288198907           
       2.573052             0.00677899356            0.000287445454           
       2.575692             0.00694461374            0.000291707385           
       2.578332             0.00673067923            0.000286330753           
       2.580973             0.00698912791            0.000294142049           
       2.583613             0.00716745381            0.000295156447           
       2.586254              0.0070374906            0.000295055699           
       2.588894             0.00703377676            0.000293404327           
       2.591534             0.00697983019            0.000292814615           
       2.594175             0.00701972584            0.000295354835           
       2.596815              0.0066213983            0.000284185629           
       2.599456             0.00708458787            0.000296362586           
       2.602096             0.00702528319            0.000294015151           
       2.604736             0.00691182633            0.000292396197           
       2.607377             0.00701082416            0.000293356603           
       2.610017             0.00682464809            0.000289334153           
       2.612657             0.00717400553            0.000298742816           
       2.615298             0.00660310554            0.000283806064           
       2.617938             0.00641812119            0.000282250193           
       2.620579             0.00720967992            0.000296705857           
       2.623219             0.00697088157            0.000296417551           
       2.625859             0.00698110565            0.000291635425           
       2.628500             0.00717823041            0.000300450492           
       2.631140             0.00695012435            0.000290424731           
       2.633780             0.00736214747            0.000302748607           
       2.636421             0.00694066952            0.000291279922           
       2.639061             0.00743475685            0.000305073898           
       2.641702             0.00718730219            0.000296747465           
       2.644342             0.00746810764            0.000304970178           
       2.646982             0.00705527651            0.000296169442           
       2.649623             0.00713923498             0.00029971248           
       2.652263             0.00705320692            0.000295530748           
       2.654904             0.00696395653            0.000295249465           
       2.657544             0.00714501323            0.000296958857           
       2.660184             0.00729872469            0.000300520022           
       2.662825             0.00733068878            0.000301899251           
       2.665465             0.00752690729            0.000306478782           
       2.668105             0.00668805618             0.00028901076           
       2.670746             0.00706985979            0.000294631442           
       2.673386             0.00712989166            0.000299465622           
       2.676027             0.00732369359            0.000300928179           
       2.678667             0.00691029452            0.000293831243           
       2.681307             0.00712035307            0.000295918349           
       2.683948             0.00772440356            0.000311275853           
       2.686588             0.00739608793            0.000301793748           
       2.689229             0.00710345115            0.000298417467           
       2.691869             0.00767673616            0.000307129225           
       2.694509             0.00748252946            0.000307377751           
       2.697150             0.00767709712            0.000306379226           
       2.699790             0.00764794717            0.000312149103           
       2.702430             0.00717051271            0.000296453927           
       2.705071             0.00689743351            0.000294733352           
       2.707711             0.00693791453             0.00029266576           
       2.710352             0.00748490361            0.000305714105           
       2.712992             0.00662476904            0.000288547598           
       2.715632             0.00708039777            0.000296608422           
       2.718273             0.00636860484            0.000282238454           
       2.720913             0.00698837998            0.000296146611           
       2.723553             0.00674691405            0.000289974197           
       2.726194             0.00637879891            0.000283312485           
       2.728834              0.0067674132            0.000289220964           
       2.731475             0.00706679256            0.000298132085           
       2.734115              0.0067160539             0.00028890765           
       2.736755             0.00680224756            0.000292677683           
       2.739396              0.0070239722            0.000295836768           
       2.742036              0.0070355321            0.000298101016           
       2.744677             0.00703801967            0.000298589628           
       2.747317             0.00820383079            0.000320806231           
       2.749957             0.00772163028            0.000313493244           
       2.752598             0.00705105001            0.000300473687           
       2.755238             0.00696312567            0.000298459831           
       2.757878             0.00661580162            0.000290092644           
       2.760519             0.00672899172            0.000289474677           
       2.763159              0.0070245235            0.000300572178           
       2.765800             0.00699872286            0.000294937416           
       2.768440               0.006829126            0.000295179941           
       2.771080             0.00687100946            0.000293588629           
       2.773721             0.00647217511            0.000288436059           
       2.776361              0.0069832666            0.000296390334           
       2.779001             0.00676025159            0.000294684611           
       2.781642             0.00693674983            0.000296469818           
       2.784282             0.00671514141            0.000291797477           
       2.786923             0.00661355859            0.000287379623           
       2.789563             0.00669183714            0.000289656044           
       2.792203             0.00609106703            0.000278107261           
       2.794844             0.00698175821            0.000296392638           
       2.797484             0.00708211949            0.000298935936           
       2.800125             0.00654227539            0.000286945436           
       2.802765             0.00659005035            0.000293330043           
       2.805405             0.00649168886            0.000286930222           
       2.808046             0.00700001078               0.000302521           
       2.810686             0.00744188676            0.000308599522           
       2.813326             0.00703603478            0.000303779116           
       2.815967             0.00698176967            0.000300698379           
       2.818607             0.00694451062            0.000302892803           
       2.821248             0.00722731906            0.000305145886           
       2.823888             0.00691255711            0.000303233808           
       2.826528             0.00630386218            0.000287847696           
       2.829169             0.00686653442            0.000299093242           
       2.831809             0.00684208828            0.000298821939           
       2.834449             0.00617160212            0.000278849341           
       2.837090             0.00696001637            0.000297907569           
       2.839730             0.00708908583             0.00029852203           
       2.842371             0.00664916255            0.000291125451           
       2.845011             0.00676110851            0.000292911194           
       2.847651             0.00686219359            0.000295634652           
       2.850292             0.00723708141             0.00030187764           
       2.852932             0.00700599002            0.000297551447           
       2.855573             0.00663385783            0.000292084132           
       2.858213              0.0070283574            0.000297270188           
       2.860853             0.00703910016            0.000299724028           
       2.863494             0.00724638496            0.000304837338           
       2.866134             0.00663026288            0.000295680176           
       2.868774             0.00680803264            0.000295031406           
       2.871415             0.00698975644            0.000301901819           
       2.874055             0.00639906643            0.000290294604           
       2.876696             0.00687711011            0.000298232712           
       2.879336             0.00662678941            0.000294698017           
       2.881976             0.00680926679             0.00029848205           
       2.884617             0.00664187751            0.000293152886           
       2.887257             0.00698549198            0.000298544113           
       2.889897             0.00685154319            0.000299056895           
       2.892538             0.00669305455            0.000293528413           
       2.895178             0.00669724417            0.000290626008           
       2.897819             0.00636936897            0.000286337672           
       2.900459               0.006594143            0.000288934056           
       2.903099             0.00680814601            0.000295118006           
       2.905740             0.00680008365            0.000291650937           
       2.908380             0.00743515295            0.000309031283           
       2.911021             0.00672701997             0.00029450567           
       2.913661             0.00684449792            0.000293796948           
       2.916301              0.0068311131            0.000297684982           
       2.918942             0.00674903977            0.000291427382           
       2.921582             0.00663989802            0.000292094122           
       2.924222             0.00632517178             0.00028343401           
       2.926863             0.00670516746            0.000292598879           
       2.929503             0.00620007285            0.000284485905           
       2.932144             0.00693174104             0.00029587046           
       2.934784             0.00756764491            0.000310457788           
       2.937424             0.00727666807            0.000304993792           
       2.940065             0.00668090986            0.000292479776           
       2.942705             0.00705719891            0.000301517024           
       2.945346             0.00668418066            0.000291707101           
       2.947986              0.0073839689            0.000307669129           
       2.950626             0.00794134281            0.000320051051           
       2.953267              0.0101983639            0.000358838617           
       2.955907             0.00944916011            0.000349973107           
       2.958547             0.00901885904            0.000338405736           
       2.961188             0.00787873778            0.000319054661           
       2.963828             0.00729242802            0.000305214157           
       2.966469             0.00684515183            0.000295779653           
       2.969109             0.00696816058            0.000299951669           
       2.971749             0.00726980031            0.000305473941           
       2.974390             0.00829075804            0.000327114749           
       2.977030              0.0101085135             0.00036051168           
       2.979670             0.00876526254            0.000333540923           
       2.982311             0.00750313784            0.000310821552           
       2.984951             0.00750772738            0.000311720516           
       2.987592             0.00787698417            0.000318216577           
       2.990232             0.00765659852            0.000314534521           
       2.992872             0.00724390133            0.000303546678           
       2.995513             0.00843535734             0.00033013309           
       2.998153             0.00929917831            0.000348861053           
       3.000794              0.0145005316            0.000429295255           
       3.003434              0.0374914724            0.000697607576           
       3.006074              0.0422977852            0.000743363367           
       3.008715              0.0218474259            0.000538315612           
       3.011355               0.020619238            0.000528404294           
       3.013995              0.0178220752            0.000488855117           
       3.016636              0.0300705801            0.000636187978           
       3.019276               0.138765952             0.00139930527           
       3.021917               0.362820811             0.00222427417           
       3.024557               0.131380564             0.00134915297           
       3.027197               0.096415996             0.00117516492           
       3.029838               0.088859139              0.0011227772           
       3.032478              0.0711975225             0.00101102608           
       3.035118               0.049388401            0.000846393173           
       3.037759               0.096290063             0.00118389891           
       3.040399               0.104702572             0.00124865896           
       3.043040              0.0516440417            0.000885468347           
       3.045680              0.0607052305            0.000945225337           
       3.048320              0.0797273477             0.00110062571           
       3.050961               0.179443765             0.00166775922           
       3.053601               0.123715508             0.00137865746           
       3.056242              0.0524874885            0.000903759625           
       3.058882               0.175486598             0.00167710366           
       3.061522               0.260227135             0.00202812519           
       3.064163              0.0402390371            0.000798972426           
       3.066803              0.0181643655            0.000547187209           
       3.069443              0.0299816448            0.000698315034           
       3.072084              0.0995543413             0.00128381558           
       3.074724              0.0446251984            0.000864608629           
       3.077365              0.0115940282            0.000440388142           
       3.080005             0.00915498446            0.000395673306           
       3.082645             0.00895336558             0.00039328445           
       3.085286             0.00855985007            0.000384614716           
       3.087926             0.00811279544            0.000376818769           
       3.090566             0.00751311412            0.000366359862           
       3.093207             0.00693719591            0.000348234792           
       3.095847              0.0080669096            0.000383391952           
       3.098488             0.00832577447            0.000388788608           
       3.101128             0.00851615194            0.000395350469           
       3.103768             0.00887403414            0.000405845703           
       3.106409              0.0100274916            0.000434305912           
       3.109049             0.00988686156            0.000434602189           
       3.111690              0.0115990762            0.000468879251           
       3.114330              0.0128290848             0.00049750139           
       3.116970              0.0161774334            0.000566436582           
       3.119611              0.0165709449            0.000569554127           
       3.122251              0.0121495475            0.000491681241           
       3.124891             0.00977616523            0.000443191234           
       3.127532             0.00816327307            0.000412280436           
       3.130172             0.00847271463            0.000411381292           
       3.132813             0.00848967897            0.000420173907           
       3.135453             0.00856057765            0.000430824943           
       3.138093              0.0072111908            0.000386032588           
       3.140734             0.00644798967            0.000371827075           
       3.143374             0.00639356429            0.000375914485           
       3.146014             0.00594004062            0.000359706434           
       3.148655              0.0063536178            0.000374947039           
       3.151295             0.00638887163            0.000378961835           
       3.153936             0.00803369357            0.000431226528           
       3.156576             0.00653314247            0.000384409938           
       3.159216             0.00628301054             0.00038006248           
       3.161857             0.00655793631            0.000393051904           
       3.164497             0.00683331001            0.000409679188           
       3.167138             0.00581997354             0.00036901362           
       3.169778             0.00643817182            0.000395125646           
       3.172418             0.00676522995            0.000407404273           
       3.175059             0.00621471496            0.000395586604           
       3.177699             0.00566401306             0.00037616148           
       3.180339             0.00538341613            0.000370003533           
       3.182980             0.00584073508            0.000390601878           
       3.185620             0.00581377441            0.000393957842           
       3.188261             0.00622475645            0.000402304036           
       3.190901             0.00572566015            0.000391784258           
       3.193541             0.00618927925             0.00040867961           
       3.196182             0.00581480751            0.000404365435           
       3.198822             0.00577903256            0.000398232803           
       3.201463             0.00587213552            0.000406618989           
       3.204103             0.00601042118            0.000416856968           
       3.206743             0.00586702098            0.000415336224           
       3.209384             0.00638066242             0.00043120477           
       3.212024             0.00555524075            0.000403777564           
       3.214664             0.00688873365            0.000458205538           
       3.217305              0.0060923097            0.000440958294           
       3.219945             0.00509089258            0.000399720701           
       3.222586             0.00573525528            0.000426664898           
       3.225226             0.00622434492            0.000454498781           
       3.227866             0.00529277283             0.00042235184           
       3.230507             0.00572066309            0.000444332032           
       3.233147             0.00520125559            0.000417413854           
       3.235787             0.00609718931            0.000452059537           
       3.238428             0.00509799303             0.00042066233           
       3.241068              0.0057053982            0.000454041307           
       3.243709             0.00564778429            0.000449235635           
       3.246349             0.00499344146            0.000420047505           
       3.248989             0.00539201684            0.000446466586           
       3.251630             0.00625880853            0.000483143711           
       3.254270             0.00591105713            0.000483962447           
       3.256911             0.00500970385            0.000434375003           
       3.259551               0.005006698            0.000443840301           
       3.262191             0.00556928621             0.00047241968           
       3.264832             0.00517853772            0.000459819929           
       3.267472             0.00554892166            0.000482729889           
       3.270112              0.0054425611            0.000479442049           
       3.272753             0.00524483617            0.000476436474           
       3.275393             0.00507878289            0.000471246959           
       3.278034             0.00570511354            0.000509634716           
       3.280674             0.00522492937            0.000489131556           
       3.283314             0.00606299503            0.000529812454           
       3.285955             0.00731778005            0.000592993534           
       3.288595              0.0059711025            0.000541633777           
       3.291235             0.00542622908             0.00051936329           
       3.293876             0.00657578286             0.00057512183           
       3.296516             0.00744125141               0.000624278           
       3.299157             0.00572744894            0.000555969096           
       3.301797             0.00520079378            0.000530016481           
       3.304437              0.0067335195            0.000614385468           
       3.307078             0.00503516176            0.000536445011           
       3.309718             0.00531320331            0.000556558009           
       3.312359             0.00524699066            0.000564254576           
       3.314999             0.00533278271            0.000574816361           
       3.317639             0.00578744156            0.000605266952           
       3.320280             0.00522942361            0.000583749787           
       3.322920             0.00420032181             0.00053099547           
       3.325560             0.00546176447            0.000617194685           
       3.328201             0.00564027596            0.000629851064           
       3.330841             0.00536145957            0.000629021085           
       3.333482             0.00473255928            0.000598482254           
       3.336122              0.0062706927            0.000703880759           
       3.338762             0.00469704534            0.000614763206           
       3.341403             0.00636059692            0.000722029232           
       3.344043             0.00542471784            0.000692248066           
       3.346683             0.00535314209            0.000694640667           
       3.349324             0.00384659068            0.000597950453           
       3.351964             0.00509400735            0.000710230239           
       3.354605             0.00522512113            0.000727457802           
       3.357245             0.00375640787              0.0006384827           
       3.359885              0.0053800392            0.000764383943           
       3.362526             0.00556651017            0.000817273184           
       3.365166             0.00438509505            0.000716423766           
       3.367807             0.00451537513            0.000778215385           
       3.370447             0.00558747529            0.000866022245           
       3.373087             0.00619645667            0.000962519157           
       3.375728             0.00467854758            0.000830037618           
       3.378368             0.00576958935            0.000996023429           
       3.381008             0.00315815853            0.000730483905           
       3.383649             0.00469475662            0.000963870775           
       3.386289              0.0046400586            0.000958634545           
       3.388930             0.00420925314             0.00100275279           
       3.391570             0.00519176414             0.00111411725           
       3.394210             0.00374192687              0.0010134548           
       3.396851              0.0050511756             0.00127548704           
       3.399491              0.0019388056            0.000804559883           
       3.402131             0.00497587771             0.00152571667           
       3.404772             0.00589863356             0.00166188451           
       3.407412             0.00630086207             0.00213134042           
       3.410053             0.00666562185             0.00228265334           
       3.412693             0.00587967082             0.00303314491           
       3.415333             0.00859122545             0.00449227603           
