################################################################################
# EDF_DataBlockID                     0.Image.Psd
# EDF_BinarySize                      2105344
# EDF_HeaderSize                      2560
# ByteOrder                           LowByteFirst
# DataType                            FloatValue
# Dim_1                               512
# Dim_2                               1028
# Image                               0
# HeaderID                            EH:000000:000000:000000
# Size                                2105344
# Center_1                            304.9000
# Center_2                            588.7000
# Comment                             Xenocs_Cell_Window - front_window_open_only
# DDummy                              0.6
# Date                                2025-10-18T13:09:56
# Delta                               21.910000
# Dummy                               -1.5
# ExposureTime                        360
# Gamma                               15.360000
# Intensity1                          9.13135e-10
# PSize_1                             7.5e-05
# PSize_2                             7.5e-05
# Pressure                            0.0335064
# SampleDistance                      0.115750
# SampleEnvKind                       large
# SampleEnvPN                         ElectroChemical cell
# SampleEnvSN                         1141
# Thickness                           0
# Wavelength                          1.541891e-10
# Wavelength                          1.54189e-10
# aux                                 0
# aux_dial                            0.002375
# beamx                               588.429
# beamx_dial                          588.429
# beamz                               657.855
# beamz_dial                          657.855
# det0x                               -0.000396875
# det0x_dial                          6.36905
# det0xvd                             -0.0005
# det0xvd_dial                        -0.0005
# det0y                               450.002
# det0y_dial                          481.635
# det0z                               0
# det0z_dial                          1.2295
# det0zvd                             0
# det0zvd_dial                        0
# mag                                 1.818
# mag_dial                            1.818
# om                                  0.2499
# om_dial                             -0.610199
# phi                                 -0.0120535
# phi_dial                            0
# ry                                  0.599993
# ry_dial                             0.599993
# s1bot                               0.8
# s1bot_dial                          -1.66094
# s1hl                                0.8
# s1hl_dial                           -0.608437
# s1hr                                0.8
# s1hr_dial                           0.970938
# s1top                               0.8
# s1top_dial                          -0.461562
# s2bot                               0.45
# s2bot_dial                          1.36109
# s2hl                                0.45
# s2hl_dial                           -0.83375
# s2hr                                0.45
# s2hr_dial                           -0.118594
# s2top                               0.45
# s2top_dial                          1.44734
# w2theta                             32
# w2theta_dial                        32
# waxsch                              19.2605
# waxsch_dial                         -32.7238
# waxsh                               137.085
# waxsh_dial                          -43.5335
# waxsth                              26.0607
# waxsth_dial                         -19.4068
# waxsz                               67.0407
# waxsz_dial                          -23.7962
# wind                                65.9854
# wind_dial                           66.0041
# wpsi                                124
# wpsi_dial                           124
# wstod                               115
# wstod_dial                          115
# x                                   0
# x_dial                              1.00969
# z                                   0
# z_dial                              13.3172
# CountCutoff                         6807993
# DetectorModel                       Dectris EIGER2 Si 500K, S/N E-01-0554
# ThresholdSetting                    4023.88989258
# Saturation                          0
# FlatField                           Corrected
# BackgroundReductionExtra            0.02
# BackgroundCorrectionConstant        0.0026712
# Detector                            0
# Monitor                             0
# Pil_Roi0                            0
# SumForIntensity1                    3.28729e+08
# TransmittedFlux                     913135
# det                                 0
# mon                                 0
# pilai0                              3.28729e+08
# pilai1                              713187
# pilct0                              5.6857e+08
# pilct1                              713187
# pilroi0                             0
# pilroi1                             0
# sec                                 1
# title                               20251017__1_00173.edf
# usaxs0                              0
# Operation                           Azimuthal average I(q)
# Error_model                         ErrorModel.poisson
# Geometrical_correction              True
# Transmission_correction             True
# Thickness_correction                False
# Binning mode                        Uniform
# Binning factor                      1.0
# Psi                                 0.0
# Omega                               0.2499
# MaskInvalidPixels                   True
# DetectorEdge                        3
# MaskFiles                           ['20251017__1_00233_mask.edf']
################################################################################
    q(A⁻¹)                Intensity(a.u.)            Sigma_I(a.u.)            
       0.690460             0.00755265995             0.00793025894           
       0.693100             0.00616250918             0.00320260914           
       0.695741              0.0079575057             0.00307453718           
       0.698381             0.00595229153             0.00248702146           
       0.701021             0.00471577939             0.00180667087           
       0.703662             0.00630704393             0.00193400489           
       0.706302             0.00650437824             0.00189680806           
       0.708942             0.00426345343             0.00136409677           
       0.711583              0.0111623704             0.00220680057           
       0.714223             0.00521932929             0.00131497182           
       0.716864             0.00372133745             0.00113305328           
       0.719504             0.00436064518             0.00113514946           
       0.722144             0.00486106303              0.0011575213           
       0.724785             0.00636406769             0.00130272775           
       0.727425             0.00564117147              0.0011376503           
       0.730065             0.00905828506             0.00148333309           
       0.732706             0.00643686611             0.00112442574           
       0.735346             0.00770281529             0.00132865009           
       0.737987             0.00781866743              0.0011586178           
       0.740627             0.00527872212             0.00104290806           
       0.743267             0.00607846712            0.000962640625           
       0.745908             0.00574329593             0.00100283827           
       0.748548             0.00667720079             0.00100850423           
       0.751189               0.007418547             0.00105300142           
       0.753829             0.00650564034            0.000994980712           
       0.756469              0.0059819967            0.000897372492           
       0.759110             0.00841276024             0.00110073434           
       0.761750             0.00669219985            0.000898495469           
       0.764390             0.00895730418             0.00111583472           
       0.767031             0.00517937423            0.000767790452           
       0.769671             0.00689546295            0.000939528445           
       0.772312             0.00622003949            0.000813150648           
       0.774952             0.00542911535            0.000814432862           
       0.777592             0.00640905721            0.000809362183           
       0.780233             0.00661677324            0.000866953511           
       0.782873             0.00622986876            0.000769256027           
       0.785513             0.00682024792            0.000856201408           
       0.788154             0.00684634613            0.000787934857           
       0.790794             0.00828684376            0.000897188625           
       0.793435             0.00657256858            0.000767449274           
       0.796075             0.00538986477            0.000698649799           
       0.798715             0.00699484793            0.000791358617           
       0.801356             0.00706734812            0.000774161568           
       0.803996              0.0060165462            0.000725708778           
       0.806637             0.00582548576            0.000675006475           
       0.809277             0.00656269557             0.00074951855           
       0.811917             0.00609914452            0.000683754595           
       0.814558             0.00647722718             0.00072184693           
       0.817198             0.00655099813            0.000692190072           
       0.819838             0.00632193147            0.000709292558           
       0.822479             0.00632825855            0.000653978412           
       0.825119             0.00791032221            0.000785464442           
       0.827760             0.00699654084            0.000684486171           
       0.830400             0.00577318569            0.000655114925           
       0.833040             0.00674650771              0.0006609422           
       0.835681             0.00663213298            0.000686255275           
       0.838321             0.00650430608            0.000636102053           
       0.840961             0.00661775519            0.000670655026           
       0.843602             0.00646787421            0.000624535646           
       0.846242             0.00745011562             0.00069394794           
       0.848883             0.00728921808            0.000667726222           
       0.851523             0.00778789978            0.000695361641           
       0.854163             0.00662951267            0.000634112526           
       0.856804             0.00641959985            0.000608026569           
       0.859444             0.00679810779            0.000630193523           
       0.862085             0.00633596703            0.000599546058           
       0.864725             0.00637596806            0.000599227564           
       0.867365             0.00684251964            0.000616318728           
       0.870006             0.00681315997            0.000623575568           
       0.872646             0.00669593751            0.000591283871           
       0.875286             0.00698671343            0.000624565615           
       0.877927               0.006137756            0.000560488274           
       0.880567             0.00613245022            0.000571190785           
       0.883208             0.00688524679            0.000587755641           
       0.885848             0.00703682278            0.000609599306           
       0.888488             0.00650638278            0.000557345441           
       0.891129             0.00622868627            0.000573230731           
       0.893769             0.00714317357            0.000580260253           
       0.896410             0.00617322138            0.000556043777           
       0.899050             0.00708974231            0.000574557577           
       0.901690             0.00767472055            0.000610269434           
       0.904331             0.00692599659            0.000559497291           
       0.906971              0.0075759288            0.000604233924           
       0.909611             0.00649040769             0.00053680719           
       0.912252             0.00658392487            0.000550029284           
       0.914892             0.00686816556            0.000547547612           
       0.917533              0.0068015616            0.000557181052           
       0.920173             0.00605585175            0.000504325403           
       0.922813             0.00697769391            0.000565721772           
       0.925454             0.00740708901            0.000553177067           
       0.928094             0.00647325176             0.00052823238           
       0.930734             0.00620910534            0.000504995913           
       0.933375             0.00711695522            0.000552180645           
       0.936015              0.0064712914            0.000503800139           
       0.938656              0.0068989152            0.000541998707           
       0.941296             0.00709197224            0.000529745237           
       0.943936              0.0073843267            0.000550289131           
       0.946577             0.00612564848            0.000482687089           
       0.949217             0.00812883257            0.000575674182           
       0.951858             0.00635765137            0.000481303003           
       0.954498             0.00726075938            0.000541121657           
       0.957138             0.00852831842            0.000563671433           
       0.959779             0.00670234411            0.000510627903           
       0.962419             0.00687817862             0.00049798574           
       0.965059             0.00748256959            0.000534157714           
       0.967700             0.00756059344            0.000519572073           
       0.970340             0.00729218029            0.000524604221           
       0.972981             0.00777418657            0.000522992873           
       0.975621             0.00811236958            0.000545433266           
       0.978261             0.00805442082            0.000518549678           
       0.980902             0.00688939258            0.000502418304           
       0.983542             0.00643477707            0.000471420599           
       0.986182             0.00685249881            0.000492888053           
       0.988823             0.00696801147            0.000480988199           
       0.991463             0.00614574275            0.000462507046           
       0.994104             0.00721692859            0.000484301754           
       0.996744             0.00754463317            0.000511233157           
       0.999384              0.0071930239            0.000482236006           
       1.002025             0.00764994249            0.000511163345           
       1.004665             0.00714684655            0.000473831197           
       1.007306             0.00737888036            0.000497594441           
       1.009946             0.00732720935            0.000476774601           
       1.012586             0.00733050559            0.000490599568           
       1.015227             0.00856577976            0.000514274184           
       1.017867             0.00741662186            0.000492248935           
       1.020507             0.00713881759            0.000464761226           
       1.023148             0.00769077318            0.000488220413           
       1.025788             0.00799917728            0.000492814641           
       1.028429             0.00726021588            0.000479763747           
       1.031069             0.00865683563            0.000504732931           
       1.033709             0.00794447089             0.00049280511           
       1.036350              0.0064712421            0.000433108307           
       1.038990             0.00767491655            0.000483315907           
       1.041630             0.00819440916            0.000489797405           
       1.044271             0.00805203058             0.00048557814           
       1.046911             0.00784983435            0.000470534693           
       1.049552             0.00812235391             0.00049588148           
       1.052192             0.00731764102            0.000449510831           
       1.054832             0.00755816474            0.000465722767           
       1.057473             0.00845385831            0.000486310503           
       1.060113             0.00748902337            0.000462675308           
       1.062754             0.00722231063            0.000449336523           
       1.065394             0.00755246441            0.000454657565           
       1.068034             0.00882318483            0.000489517393           
       1.070675             0.00813403489            0.000478278419           
       1.073315             0.00745089527            0.000443761807           
       1.075955             0.00783503328            0.000462689268           
       1.078596             0.00767637215            0.000457075278           
       1.081236             0.00821319153            0.000465774761           
       1.083877             0.00834710606             0.00048422497           
       1.086517             0.00776783975             0.00045655404           
       1.089157             0.00881703045            0.000489977056           
       1.091798             0.00802515065            0.000457552333           
       1.094438              0.0075657158            0.000451322702           
       1.097078             0.00756766817            0.000439781564           
       1.099719             0.00875968277            0.000485277828           
       1.102359             0.00915027018            0.000469850421           
       1.105000             0.00851903434            0.000471209174           
       1.107640             0.00770792979            0.000433605324           
       1.110280             0.00872918036             0.00047067664           
       1.112921             0.00850876705            0.000456287951           
       1.115561             0.00939090274            0.000485440667           
       1.118202             0.00813411988            0.000438604866           
       1.120842                 0.0081035            0.000451571948           
       1.123482             0.00742309594            0.000420074525           
       1.126123             0.00863877767            0.000455996915           
       1.128763             0.00853157204            0.000450911021           
       1.131403             0.00868914003            0.000454348467           
       1.134044             0.00847204679            0.000447858056           
       1.136684             0.00892861889            0.000463222827           
       1.139325             0.00921447259            0.000457320751           
       1.141965             0.00898689555            0.000457544762           
       1.144605             0.00820558756            0.000439771522           
       1.147246             0.00871936633            0.000444744731           
       1.149886             0.00810170723            0.000431751985           
       1.152527             0.00848359505            0.000442253206           
       1.155167             0.00831212697            0.000431606115           
       1.157807             0.00892239926            0.000447477725           
       1.160448             0.00845798527            0.000441637481           
       1.163088             0.00832813977            0.000421976038           
       1.165728             0.00786982465            0.000427108317           
       1.168369             0.00910796387            0.000443076332           
       1.171009             0.00895254743            0.000442921791           
       1.173650             0.00839692204            0.000425863769           
       1.176290             0.00875126842            0.000439857852           
       1.178930             0.00822242515            0.000414374875           
       1.181571             0.00947452059            0.000459335574           
       1.184211               0.008680388            0.000426385572           
       1.186851             0.00895700027            0.000437119629           
       1.189492              0.0084574644             0.00042711426           
       1.192132             0.00910023518            0.000436485864           
       1.194773             0.00878427271            0.000426254246           
       1.197413             0.00941432187            0.000444875691           
       1.200053             0.00925939322            0.000438423997           
       1.202694             0.00889186256            0.000426397166           
       1.205334             0.00994798549            0.000455939533           
       1.207975              0.0095051758            0.000436944092           
       1.210615             0.00934982687            0.000442522631           
       1.213255             0.00934478207             0.00043069933           
       1.215896             0.00915627367            0.000434414214           
       1.218536             0.00849955191             0.00040649037           
       1.221176             0.00888759085            0.000425587224           
       1.223817             0.00959703474            0.000433031836           
       1.226457             0.00887844868            0.000421794933           
       1.229098             0.00881988543            0.000414023683           
       1.231738              0.0094857139            0.000435413211           
       1.234378             0.00925289587            0.000421680846           
       1.237019             0.00893269493            0.000417662246           
       1.239659             0.00926120388            0.000425042787           
       1.242299              0.0100058878            0.000439542415           
       1.244940             0.00991828896            0.000432890415           
       1.247580             0.00963448846            0.000428535995           
       1.250221             0.00981237983            0.000439533599           
       1.252861             0.00953649121            0.000417166875           
       1.255501               0.009714234            0.000432924146           
       1.258142             0.00971416244            0.000424363703           
       1.260782             0.00995125219            0.000434362741           
       1.263423             0.00900263656            0.000404956179           
       1.266063             0.00887687377            0.000409612633           
       1.268703             0.00923944313            0.000407365234           
       1.271344              0.0100900749            0.000434976368           
       1.273984             0.00941492851            0.000413612677           
       1.276624             0.00978180682            0.000419022096           
       1.279265              0.0102535687            0.000429944183           
       1.281905              0.0097358304            0.000421531221           
       1.284546             0.00998641099            0.000422257569           
       1.287186              0.0093036546            0.000407959018           
       1.289826              0.0101067802            0.000427407808           
       1.292467              0.0102233923            0.000422194155           
       1.295107             0.00922921301             0.00040821167           
       1.297747              0.0101718159            0.000417310133           
       1.300388             0.00998325307            0.000424040448           
       1.303028              0.0103648927             0.00042108236           
       1.305669             0.00980700822            0.000414885303           
       1.308309              0.0106128588            0.000425105101           
       1.310949               0.010337034            0.000424773748           
       1.313590             0.00922200772            0.000395001581           
       1.316230             0.00978935169            0.000414296112           
       1.318871              0.0112755833            0.000435042398           
       1.321511              0.0101810449            0.000415459988           
       1.324151              0.0103247249            0.000420034518           
       1.326792              0.0101636382            0.000413369074           
       1.329432              0.0103438102            0.000419192183           
       1.332072             0.00989552526            0.000402977361           
       1.334713             0.00987013883            0.000407451383           
       1.337353               0.010574813            0.000415258121           
       1.339994              0.0104129934            0.000417937982           
       1.342634              0.0111358416            0.000422470907           
       1.345274               0.012467705            0.000452865677           
       1.347915              0.0104188767            0.000415087508           
       1.350555              0.0106394962            0.000417820482           
       1.353195              0.0110538108            0.000417730784           
       1.355836              0.0113260096            0.000430820941           
       1.358476             0.00993525264            0.000402369113           
       1.361117              0.0107562842            0.000408162079           
       1.363757              0.0105472732            0.000417571734           
       1.366397              0.0105703298            0.000405010158           
       1.369038              0.0104517281            0.000411220036           
       1.371678              0.0104852129            0.000403561528           
       1.374319              0.0102068843            0.000401327184           
       1.376959              0.0108450106            0.000407987196           
       1.379599              0.0101450093             0.00040229217           
       1.382240             0.00985875255            0.000389043523           
       1.384880              0.0106686717            0.000409677548           
       1.387520              0.0107940933            0.000407260658           
       1.390161               0.011100137            0.000411871312           
       1.392801              0.0103133959            0.000399373287           
       1.395442             0.00988750814            0.000386988645           
       1.398082             0.00999597738            0.000390437111           
       1.400722              0.0102267978            0.000393135158           
       1.403363              0.0111945834            0.000415133324           
       1.406003              0.0106136546            0.000394292775           
       1.408644              0.0107992849            0.000406075619           
       1.411284              0.0103331873            0.000395037444           
       1.413924              0.0102330652            0.000388270357           
       1.416565              0.0103091111            0.000389252259           
       1.419205              0.0106020606            0.000398632548           
       1.421845              0.0110423251            0.000401710727           
       1.424486              0.0102185593            0.000388142389           
       1.427126              0.0107548543             0.00039794624           
       1.429767              0.0109009277            0.000394465796           
       1.432407              0.0101275893            0.000389794427           
       1.435047             0.00982797403            0.000372446296           
       1.437688              0.0111830671            0.000406092139           
       1.440328              0.0100452449            0.000377420678           
       1.442968              0.0106613209            0.000394204537           
       1.445609             0.00997747388            0.000375079824           
       1.448249              0.0108432148            0.000393542359           
       1.450890              0.0106976906            0.000388104176           
       1.453530               0.010644467            0.000390005091           
       1.456170                0.01109755             0.00039732237           
       1.458811              0.0104377127            0.000382263786           
       1.461451              0.0109167398            0.000393810909           
       1.464092              0.0105080445            0.000383001101           
       1.466732              0.0108334288            0.000386500504           
       1.469372              0.0109739208            0.000387802831           
       1.472013              0.0103028788            0.000382481644           
       1.474653              0.0107920342            0.000381790268           
       1.477293              0.0101394467            0.000376296051           
       1.479934              0.0101589258            0.000372715063           
       1.482574              0.0104374027            0.000376856597           
       1.485215              0.0103302558            0.000375882674           
       1.487855              0.0108607379             0.00038533345           
       1.490495             0.00972570622             0.00036385794           
       1.493136              0.0101783495            0.000367347335           
       1.495776              0.0104554963            0.000378806178           
       1.498416              0.0101223988            0.000365482264           
       1.501057              0.0105114359            0.000375642859           
       1.503697             0.00990782948            0.000361191531           
       1.506338             0.00997260394            0.000365035192           
       1.508978             0.00998389999             0.00036308536           
       1.511618              0.0101883077            0.000366598023           
       1.514259              0.0100321052            0.000364433911           
       1.516899              0.0097401423            0.000359258945           
       1.519540             0.00975600695            0.000357556111           
       1.522180              0.0100782468            0.000358874738           
       1.524820             0.00972246115            0.000359602562           
       1.527461             0.00967676712            0.000350820158           
       1.530101              0.0101044988            0.000362196321           
       1.532741             0.00920458932            0.000344053783           
       1.535382              0.0101398797            0.000361906093           
       1.538022              0.0105622292            0.000366098326           
       1.540663              0.0100409048            0.000360322695           
       1.543303              0.0092991713            0.000342443495           
       1.545943             0.00998923751            0.000356911143           
       1.548584              0.0102191638            0.000362917673           
       1.551224             0.00990359759            0.000348110936           
       1.553864              0.0102810373            0.000363947914           
       1.556505              0.0100446788            0.000354206172           
       1.559145             0.00977073253              0.0003501503           
       1.561786             0.00991198677             0.00035107456           
       1.564426             0.00972382728            0.000347412283           
       1.567066              0.0100268259            0.000350029999           
       1.569707             0.00915135388            0.000339241213           
       1.572347             0.00977317246            0.000346028774           
       1.574988             0.00925323456            0.000335366537           
       1.577628             0.00983562535            0.000353544047           
       1.580268              0.0093704264            0.000333173221           
       1.582909             0.00948042267            0.000341391184           
       1.585549             0.00958828102            0.000340119182           
       1.588189             0.00948948854            0.000342141614           
       1.590830              0.0089139212            0.000325911161           
       1.593470             0.00904407615            0.000330962748           
       1.596111             0.00887795538            0.000325075735           
       1.598751             0.00993051641            0.000347321075           
       1.601391              0.0095770622            0.000338903281           
       1.604032             0.00913652713            0.000328252648           
       1.606672             0.00919132233            0.000335861951           
       1.609312             0.00951940283            0.000331633196           
       1.611953             0.00907770159            0.000328541227           
       1.614593             0.00899566278            0.000324565801           
       1.617234             0.00845663157            0.000316475195           
       1.619874              0.0091602044            0.000325502345           
       1.622514             0.00898627203            0.000325248573           
       1.625155             0.00890660808            0.000323002907           
       1.627795             0.00987773323             0.00033671927           
       1.630436             0.00862115301            0.000317735313           
       1.633076             0.00906179259            0.000324099039           
       1.635716             0.00866477735            0.000316367142           
       1.638357             0.00900388419             0.00032112824           
       1.640997              0.0087553366            0.000319141371           
       1.643637             0.00872182348            0.000312615197           
       1.646278             0.00864116576            0.000315823991           
       1.648918             0.00859764368            0.000310966295           
       1.651559             0.00865759101            0.000315971975           
       1.654199             0.00871454799            0.000312664292           
       1.656839             0.00849512886            0.000308619873           
       1.659480             0.00855669868            0.000312464161           
       1.662120             0.00864233005            0.000309815733           
       1.664761              0.0084899288            0.000310396611           
       1.667401             0.00880919442            0.000313233532           
       1.670041             0.00842303353            0.000306641638           
       1.672682             0.00836551237            0.000302717232           
       1.675322             0.00856802671             0.00031177617           
       1.677962             0.00861494635            0.000306419859           
       1.680603             0.00879841323            0.000312413747           
       1.683243             0.00808798478            0.000297319497           
       1.685884             0.00887067762             0.00031255837           
       1.688524             0.00848498574            0.000304827882           
       1.691164             0.00855792408            0.000305348398           
       1.693805             0.00825238688            0.000302272805           
       1.696445             0.00835027706            0.000299840143           
       1.699085             0.00803494739            0.000295298522           
       1.701726             0.00827345206             0.00029575151           
       1.704366             0.00875279096            0.000311600193           
       1.707007             0.00862737153            0.000302758123           
       1.709647             0.00852574345            0.000304709201           
       1.712287             0.00792682457             0.00028890152           
       1.714928             0.00812869186            0.000295498784           
       1.717568             0.00794030433            0.000289368905           
       1.720209             0.00847441654             0.00030078887           
       1.722849             0.00839784651            0.000299907004           
       1.725489             0.00836615708            0.000294569472           
       1.728130             0.00856863359            0.000304181371           
       1.730770             0.00859139602            0.000298146947           
       1.733410             0.00845768304            0.000299701126           
       1.736051             0.00805076411            0.000287863946           
       1.738691             0.00809717552            0.000291639227           
       1.741332             0.00806899007            0.000289339052           
       1.743972             0.00840305074            0.000295377228           
       1.746612             0.00864174972            0.000299612039           
       1.749253              0.0085962978             0.00030011448           
       1.751893             0.00841311084            0.000295118298           
       1.754533              0.0081470229            0.000286427958           
       1.757174             0.00815347658            0.000291898745           
       1.759814             0.00834817251            0.000290860319           
       1.762455             0.00769824649            0.000281686715           
       1.765095              0.0089959647             0.00030022869           
       1.767735             0.00870571567            0.000300364252           
       1.770376             0.00814233727            0.000286077644           
       1.773016             0.00804917488            0.000284885226           
       1.775657             0.00823420083            0.000288731278           
       1.778297             0.00839337025            0.000292934615           
       1.780937             0.00796720235            0.000284069149           
       1.783578             0.00819798774            0.000286800996           
       1.786218             0.00778233811            0.000283894918           
       1.788858             0.00824267618            0.000284911664           
       1.791499             0.00812092165            0.000288011627           
       1.794139             0.00831138367             0.00028598904           
       1.796780             0.00876397378            0.000295417444           
       1.799420             0.00918689235            0.000302076289           
       1.802060             0.00886712413            0.000293122422           
       1.804701             0.00910489602            0.000301011319           
       1.807341             0.00889678222            0.000294676147           
       1.809981             0.00842929961            0.000288734695           
       1.812622             0.00890291581            0.000295118708           
       1.815262             0.00895079372            0.000296966279           
       1.817903             0.00841738879            0.000284423931           
       1.820543             0.00854029113            0.000290033912           
       1.823183             0.00874757151            0.000289009737           
       1.825824             0.00849918296            0.000289161022           
       1.828464             0.00844707415            0.000287388757           
       1.831105             0.00790346985            0.000279063882           
       1.833745             0.00837585816            0.000287103328           
       1.836385             0.00796491088            0.000278882731           
       1.839026             0.00810077832            0.000285479177           
       1.841666             0.00812753085            0.000282237202           
       1.844306             0.00776548499            0.000279362259           
       1.846947             0.00833154248            0.000285646531           
       1.849587              0.0079347066            0.000282541579           
       1.852228             0.00887003357            0.000295553251           
       1.854868             0.00826845661             0.00029058851           
       1.857508             0.00796634512            0.000279963641           
       1.860149             0.00809800237            0.000284530103           
       1.862789             0.00800196455            0.000284089423           
       1.865429             0.00813308815            0.000287271054           
       1.868070             0.00821432066            0.000287704516           
       1.870710             0.00781754795            0.000281434444           
       1.873351             0.00868294112            0.000298496445           
       1.875991             0.00846130065            0.000296256034           
       1.878631             0.00797171984            0.000284884743           
       1.881272               0.008708875            0.000297067878           
       1.883912             0.00836715253            0.000294596238           
       1.886553             0.00804962494            0.000285486191           
       1.889193             0.00846866153            0.000296205231           
       1.891833             0.00767643854            0.000278801219           
       1.894474             0.00817763698            0.000290036316           
       1.897114             0.00827027081            0.000289411983           
       1.899754             0.00811050151            0.000289817054           
       1.902395             0.00825331349            0.000292419837           
       1.905035             0.00830739229            0.000292226577           
       1.907676             0.00728135589            0.000273903814           
       1.910316             0.00840040582            0.000296075467           
       1.912956              0.0084902266            0.000297642313           
       1.915597             0.00821505383            0.000289726873           
       1.918237             0.00835032287             0.00029653651           
       1.920878             0.00868618673            0.000297088837           
       1.923518             0.00785680295            0.000290056539           
       1.926158             0.00792569879            0.000284631135           
       1.928799               0.007857026             0.00028716124           
       1.931439             0.00777128379            0.000283301373           
       1.934079             0.00795002447              0.0002894426           
       1.936720             0.00744806294            0.000278507047           
       1.939360             0.00797082994            0.000290892082           
       1.942001             0.00754423018            0.000281912055           
       1.944641             0.00823471044            0.000293261383           
       1.947281             0.00776820696            0.000286209654           
       1.949922             0.00817882399            0.000294044152           
       1.952562             0.00773897433            0.000288489467           
       1.955202              0.0078191569            0.000282694441           
       1.957843              0.0080423192            0.000295807697           
       1.960483             0.00803634268            0.000290981163           
       1.963124             0.00780305205            0.000286513921           
       1.965764             0.00805737225            0.000291249665           
       1.968404             0.00794971223            0.000294470587           
       1.971045             0.00751302526            0.000279092609           
       1.973685             0.00753075488            0.000284636093           
       1.976326             0.00766509746            0.000285911713           
       1.978966              0.0081577172            0.000296351861           
       1.981606             0.00735382149            0.000278395693           
       1.984247              0.0077729704            0.000288715416           
       1.986887             0.00775166443            0.000291015927           
       1.989527             0.00779235347            0.000285699964           
       1.992168              0.0076526314            0.000289957991           
       1.994808             0.00771964977            0.000287837495           
       1.997449             0.00790288174            0.000290806398           
       2.000089             0.00814586249            0.000293504604           
       2.002729             0.00764189889            0.000290794594           
       2.005370             0.00728621653            0.000278548961           
       2.008010               0.007874272            0.000293415975           
       2.010650             0.00730994701            0.000281897677           
       2.013291             0.00766837121            0.000290369439           
       2.015931             0.00722142493             0.00027976367           
       2.018572             0.00778428237            0.000294319547           
       2.021212             0.00769893604            0.000290074738           
       2.023852              0.0078504357            0.000294453623           
       2.026493             0.00745709771            0.000285724533           
       2.029133             0.00711515401            0.000276967666           
       2.031774             0.00703447373            0.000278063559           
       2.034414             0.00744515452             0.00028435808           
       2.037054             0.00741123638            0.000287286971           
       2.039695              0.0076680424             0.00028646595           
       2.042335             0.00723635864            0.000283022451           
       2.044975             0.00673758258            0.000270911857           
       2.047616              0.0073320471            0.000283821694           
       2.050256              0.0076410219            0.000286331954           
       2.052897             0.00696612561            0.000281491623           
       2.055537              0.0074196915             0.00028259065           
       2.058177             0.00776005737             0.00029155247           
       2.060818             0.00739086088            0.000285386638           
       2.063458             0.00748148786            0.000287526492           
       2.066098             0.00733386578            0.000283412349           
       2.068739              0.0075959849            0.000291439988           
       2.071379             0.00787902822            0.000292436834           
       2.074020             0.00787560995            0.000296377108           
       2.076660             0.00788471398            0.000294538215           
       2.079300             0.00767222038            0.000290500102           
       2.081941             0.00775807122            0.000293896844           
       2.084581             0.00739962533            0.000287239714           
       2.087222             0.00721275208            0.000283782676           
       2.089862              0.0076672867            0.000288940993           
       2.092502             0.00706529856            0.000282405951           
       2.095143             0.00748715352            0.000286559819           
       2.097783             0.00701371782            0.000281572261           
       2.100423             0.00801781162            0.000295280897           
       2.103064              0.0075945786            0.000292343667           
       2.105704             0.00711355139            0.000281851566           
       2.108345             0.00729755122              0.0002867841           
       2.110985             0.00754754139            0.000287558315           
       2.113625             0.00689595826            0.000279196368           
       2.116266             0.00770652493             0.00029296475           
       2.118906             0.00696725693            0.000278356327           
       2.121546             0.00754310623            0.000289401202           
       2.124187             0.00746344874            0.000291850768           
       2.126827             0.00800485089            0.000297510807           
       2.129468             0.00743631273            0.000289743442           
       2.132108             0.00720936644            0.000284697561           
       2.134748             0.00734837014            0.000286345857           
       2.137389             0.00678920064            0.000277540942           
       2.140029             0.00764965325             0.00029388855           
       2.142670             0.00746981916            0.000290888052           
       2.145310             0.00724262106            0.000287524446           
       2.147950             0.00707048406            0.000285185304           
       2.150591             0.00714858148            0.000284126183           
       2.153231             0.00761904435            0.000297663308           
       2.155871             0.00741838371            0.000289475484           
       2.158512             0.00727478423            0.000291825469           
       2.161152              0.0071261594            0.000281614169           
       2.163793             0.00724643303            0.000288601493           
       2.166433             0.00648580333            0.000268300311           
       2.169073             0.00682256796            0.000281602451           
       2.171714             0.00708652644            0.000281155339           
       2.174354             0.00730839017             0.00028988567           
       2.176995             0.00742323918            0.000289731053           
       2.179635             0.00727614156            0.000292274673           
       2.182275             0.00730426667            0.000287025906           
       2.184916             0.00731630541            0.000293333595           
       2.187556             0.00642332198            0.000270425158           
       2.190196             0.00726625149            0.000292143053           
       2.192837             0.00736598396            0.000290920105           
       2.195477              0.0075381571            0.000297139339           
       2.198118             0.00716847824            0.000284412227           
       2.200758             0.00733326257            0.000292129791           
       2.203398             0.00717955061            0.000284258441           
       2.206039             0.00719615238            0.000288936777           
       2.208679             0.00727989975            0.000287768409           
       2.211319             0.00713318534            0.000286194699           
       2.213960             0.00746467282            0.000289656244           
       2.216600             0.00746342864            0.000296456292           
       2.219241             0.00756333065             0.00029409507           
       2.221881             0.00741056571            0.000292627244           
       2.224521             0.00678631887            0.000279059778           
       2.227162               0.006901962             0.00028584776           
       2.229802             0.00729492881             0.00028910231           
       2.232443             0.00731685815            0.000290674797           
       2.235083             0.00742645783            0.000291087742           
       2.237723             0.00724026408             0.00028961815           
       2.240364             0.00732691566            0.000289864169           
       2.243004             0.00681948336            0.000280491522           
       2.245644              0.0071129484            0.000285801683           
       2.248285             0.00719296243            0.000289270398           
       2.250925             0.00715128907             0.00028708246           
       2.253566             0.00726634523             0.00029009026           
       2.256206              0.0073578674            0.000291037028           
       2.258846             0.00698024575            0.000283472868           
       2.261487             0.00702696849            0.000284912016           
       2.264127             0.00720733487            0.000291275517           
       2.266767             0.00748677192              0.0002920701           
       2.269408             0.00766739117            0.000299082672           
       2.272048             0.00679975717            0.000279920298           
       2.274689             0.00730748993            0.000291323971           
       2.277329              0.0073807258            0.000292391115           
       2.279969             0.00739582407            0.000293577153           
       2.282610             0.00708491594               0.000284538           
       2.285250             0.00723088308            0.000291975104           
       2.287891             0.00753215511             0.00029498845           
       2.290531             0.00704241909            0.000286643897           
       2.293171             0.00723726253            0.000290567823           
       2.295812             0.00654390141            0.000274832154           
       2.298452             0.00647231816            0.000275075406           
       2.301092             0.00761967756            0.000300358643           
       2.303733             0.00725794069            0.000287344135           
       2.306373             0.00743177807            0.000297876768           
       2.309014             0.00657727769            0.000274829116           
       2.311654              0.0069180992             0.00028453472           
       2.314294             0.00701521773            0.000285899433           
       2.316935             0.00743656663            0.000295523504           
       2.319575             0.00702371247            0.000286127655           
       2.322215             0.00681421819            0.000285844219           
       2.324856             0.00747255138            0.000291816879           
       2.327496             0.00689586416            0.000287200753           
       2.330137             0.00740238531            0.000292073945           
       2.332777             0.00752139467            0.000297632487           
       2.335417             0.00684238758            0.000283027895           
       2.338058             0.00712495321            0.000289968703           
       2.340698             0.00687430452            0.000282018317           
       2.343339             0.00699324112            0.000289875583           
       2.345979             0.00700227844            0.000284274703           
       2.348619             0.00718904654            0.000293480485           
       2.351260             0.00731000852            0.000289648378           
       2.353900             0.00715407063            0.000292612009           
       2.356540             0.00701777519            0.000285825418           
       2.359181             0.00697498911            0.000288763204           
       2.361821             0.00679504267            0.000281541296           
       2.364462             0.00712157197            0.000293043609           
       2.367102              0.0069330927            0.000280778525           
       2.369742             0.00665755484            0.000285002795           
       2.372383             0.00670364357            0.000277650801           
       2.375023             0.00675452288             0.00028596383           
       2.377663             0.00646042801            0.000273725926           
       2.380304             0.00729927852            0.000294990661           
       2.382944             0.00710572197            0.000288206419           
       2.385585             0.00751616807            0.000299215562           
       2.388225              0.0071071645            0.000289645929           
       2.390865             0.00719185094            0.000292112585           
       2.393506             0.00694304723            0.000285692562           
       2.396146             0.00735416984            0.000295003923           
       2.398787             0.00694254116            0.000286879758           
       2.401427              0.0073774758            0.000293933786           
       2.404067             0.00659140069            0.000282073989           
       2.406708             0.00703943026            0.000287839034           
       2.409348              0.0067177972            0.000283301731           
       2.411988             0.00734279734            0.000295241433           
       2.414629             0.00671654611            0.000283294536           
       2.417269             0.00691836439            0.000284908156           
       2.419910             0.00691767098            0.000288486612           
       2.422550             0.00730989221            0.000292050632           
       2.425190              0.0070730107            0.000296324595           
       2.427831             0.00742545983            0.000292199113           
       2.430471             0.00726688079            0.000297511852           
       2.433112             0.00710491517            0.000287236195           
       2.435752             0.00744566101            0.000301487386           
       2.438392              0.0064689749            0.000276295321           
       2.441033             0.00652299623            0.000278717936           
       2.443673             0.00729804263            0.000295598847           
       2.446313             0.00724404446            0.000292934152           
       2.448954             0.00676946289            0.000285660852           
       2.451594             0.00749688876            0.000298813672           
       2.454235             0.00742952685            0.000296542582           
       2.456875             0.00735356688            0.000296517141           
       2.459515             0.00721089273            0.000294079273           
       2.462156             0.00784948624            0.000305243193           
       2.464796             0.00760364087            0.000305724359           
       2.467436             0.00788391268            0.000304780277           
       2.470077             0.00837298901            0.000318422712           
       2.472717             0.00752176486            0.000298026735           
       2.475358              0.0081742801            0.000314204777           
       2.477998             0.00741069228            0.000297573464           
       2.480638             0.00740311596            0.000298143979           
       2.483279             0.00763442624            0.000304066583           
       2.485919             0.00719515499            0.000293122372           
       2.488560              0.0068363546            0.000286905502           
       2.491200             0.00667212517            0.000283049791           
       2.493840             0.00671750138            0.000282464335           
       2.496481             0.00679272231             0.00028775578           
       2.499121             0.00707826142            0.000289830545           
       2.501761             0.00722135028            0.000297716366           
       2.504402             0.00728304882            0.000293255717           
       2.507042             0.00734776408            0.000299452216           
       2.509683             0.00698103404            0.000289225528           
       2.512323              0.0073297143            0.000297520894           
       2.514963              0.0104046293            0.000355181321           
       2.517604              0.0182666765             0.00046877346           
       2.520244              0.0482970368            0.000762409739           
       2.522884              0.0129784829            0.000394356593           
       2.525525              0.0100047935            0.000349087226           
       2.528165              0.0208729738            0.000501919483           
       2.530806              0.0207618912            0.000498703081           
       2.533446              0.0131236161            0.000400016378           
       2.536086                0.01753269            0.000458474294           
       2.538727              0.0180107202            0.000467661451           
       2.541367              0.0101146873             0.00034946094           
       2.544008              0.0109647968            0.000364158497           
       2.546648             0.00715995152            0.000294603613           
       2.549288             0.00752429176            0.000302049662           
       2.551929             0.00702283107            0.000292774895           
       2.554569             0.00727272955            0.000295215744           
       2.557209             0.00700918419            0.000293092032           
       2.559850             0.00727395526              0.0002951431           
       2.562490              0.0069565097            0.000290732607           
       2.565131               0.007193597            0.000296159768           
       2.567771             0.00700702353            0.000290744766           
       2.570411             0.00701557975            0.000294462437           
       2.573052               0.007644914            0.000303798149           
       2.575692             0.00691405824            0.000289678245           
       2.578332             0.00724570239            0.000295668312           
       2.580973             0.00727696679            0.000298707965           
       2.583613             0.00721085372            0.000294638268           
       2.586254             0.00697499425            0.000292343208           
       2.588894             0.00712530673            0.000293900275           
       2.591534             0.00728936227            0.000297811234           
       2.594175             0.00745134756            0.000302849881           
       2.596815              0.0071124759             0.00029313228           
       2.599456             0.00720201184            0.000297384948           
       2.602096              0.0077234418            0.000306809794           
       2.604736             0.00662552253            0.000284912409           
       2.607377             0.00706469804            0.000293078608           
       2.610017             0.00762119905            0.000304296677           
       2.612657              0.0070105207            0.000293912287           
       2.615298             0.00711119713            0.000293119626           
       2.617938             0.00694371878            0.000292181248           
       2.620579             0.00689963971            0.000288873246           
       2.623219             0.00749280504            0.000305849846           
       2.625859             0.00700870177            0.000290819115           
       2.628500             0.00680502485            0.000291142139           
       2.631140              0.0068830722             0.00028764343           
       2.633780             0.00752177897            0.000304555305           
       2.636421               0.007627821            0.000303903779           
       2.639061             0.00691954162            0.000292911429           
       2.641702             0.00693506171            0.000290105002           
       2.644342             0.00706777092             0.00029526999           
       2.646982              0.0072104763            0.000297982796           
       2.649623             0.00699775068            0.000295314117           
       2.652263             0.00719819902            0.000297130527           
       2.654904             0.00660576183              0.0002861861           
       2.657544             0.00729756179            0.000298682406           
       2.660184             0.00720511935            0.000297164207           
       2.662825             0.00707693161            0.000295214803           
       2.665465             0.00669828874            0.000287739874           
       2.668105             0.00727073557              0.0002999019           
       2.670746             0.00656080081            0.000282473755           
       2.673386             0.00696346378            0.000294539914           
       2.676027             0.00701467805            0.000293107973           
       2.678667             0.00718896678             0.00029826955           
       2.681307             0.00725237626            0.000297226332           
       2.683948             0.00779208691            0.000311147156           
       2.686588             0.00724949651            0.000297364497           
       2.689229              0.0074670119            0.000304501159           
       2.691869             0.00730353279            0.000298143479           
       2.694509             0.00786354557            0.000313605306           
       2.697150             0.00706260988            0.000292461965           
       2.699790             0.00744219132            0.000306454536           
       2.702430             0.00694594927             0.00029038481           
       2.705071             0.00685313497            0.000292385716           
       2.707711             0.00691458651            0.000290781343           
       2.710352             0.00668738644            0.000287591846           
       2.712992             0.00669611179            0.000288715053           
       2.715632             0.00660920613            0.000285203786           
       2.718273             0.00660745649            0.000286112727           
       2.720913             0.00645350899            0.000283232091           
       2.723553             0.00689443565            0.000291730687           
       2.726194             0.00733740664            0.000302408184           
       2.728834             0.00708985074            0.000294620495           
       2.731475             0.00704383771             0.00029622943           
       2.734115             0.00662680518            0.000285614363           
       2.736755             0.00745149555            0.000304867481           
       2.739396             0.00722358145            0.000298581593           
       2.742036             0.00687841319            0.000293349329           
       2.744677             0.00716201232            0.000299773334           
       2.747317             0.00774431338            0.000310207215           
       2.749957             0.00727532644             0.00030284884           
       2.752598              0.0074338621            0.000307052605           
       2.755238             0.00691304664            0.000295967826           
       2.757878             0.00762998104            0.000310051042           
       2.760519              0.0068845058             0.00029140564           
       2.763159             0.00677687607            0.000293819829           
       2.765800             0.00745039165            0.000302855882           
       2.768440             0.00680188543            0.000293187143           
       2.771080             0.00728069778              0.0003007748           
       2.773721             0.00685347452            0.000295396817           
       2.776361             0.00644624073            0.000283409219           
       2.779001              0.0065158961             0.00028793144           
       2.781642             0.00694519039            0.000295236831           
       2.784282             0.00724785738            0.000301706564           
       2.786923             0.00713373621            0.000297045433           
       2.789563             0.00707064386            0.000296323013           
       2.792203             0.00667933555            0.000289839957           
       2.794844             0.00672398953            0.000289483965           
       2.797484             0.00564547309             0.00026562727           
       2.800125             0.00655382808            0.000285830402           
       2.802765             0.00709889615            0.000302993686           
       2.805405             0.00653704291            0.000286559032           
       2.808046             0.00663505426            0.000293126039           
       2.810686             0.00710539866            0.000300105485           
       2.813326               0.006736251            0.000295821029           
       2.815967             0.00626579053            0.000283505998           
       2.818607             0.00674981699            0.000297194055           
       2.821248              0.0071266756            0.000301570175           
       2.823888             0.00687493573            0.000300966781           
       2.826528              0.0067887769            0.000297290587           
       2.829169             0.00651340023            0.000289912987           
       2.831809             0.00629351256            0.000285227032           
       2.834449             0.00692018219            0.000293870109           
       2.837090              0.0066522862            0.000289859713           
       2.839730             0.00715737239            0.000298527307           
       2.842371             0.00678726583            0.000292731943           
       2.845011             0.00628421409            0.000281046699           
       2.847651             0.00656808112            0.000287851897           
       2.850292             0.00675343056             0.00029022674           
       2.852932             0.00679239728             0.00029158477           
       2.855573             0.00710740532             0.00030088907           
       2.858213             0.00745388646            0.000304678503           
       2.860853             0.00677265904            0.000292596133           
       2.863494             0.00701730808            0.000298551129           
       2.866134             0.00694237652            0.000301118129           
       2.868774             0.00601086775            0.000275900195           
       2.871415             0.00731046795            0.000307279286           
       2.874055              0.0070002679            0.000302178786           
       2.876696             0.00668920645            0.000292728883           
       2.879336             0.00721308084            0.000305993369           
       2.881976             0.00674689692            0.000295696421           
       2.884617             0.00761848058            0.000312470421           
       2.887257             0.00641948811            0.000284830308           
       2.889897             0.00665623249            0.000293359292           
       2.892538             0.00639888968            0.000285638183           
       2.895178             0.00668457019            0.000288967594           
       2.897819             0.00680659306            0.000294592148           
       2.900459             0.00692886098            0.000294765373           
       2.903099             0.00696922552            0.000297166277           
       2.905740             0.00691453478            0.000292693932           
       2.908380             0.00713767303            0.000301343483           
       2.911021              0.0072368517            0.000304006679           
       2.913661             0.00685243063            0.000292566633           
       2.916301             0.00672545079            0.000293966523           
       2.918942             0.00715204475             0.00029857295           
       2.921582             0.00663166702            0.000290522288           
       2.924222             0.00689336576            0.000294481115           
       2.926863             0.00714560959            0.000300616957           
       2.929503             0.00682664968            0.000297092819           
       2.932144             0.00738619505            0.000303960266           
       2.934784             0.00754099482            0.000308434176           
       2.937424             0.00719472121            0.000301826724           
       2.940065             0.00665012384            0.000290414897           
       2.942705               0.006602148            0.000290244684           
       2.945346             0.00676688321            0.000292107858           
       2.947986              0.0067317772            0.000292368006           
       2.950626              0.0070539099            0.000300201755           
       2.953267             0.00962809784            0.000347000545           
       2.955907              0.0107986137            0.000372347173           
       2.958547              0.0088298553            0.000333245809           
       2.961188              0.0077318554            0.000314560814           
       2.963828             0.00708583358            0.000299426381           
       2.966469             0.00670590165             0.00029136094           
       2.969109             0.00683162969            0.000295583613           
       2.971749             0.00736512629            0.000306005346           
       2.974390             0.00795790551            0.000318954241           
       2.977030             0.00883284437            0.000335391435           
       2.979670             0.00966926048            0.000348649687           
       2.982311             0.00782817531            0.000315970052           
       2.984951             0.00780253555             0.00031626782           
       2.987592             0.00755471299            0.000310154285           
       2.990232             0.00724586181            0.000304523905           
       2.992872             0.00754887354            0.000308394258           
       2.995513             0.00835314295            0.000326955207           
       2.998153             0.00804886757             0.00032301566           
       3.000794             0.00976883733            0.000350680448           
       3.003434              0.0274756272            0.000594353376           
       3.006074              0.0641250049             0.00091092377           
       3.008715              0.0356762457            0.000684624438           
       3.011355              0.0251191771            0.000580441858           
       3.013995              0.0206390895            0.000523567022           
       3.016636              0.0324897419            0.000658133008           
       3.019276               0.163374585             0.00151108623           
       3.021917               0.228702033             0.00175753193           
       3.024557               0.128577336             0.00132832342           
       3.027197               0.124162335             0.00132722696           
       3.029838               0.123497968             0.00131734166           
       3.032478              0.0538272805            0.000874897399           
       3.035118              0.0394681951            0.000753024817           
       3.037759              0.0993049991             0.00119656262           
       3.040399               0.184545572             0.00164984431           
       3.043040              0.0775350118             0.00107978638           
       3.045680               0.054057076            0.000887717049           
       3.048320               0.101785892              0.0012376726           
       3.050961               0.284005519             0.00208813485           
       3.053601               0.086247591             0.00114562842           
       3.056242              0.0505261184            0.000882488377           
       3.058882               0.208705748             0.00182025034           
       3.061522                0.20005606             0.00176978419           
       3.064163              0.0260339129            0.000639593015           
       3.066803              0.0206692714            0.000580917408           
       3.069443              0.0343932758             0.00074436582           
       3.072084              0.0959728753             0.00125450611           
       3.074724              0.0278358822            0.000679607194           
       3.077365               0.010444013            0.000415985438           
       3.080005              0.0103088205            0.000417867334           
       3.082645              0.0090832654            0.000394239927           
       3.085286              0.0076727207            0.000362404432           
       3.087926             0.00838126251            0.000381178128           
       3.090566             0.00740621615            0.000362011254           
       3.093207             0.00763606548            0.000363614329           
       3.095847             0.00721142422            0.000360766254           
       3.098488             0.00782911129            0.000375217798           
       3.101128             0.00751918194            0.000369719061           
       3.103768             0.00879894997            0.000402199768           
       3.106409              0.0102347596            0.000436681103           
       3.109049              0.0106530992            0.000448979648           
       3.111690              0.0114851738            0.000464348543           
       3.114330              0.0106740845            0.000451635183           
       3.116970              0.0112153446            0.000469384541           
       3.119611              0.0159524724            0.000556162054           
       3.122251              0.0148433996            0.000540874198           
       3.124891              0.0112030009            0.000472171824           
       3.127532             0.00866515998            0.000422741461           
       3.130172              0.0072607885            0.000379010401           
       3.132813             0.00706077022            0.000381360292           
       3.135453             0.00907191152             0.00044139224           
       3.138093             0.00743753124             0.00039017628           
       3.140734             0.00628075285            0.000365225156           
       3.143374             0.00587846271            0.000358736374           
       3.146014             0.00671287631             0.00038056935           
       3.148655             0.00642000001            0.000375105029           
       3.151295             0.00635714838            0.000376218853           
       3.153936             0.00663805207            0.000390116351           
       3.156576             0.00688866061             0.00039285015           
       3.159216              0.0065005929            0.000384745523           
       3.161857             0.00586525568            0.000369943813           
       3.164497             0.00712482837            0.000416333666           
       3.167138              0.0059771307            0.000372181049           
       3.169778             0.00661745989            0.000398681041           
       3.172418             0.00543692881            0.000363485515           
       3.175059             0.00678066915            0.000411237996           
       3.177699             0.00587996072            0.000381439265           
       3.180339             0.00598263112            0.000388194158           
       3.182980             0.00555446997            0.000379094839           
       3.185620             0.00605323276            0.000400074007           
       3.188261             0.00641678688            0.000406516336           
       3.190901             0.00614822771            0.000404050044           
       3.193541             0.00577249685            0.000392799359           
       3.196182             0.00539952884            0.000387802205           
       3.198822             0.00621415948            0.000410985637           
       3.201463             0.00563187179            0.000396316349           
       3.204103             0.00590312072            0.000411151077           
       3.206743             0.00532112454            0.000393657644           
       3.209384             0.00515867832            0.000385874325           
       3.212024             0.00603625412            0.000418890476           
       3.214664             0.00562858857            0.000412207962           
       3.217305             0.00581820931            0.000428871501           
       3.219945             0.00547312298            0.000412480351           
       3.222586             0.00608358731            0.000437337177           
       3.225226             0.00586112535            0.000438937201           
       3.227866             0.00544361507            0.000426287359           
       3.230507             0.00508877075            0.000417077602           
       3.233147             0.00536812682            0.000422036616           
       3.235787             0.00640429441            0.000461097139           
       3.238428             0.00583466234            0.000447886379           
       3.241068              0.0047981967            0.000414397757           
       3.243709             0.00529898564            0.000433069409           
       3.246349             0.00605495932            0.000460341396           
       3.248989             0.00545287523            0.000446840068           
       3.251630             0.00660888647            0.000494106573           
       3.254270             0.00589829368            0.000481136461           
       3.256911             0.00551401639            0.000453543359           
       3.259551              0.0052600679            0.000452764845           
       3.262191             0.00610639309             0.00049231898           
       3.264832               0.005661729            0.000478503088           
       3.267472             0.00536487445            0.000472395402           
       3.270112             0.00644609401            0.000519288576           
       3.272753             0.00522008894            0.000473046656           
       3.275393             0.00598553631            0.000509150599           
       3.278034             0.00641160502            0.000537695281           
       3.280674             0.00500174758            0.000476290964           
       3.283314              0.0063310715            0.000538819312           
       3.285955             0.00525761189            0.000500242436           
       3.288595             0.00575353514             0.00052914153           
       3.291235             0.00532535303            0.000512061797           
       3.293876             0.00551966323            0.000524406901           
       3.296516             0.00706194436            0.000605261674           
       3.299157             0.00525465446            0.000529990527           
       3.301797             0.00588856646            0.000561287454           
       3.304437             0.00534547774             0.00054480254           
       3.307078             0.00589566768            0.000577711459           
       3.309718              0.0054540965            0.000561202524           
       3.312359             0.00620613362             0.00061074018           
       3.314999             0.00522583343            0.000566312236           
       3.317639             0.00535869465            0.000579641064           
       3.320280             0.00517593566            0.000577989895           
       3.322920             0.00509318857            0.000581929533           
       3.325560             0.00547909757             0.00061522815           
       3.328201              0.0044978782            0.000559780188           
       3.330841             0.00406260108            0.000544943859           
       3.333482             0.00594937539            0.000667828455           
       3.336122             0.00572622366            0.000669424303           
       3.338762             0.00576927059            0.000678081557           
       3.341403             0.00630948879            0.000715696539           
       3.344043             0.00678370391            0.000770428968           
       3.346683             0.00617679735              0.0007426146           
       3.349324             0.00539552105             0.00070480649           
       3.351964             0.00544210758            0.000730598749           
       3.354605             0.00397998015            0.000631867569           
       3.357245             0.00519086896            0.000746979673           
       3.359885             0.00599235252            0.000802866801           
       3.362526             0.00527371883            0.000791699223           
       3.365166             0.00514268308            0.000772149415           
       3.367807             0.00379560612            0.000710099898           
       3.370447             0.00421352928            0.000748462827           
       3.373087             0.00642965566            0.000975792595           
       3.375728             0.00593390454             0.00093033319           
       3.378368             0.00505701889            0.000928047869           
       3.381008             0.00581053175            0.000986115114           
       3.383649             0.00390155565            0.000874494659           
       3.386289             0.00582229476              0.0010687212           
       3.388930             0.00672698831             0.00126161743           
       3.391570             0.00487728982             0.00107470357           
       3.394210             0.00667100982             0.00134672374           
       3.396851              0.0084538202             0.00164222367           
       3.399491             0.00516183369             0.00130652954           
       3.402131             0.00589680959             0.00165300277           
       3.404772             0.00448156873             0.00144167096           
       3.407412             0.00556620568             0.00199369375           
       3.410053             0.00291641509             0.00150269306           
       3.412693             0.00142085892             0.00148394608           
       3.415333             0.00211621692             0.00221893691           
