################################################################################
# EDF_DataBlockID                     0.Image.Psd
# EDF_BinarySize                      4366944
# EDF_HeaderSize                      2560
# ByteOrder                           LowByteFirst
# DataType                            FloatValue
# Dim_1                               1028
# Dim_2                               1062
# Image                               0
# HeaderID                            EH:000000:000000:000000
# Size                                4366944
# Center_1                            607.5320
# Center_2                            651.4720
# Comment                             Xenocs_Cell_Window - front_window_open_only
# DDummy                              0.6
# Date                                2025-10-18T02:42:34
# Delta                               0
# Dummy                               -1.5
# ExposureTime                        360
# Gamma                               0
# Intensity1                          9.27721e-10
# PSize_1                             7.5e-05
# PSize_2                             7.5e-05
# Pressure                            0.0345058
# SampleDistance                      0.450002
# SampleEnvKind                       large
# SampleEnvPN                         ElectroChemical cell
# SampleEnvSN                         1141
# Thickness                           0
# Wavelength                          1.541891e-10
# Wavelength                          1.54189e-10
# aux                                 0
# aux_dial                            0.002375
# beamx                               588.429
# beamx_dial                          588.429
# beamz                               657.855
# beamz_dial                          657.855
# det0x                               -0.000396875
# det0x_dial                          6.36905
# det0xvd                             -0.0005
# det0xvd_dial                        -0.0005
# det0y                               450.002
# det0y_dial                          481.635
# det0z                               0
# det0z_dial                          1.2295
# det0zvd                             0
# det0zvd_dial                        0
# mag                                 1.818
# mag_dial                            1.818
# om                                  0.2499
# om_dial                             -0.610199
# phi                                 -0.0120535
# phi_dial                            0
# ry                                  0.599993
# ry_dial                             0.599993
# s1bot                               0.8
# s1bot_dial                          -1.66094
# s1hl                                0.8
# s1hl_dial                           -0.608437
# s1hr                                0.8
# s1hr_dial                           0.970938
# s1top                               0.8
# s1top_dial                          -0.461562
# s2bot                               0.45
# s2bot_dial                          1.36109
# s2hl                                0.45
# s2hl_dial                           -0.83375
# s2hr                                0.45
# s2hr_dial                           -0.118594
# s2top                               0.45
# s2top_dial                          1.44734
# w2theta                             32
# w2theta_dial                        32
# waxsch                              19.2605
# waxsch_dial                         -32.7238
# waxsh                               137.085
# waxsh_dial                          -43.5335
# waxsth                              26.0607
# waxsth_dial                         -19.4068
# waxsz                               67.0407
# waxsz_dial                          -23.7962
# wind                                65.9854
# wind_dial                           66.0041
# wpsi                                124
# wpsi_dial                           124
# wstod                               115
# wstod_dial                          115
# x                                   0
# x_dial                              1.00969
# z                                   0
# z_dial                              13.3172
# CountCutoff                         15302352
# DetectorModel                       Dectris EIGER2 Si 1M, S/N E-02-0362
# ThresholdSetting                    4023.88989258
# Saturation                          0
# FlatField                           Corrected
# BackgroundReductionExtra            0.02
# BackgroundCorrectionConstant        0.0026712
# Detector                            0
# Monitor                             0
# Pil_Roi0                            0
# SumForIntensity1                    3.3398e+08
# TransmittedFlux                     927721
# det                                 0
# mon                                 0
# pilai0                              3.3398e+08
# pilai1                              716008
# pilct0                              5.75977e+08
# pilct1                              716008
# pilroi0                             0
# pilroi1                             0
# sec                                 1
# title                               20251017__0_00078.edf
# usaxs0                              0
# Operation                           Azimuthal average I(q)
# Error_model                         ErrorModel.poisson
# Geometrical_correction              True
# Transmission_correction             True
# Thickness_correction                False
# Binning mode                        Uniform
# Binning factor                      1.0
# Psi                                 0.0
# Omega                               0.2499
# MaskInvalidPixels                   True
# DetectorEdge                        3
# MaskFiles                           ['SAXS_correted.edf']
################################################################################
    q(A⁻¹)                Intensity(a.u.)            Sigma_I(a.u.)            
       0.000340                354566.144                112.870707           
       0.001019                353019.959                68.9680415           
       0.001698                 348970.73                48.4872777           
       0.002377                331525.111                42.2704196           
       0.003056                299297.921                33.9442524           
       0.003735                260546.328                27.9308872           
       0.004415                 204098.57                24.7207896           
       0.005094                151704.081                18.4574518           
       0.005773                100136.653                 13.883418           
       0.006452                60008.8415                10.3830762           
       0.007131                32607.7474                7.41079217           
       0.007810                 16325.818                5.16368712           
       0.008490                8591.42836                3.32037911           
       0.009169                3360.71815                2.05239852           
       0.009848                1348.22312                 1.2500706           
       0.010527                386.641121               0.673062665           
       0.011206                131.731245               0.371297023           
       0.011885                52.3098549               0.221431207           
       0.012564                26.0874595               0.157057901           
       0.013244                17.0367705               0.120727174           
       0.013923                 12.609063               0.105550068           
       0.014602                9.54316733              0.0845205737           
       0.015281                7.61743201              0.0777020808           
       0.015960                6.23059108              0.0695113035           
       0.016639                5.03302266              0.0584136737           
       0.017319                4.17652459              0.0523943793           
       0.017998                3.49445698              0.0465280461           
       0.018677                3.04662496              0.0447494443           
       0.019356                2.57193581              0.0403837049           
       0.020035                2.16758242              0.0348849637           
       0.020714                1.89313665              0.0330348091           
       0.021394                1.64453761              0.0289856388           
       0.022073                1.52811268              0.0292907067           
       0.022752                1.30685906              0.0255975567           
       0.023431                 1.0983108              0.0229390465           
       0.024110                1.00308958              0.0229108322           
       0.024789               0.881868278              0.0200277862           
       0.025469               0.822648158              0.0198088275           
       0.026148               0.737859924              0.0177661496           
       0.026827               0.681263664              0.0172083454           
       0.027506               0.627287747              0.0170725133           
       0.028185               0.564091484               0.015503269           
       0.028864               0.513310692                0.01458858           
       0.029544               0.486050489              0.0139048525           
       0.030223               0.450356768              0.0138252382           
       0.030902               0.414256455              0.0136980296           
       0.031581                0.36814332              0.0121014268           
       0.032260               0.345768633              0.0122350779           
       0.032939               0.339090757              0.0121407805           
       0.033619               0.315069341               0.012125858           
       0.034298                0.28121019              0.0111010551           
       0.034977               0.253063383              0.0104462851           
       0.035656               0.250415281              0.0109052503           
       0.036335               0.223804161              0.0100474123           
       0.037014               0.215339976              0.0103911397           
       0.037693               0.206786955             0.00990991023           
       0.038373               0.201482754              0.0102190228           
       0.039052               0.175990089             0.00939394491           
       0.039731               0.168026566             0.00949325377           
       0.040410               0.169749497             0.00954182473           
       0.041089                0.16645078             0.00987552814           
       0.041768               0.139028185             0.00950221447           
       0.042448               0.136468901             0.00875376309           
       0.043127               0.128784492             0.00888188539           
       0.043806               0.114490819              0.0087288833           
       0.044485               0.127442322             0.00883552829           
       0.045164               0.115993962             0.00892485263           
       0.045843               0.112010262             0.00810129511           
       0.046523               0.105456286             0.00808345974           
       0.047202               0.126392729             0.00928687212           
       0.047881               0.128031559             0.00925941865           
       0.048560               0.120979987             0.00914395085           
       0.049239              0.0972335145             0.00778441038           
       0.049918               0.109502462             0.00928311585           
       0.050598              0.0819343948             0.00754936945           
       0.051277              0.0953643564             0.00791800718           
       0.051956               0.085335418             0.00831735038           
       0.052635              0.0932864836               0.008899284           
       0.053314              0.0843591942             0.00800333449           
       0.053993              0.0738097489             0.00782412079           
       0.054673              0.0880308535             0.00823389427           
       0.055352              0.0845985514             0.00854239834           
       0.056031              0.0744001217             0.00797914463           
       0.056710              0.0838359824             0.00847005423           
       0.057389               0.086599715             0.00860856472           
       0.058068              0.0809386432             0.00810049407           
       0.058748              0.0727304265             0.00770782824           
       0.059427              0.0706603437              0.0069223223           
       0.060106              0.0732628359             0.00851319607           
       0.060785              0.0721980392             0.00765072488           
       0.061464              0.0587165294             0.00723360451           
       0.062143              0.0619202389             0.00700673705           
       0.062822                0.05244479             0.00689363489           
       0.063502              0.0674354629             0.00816776496           
       0.064181              0.0667229886             0.00797944382           
       0.064860              0.0590066318             0.00805773794           
       0.065539              0.0517149375             0.00739410153           
       0.066218              0.0464022574             0.00733512099           
       0.066897              0.0454253474             0.00710631179           
       0.067577              0.0431447611              0.0071899445           
       0.068256              0.0472633669             0.00721163642           
       0.068935              0.0474152374             0.00741487539           
       0.069614              0.0490465746             0.00723655655           
       0.070293              0.0434334821             0.00725449887           
       0.070972              0.0474129828             0.00722316702           
       0.071652              0.0396312097             0.00681582812           
       0.072331              0.0412708108             0.00741267447           
       0.073010              0.0377418554             0.00741640744           
       0.073689              0.0443766435              0.0075035614           
       0.074368              0.0443350398             0.00728876492           
       0.075047              0.0397105435             0.00714030763           
       0.075727              0.0374307963             0.00764884132           
       0.076406              0.0521075943             0.00937062054           
       0.077085              0.0445538825             0.00789963626           
       0.077764              0.0414517496             0.00799160917           
       0.078443              0.0349181162             0.00686111029           
       0.079122              0.0396754619             0.00765624123           
       0.079802              0.0322909817             0.00743512601           
       0.080481              0.0321103728             0.00670652644           
       0.081160              0.0378550818             0.00869536301           
       0.081839              0.0289471723             0.00703975182           
       0.082518              0.0363505683             0.00743110156           
       0.083197              0.0364175722             0.00815940431           
       0.083876              0.0359084568             0.00679031582           
       0.084556               0.041578627             0.00887015422           
       0.085235              0.0407347501             0.00815917745           
       0.085914              0.0472411242             0.00835481129           
       0.086593              0.0313795845             0.00721617705           
       0.087272              0.0242792604             0.00590921202           
       0.087951                0.02871075              0.0071844196           
       0.088631              0.0145330047             0.00487363542           
       0.089310              0.0322431288             0.00704886682           
       0.089989              0.0380931851             0.00721210626           
       0.090668              0.0397370772             0.00812074335           
       0.091347               0.046896684             0.00903300255           
       0.092026              0.0374836115             0.00685694516           
       0.092706              0.0489883661             0.00980227386           
       0.093385              0.0267310781             0.00671247156           
       0.094064              0.0290954325             0.00705844213           
       0.094743              0.0455936242             0.00832323275           
       0.095422              0.0448822879             0.00898325548           
       0.096101              0.0342816807             0.00916809592           
       0.096781              0.0317521156             0.00749373632           
       0.097460               0.042761965             0.00891855196           
       0.098139               0.033051486             0.00828087132           
       0.098818              0.0247198203             0.00640546749           
       0.099497              0.0291878338              0.0075667064           
       0.100176              0.0347671057              0.0075965691           
       0.100856              0.0174311982             0.00584756386           
       0.101535              0.0390204327             0.00946438984           
       0.102214              0.0318334827             0.00695522339           
       0.102893              0.0320436564             0.00718347327           
       0.103572              0.0303115679              0.0067870143           
       0.104251              0.0193034149             0.00584330441           
       0.104931              0.0288810369             0.00774130196           
       0.105610              0.0226183576             0.00654342408           
       0.106289              0.0214516142             0.00648729481           
       0.106968              0.0189286018             0.00508467708           
       0.107647              0.0339826014             0.00781759745           
       0.108326              0.0174797573             0.00585611769           
       0.109005              0.0285439152             0.00624409743           
       0.109685              0.0188346734             0.00597132907           
       0.110364               0.034288163             0.00716865864           
       0.111043              0.0274043633             0.00733269674           
       0.111722              0.0235393238             0.00589893511           
       0.112401              0.0152846329              0.0051167952           
       0.113080              0.0183172571             0.00583795288           
       0.113760              0.0222082115             0.00642820617           
       0.114439              0.0278493526             0.00609137152           
       0.115118              0.0301632475             0.00658812525           
       0.115797              0.0211118192              0.0056648698           
       0.116476              0.0239234868             0.00640179154           
       0.117155              0.0183836459             0.00556785892           
       0.117835              0.0227468249             0.00609893644           
       0.118514              0.0285416144             0.00693774259           
       0.119193              0.0216740462              0.0058226063           
       0.119872              0.0213628358             0.00619910154           
       0.120551              0.0251048962             0.00650680257           
       0.121230              0.0238250684             0.00638893549           
       0.121910              0.0194551048             0.00564065564           
       0.122589              0.0369924348             0.00755258155           
       0.123268              0.0342810054             0.00732307791           
       0.123947              0.0173841872             0.00484313793           
       0.124626              0.0105821138             0.00377867208           
       0.125305              0.0246877782             0.00600103894           
       0.125985               0.018570143             0.00538998545           
       0.126664              0.0195428212             0.00565366006           
       0.127343              0.0195431157             0.00619336842           
       0.128022              0.0170840624             0.00516994297           
       0.128701              0.0235122498             0.00556363274           
       0.129380              0.0200922112             0.00582164329           
       0.130059              0.0318031606             0.00750231439           
       0.130739              0.0241721545             0.00648769721           
       0.131418              0.0267461538             0.00633281085           
       0.132097              0.0188684881             0.00547330587           
       0.132776              0.0137646641             0.00489582824           
       0.133455                 0.0329408             0.00757379997           
       0.134134               0.014568775             0.00464190536           
       0.134814              0.0178532099             0.00497119276           
       0.135493               0.017538779             0.00557170494           
       0.136172              0.0265602744             0.00610278428           
       0.136851               0.023134066             0.00562306301           
       0.137530              0.0291217992             0.00651864546           
       0.138209              0.0129347105             0.00434440996           
       0.138889              0.0261549872             0.00617779107           
       0.139568              0.0114713115             0.00409134672           
       0.140247               0.013527425             0.00453583695           
       0.140926              0.0235450566             0.00556834374           
       0.141605              0.0225835911             0.00548707437           
       0.142284             0.00890372371             0.00367999331           
       0.142964             0.00996749979             0.00381392041           
       0.143643              0.0234126911             0.00605339627           
       0.144322              0.0201927485             0.00562179609           
       0.145001              0.0217171804             0.00583019123           
       0.145680              0.0124831467             0.00398255877           
       0.146359              0.0197735725             0.00530089683           
       0.147039              0.0160497757             0.00483989641           
       0.147718              0.0239052446             0.00640173131           
       0.148397              0.0154816932             0.00492277483           
       0.149076              0.0253609177             0.00616802074           
       0.149755              0.0275684307             0.00588423349           
       0.150434                0.01364838             0.00458911365           
       0.151114             0.00515362126             0.00263786583           
       0.151793              0.0211196347             0.00566838749           
       0.152472               0.021710131             0.00544837462           
       0.153151              0.0192755015             0.00537762265           
       0.153830               0.019634792             0.00508585493           
       0.154509              0.0119339808             0.00401429415           
       0.155188              0.0187296101             0.00502904131           
       0.155868              0.0160765863             0.00432141005           
       0.156547              0.0214678903             0.00597326706           
       0.157226              0.0163656951             0.00456074505           
       0.157905              0.0202047586             0.00562451296           
       0.158584              0.0163256666             0.00455525413           
       0.159263              0.0137785897             0.00490001552           
       0.159943             0.00888170074             0.00340019785           
       0.160622              0.0189953608              0.0050969418           
       0.161301              0.0157119766             0.00499648764           
       0.161980              0.0241824608             0.00541830468           
       0.162659              0.0242410939             0.00607378056           
       0.163338             0.00876530874             0.00335784574           
       0.164018              0.0202890559               0.005442971           
       0.164697               0.016305079             0.00455278699           
       0.165376              0.0287183542             0.00630757232           
       0.166055              0.0180843146             0.00485228342           
       0.166734              0.0196860582             0.00494491372           
       0.167413              0.0234136548             0.00539285102           
       0.168093              0.0138511409             0.00440905349           
       0.168772              0.0125351782             0.00399216059           
       0.169451              0.0334390755             0.00713435666           
       0.170130              0.0107063003             0.00382707763           
       0.170809              0.0149783055             0.00477493892           
       0.171488             0.00897527681             0.00343943979           
       0.172168              0.0235656141             0.00590680935           
       0.172847              0.0159785778             0.00507704716           
       0.173526              0.0138211523             0.00440464775           
       0.174205              0.0139535651             0.00423732316           
       0.174884              0.0191285969             0.00532198127           
       0.175563              0.0171725911             0.00461909216           
       0.176243              0.0192848865              0.0048396767           
       0.176922              0.0217273307             0.00545251646           
       0.177601              0.0221047854             0.00509638033           
       0.178280              0.0162223369             0.00471151224           
       0.178959              0.0194843794             0.00489242056           
       0.179638              0.0178856852             0.00479776964           
       0.180317              0.0172789841             0.00448176507           
       0.180997              0.0139339463             0.00404650005           
       0.181676              0.0163806033             0.00476495509           
       0.182355              0.0147438249             0.00411800352           
       0.183034              0.0200021925             0.00487493572           
       0.183713              0.0155070571             0.00449450056           
       0.184392              0.0199014894             0.00500211994           
       0.185072              0.0204196488             0.00512684205           
       0.185751              0.0228638875             0.00512839654           
       0.186430              0.0140086913             0.00424653453           
       0.187109              0.0102618698             0.00345423891           
       0.187788              0.0182179615             0.00473144595           
       0.188467              0.0152449294             0.00425630157           
       0.189147              0.0239250715             0.00640843113           
       0.189826              0.0115214155             0.00387449067           
       0.190505               0.013350167              0.0038780483           
       0.191184              0.0152784206             0.00410617124           
       0.191863              0.0180688979             0.00485224374           
       0.192542              0.0263600017             0.00550718581           
       0.193222              0.0124392858             0.00348146511           
       0.193901              0.0272511283             0.00626891827           
       0.194580             0.00927673183             0.00332057313           
       0.195259              0.0101507027             0.00387818272           
       0.195938              0.0178777125             0.00479803163           
       0.196617             0.00929849538             0.00332458666           
       0.197297              0.0119462228             0.00401908633           
       0.197976              0.0167504397             0.00434450258           
       0.198655              0.0113002978              0.0036061941           
       0.199334              0.0170935307             0.00430020418           
       0.200013               0.019448718             0.00473107717           
       0.200692               0.011318997             0.00404070497           
       0.201371               0.011416061             0.00364423013           
       0.202051              0.0116642852              0.0037239414           
       0.202730              0.0178703348             0.00463494898           
       0.203409              0.0100829848             0.00360379681           
       0.204088              0.0164966576             0.00414278205           
       0.204767              0.0195916262             0.00508445674           
       0.205446              0.0142369612             0.00413722208           
       0.206126              0.0132414476             0.00369403018           
       0.206805              0.0176744142             0.00444037288           
       0.207484              0.0131641602              0.0040007343           
       0.208163              0.0178990278              0.0046391353           
       0.208842              0.0151209059             0.00392903143           
       0.209521              0.0134517585             0.00375946268           
       0.210201               0.016811025             0.00422335696           
       0.210880              0.0124266602             0.00417924714           
       0.211559              0.0171599685             0.00430953009           
       0.212238              0.0134634328             0.00376128626           
       0.212917              0.0155941807             0.00404804854           
       0.213596              0.0133889711             0.00373289277           
       0.214276              0.0168176297             0.00468314842           
       0.214955              0.0164677893             0.00442585792           
       0.215634              0.0176857194             0.00458665885           
       0.216313              0.0222463442              0.0051161944           
       0.216992              0.0207980295             0.00492025057           
       0.217671             0.00857735755             0.00328587489           
       0.218351               0.011287054             0.00360541706           
       0.219030              0.0162815205             0.00437712147           
       0.219709             0.00999394606             0.00356779373           
       0.220388               0.018852506             0.00473598892           
       0.221067              0.0174946857             0.00439635485           
       0.221746              0.0156187094             0.00419706015           
       0.222426              0.0280062938             0.00539977219           
       0.223105              0.0128824018             0.00391514791           
       0.223784              0.0131038659             0.00380507371           
       0.224463              0.0215475574             0.00483037987           
       0.225142              0.0158529063             0.00398686021           
       0.225821             0.00764136688             0.00274273299           
       0.226500               0.011172997             0.00356881075           
       0.227180              0.0215689327             0.00471656698           
       0.227859              0.0165503569             0.00443808363           
       0.228538              0.0163171302              0.0038698988           
       0.229217              0.0165687046                0.00403899           
       0.229896              0.0111341522             0.00356284926           
       0.230575               0.016825481             0.00422688485           
       0.231255              0.0148275915             0.00413346832           
       0.231934              0.0182723753             0.00458862657           
       0.232613             0.00872701316             0.00312177926           
       0.233292              0.0149652607             0.00417505617           
       0.233971              0.0164086247             0.00425884136           
       0.234650               0.011964488             0.00363670337           
       0.235330              0.0207939173             0.00505949696           
       0.236009              0.0206670909             0.00475563958           
       0.236688              0.0134304936             0.00374043879           
       0.237367              0.0119626609             0.00363664247           
       0.238046              0.0188278488             0.00458585462           
       0.238725             0.00675409324             0.00260305617           
       0.239405              0.0221960825             0.00485575306           
       0.240084             0.00776858868             0.00279179929           
       0.240763              0.0115211667             0.00410736782           
       0.241442              0.0159818861             0.00402309089           
       0.242121              0.0071074169             0.00294174522           
       0.242800              0.0167391454             0.00407947131           
       0.243480              0.0117265884             0.00356486497           
       0.244159              0.0146131755             0.00367911259           
       0.244838              0.0134963325             0.00376841964           
       0.245517              0.0191941711             0.00497647742           
       0.246196              0.0106134231             0.00339164842           
       0.246875              0.0133314676             0.00387965525           
       0.247554              0.0149762522             0.00417788776           
       0.248234              0.0133216549              0.0038783444           
       0.248913             0.00592283399             0.00270105506           
       0.249592             0.00912549617             0.00308409654           
       0.250271              0.0115634255             0.00369124192           
       0.250950              0.0087241505             0.00312252188           
       0.251629              0.0070839135             0.00293750091           
       0.252309              0.0154920281             0.00416112892           
       0.252988              0.0189965019             0.00463181257           
       0.253667              0.0151564466             0.00422631189           
       0.254346              0.0170183376             0.00415269707           
       0.255025              0.0167016468              0.0043432397           
       0.255704              0.0192905791             0.00444218412           
       0.256384              0.0124192639              0.0036158741           
       0.257063              0.0116166338             0.00353159073           
       0.257742             0.00995111178             0.00335272097           
       0.258421               0.015130382             0.00369776036           
       0.259100              0.0124467673             0.00418691766           
       0.259779              0.0149616714             0.00417702336           
       0.260459             0.00953867491             0.00305286491           
       0.261138              0.0110803917             0.00353813308           
       0.261817              0.0108323228             0.00365391911           
       0.262496              0.0141251242             0.00410318977           
       0.263175             0.00999476499             0.00357133076           
       0.263854             0.00881132929             0.00315533449           
       0.264534               0.010412989             0.00332778412           
       0.265213             0.00820837959             0.00295463292           
       0.265892              0.0160346146             0.00447147895           
       0.266571              0.0154822199             0.00432000063           
       0.267250              0.0166639857             0.00448191852           
       0.267929              0.0144695356             0.00404384652           
       0.268609              0.0141490264             0.00410726607           
       0.269288              0.0141987764             0.00396487762           
       0.269967              0.0235991477             0.00558811754           
       0.270646              0.0141694349             0.00396091074           
       0.271325                0.01173372             0.00374055715           
       0.272004              0.0128016672             0.00356998009           
       0.272683              0.0118454873             0.00398370406           
       0.273363              0.0112382396              0.0035830106           
       0.274042             0.00996357347             0.00317895038           
       0.274721              0.0114497313             0.00365537043           
       0.275400              0.0078506568             0.00301072831           
       0.276079              0.0135118193             0.00410570409           
       0.276758              0.0173917946             0.00424008583           
       0.277438             0.00882945791             0.00337778889           
       0.278117             0.00874092325             0.00334103711           
       0.278796               0.012637549             0.00384069826           
       0.279475              0.0167379253             0.00485771839           
       0.280154               0.018498038             0.00535609485           
       0.280833              0.0181804289             0.00506289584           
       0.281513              0.0161497455             0.00575167512           
       0.282192               0.011538461             0.00388500808           
       0.282871              0.0131614067             0.00442439637           
       0.283550             0.00775255416             0.00351835865           
       0.284229              0.0101828845             0.00418933912           
       0.284908               0.012825483             0.00430916904           
       0.285588              0.0194797062             0.00524132285           
       0.286267              0.0173810415             0.00526849466           
       0.286946             0.00735736223             0.00374398421           
       0.287625             0.00920650211             0.00380663112           
       0.288304              0.0124998186             0.00419886511           
       0.288983              0.0150431522              0.0045767348           
       0.289663              0.0103576978             0.00395281622           
       0.290342              0.0059926482             0.00353798768           
       0.291021             0.00884011144             0.00400045884           
       0.291700              0.0118710832             0.00452417713           
       0.292379             0.00814976125             0.00336897132           
       0.293058              0.0120734739             0.00459938925           
       0.293738              0.0151195407             0.00506601755           
       0.294417              0.0148352092             0.00497950198           
       0.295096              0.0211887564              0.0064115354           
       0.295775              0.0104743946             0.00431927303           
       0.296454              0.0197210612             0.00597597157           
       0.297133              0.0133899436             0.00476789946           
       0.297812              0.0105330437             0.00375897546           
       0.298492              0.0232307605             0.00623185932           
       0.299171              0.0118600311             0.00423085329           
       0.299850              0.0164166736             0.00549889496           
       0.300529              0.0136940365             0.00436803175           
       0.301208              0.0130893115             0.00438447442           
       0.301887              0.0161565988             0.00490451959           
       0.302567              0.0110456093             0.00500109711           
       0.303246               0.011540581             0.00439295156           
       0.303925              0.0179910251             0.00570900086           
       0.304604              0.0159361396             0.00566383878           
       0.305283              0.0101845656              0.0041920341           
       0.305962             0.00740719568             0.00375855957           
       0.306642             0.00797281142             0.00404397056           
       0.307321              0.0173152813             0.00579787121           
       0.308000              0.0157658171             0.00502065353           
       0.308679             0.00568563659             0.00335252562           
       0.309358             0.00880362184             0.00446562986           
       0.310037              0.0167280434              0.0056000316           
       0.310717             0.00517061403             0.00306115567           
       0.311396             0.00767047265             0.00389428124           
       0.312075             0.00510207566             0.00301588278           
       0.312754              0.0127853635              0.0052733422           
       0.313433              0.0114482347             0.00437658387           
       0.314112             0.00667095166             0.00339355524           
       0.314792              0.0165965198             0.00680325179           
       0.315471              0.0139942085             0.00575232771           
       0.316150               0.046484299              0.0107197136           
       0.316829              0.0133122899             0.00601674811           
       0.317508              0.0172163724             0.00612011086           
       0.318187              0.0232293823             0.00775669199           
       0.318866              0.0108747806              0.0049136372           
       0.319546             0.00595595448             0.00430270393           
       0.320225              0.0134722857             0.00605339539           
       0.320904              0.0137149407             0.00563461266           
       0.321583              0.0142015618             0.00539951732           
       0.322262              0.0150293132             0.00616692518           
       0.322941              0.0169754955             0.00569267408           
       0.323621               0.013771961             0.00564676433           
       0.324300             0.00457449834             0.00332601304           
       0.324979              0.0211928502             0.00672477008           
       0.325658              0.0232146389             0.00775591034           
       0.326337             0.00773089534              0.0045301099           
       0.327016              0.0129080937             0.00530078773           
       0.327696             0.00833764359              0.0042183177           
       0.328375             0.00615144174             0.00443772913           
       0.329054             0.00548438588             0.00396363121           
       0.329733              0.0140076846             0.00575749275           
       0.330412             0.00846379603             0.00429275528           
       0.331091              0.0103222503             0.00602080112           
       0.331771              0.0178744898             0.00680687827           
       0.332450              0.0106736849             0.00622386735           
       0.333129              0.0188935938             0.00717134762           
       0.333808             0.00773525688             0.00453239548           
       0.334487             0.00887800178             0.00518200093           
       0.335166              0.0109252892             0.00552312275           
       0.335846               0.010686452             0.00622824766           
       0.336525              0.0123144525             0.00619002098           
       0.337204             0.00419207242              0.0030524204           
       0.337883             0.00568440204             0.00335504495           
       0.338562             0.00493936922              0.0035789661           
       0.339241             0.00969075801             0.00565556972           
       0.339921              0.0134190794             0.00604497648           
       0.340600             0.00612615078             0.00361727573           
       0.341279              0.0109897485             0.00554043579           
       0.341958             0.00616025171              0.0044427447           
       0.342637              0.0145138517             0.00653719884           
       0.343316              0.0116144438              0.0058480138           
       0.343995              0.0116607617             0.00525536896           
       0.344675              0.0104884847             0.00534508167           
       0.345354              0.0210320793             0.00859798379           
       0.346033              0.0161482266             0.00663251291           
       0.346712             0.00775678271             0.00454050182           
       0.347391             0.00437595456             0.00318531362           
       0.348070              0.0104161248             0.00526180625           
       0.348750              0.0109923477             0.00554238053           
       0.349429              0.0148586971             0.00670704567           
       0.350108               0.012405023             0.00721130635           
       0.350787              0.0292141893              0.0101350765           
       0.351466             0.00833370137             0.00488931392           
       0.352145             0.00467242886             0.00344165658           
       0.352825             0.00970119387             0.00566102751           
       0.353504              0.0122807474              0.0061848245           
       0.354183             0.00271216069             0.00286592186           
       0.354862              0.0103050611              0.0060202236           
       0.355541              0.0149410555             0.00672693806           
       0.356220              0.0122508148             0.00617781986           
       0.356900             0.00563827084             0.00407631571           
       0.357579             0.00348281581             0.00361886505           
       0.358258               0.013057834               0.006568916           
       0.358937             0.00943036863             0.00549983931           
       0.359616              0.0253735553             0.00960428671           
       0.360295             0.00349924166             0.00362770919           
       0.360975               0.008001587             0.00579368976           
       0.361654              0.0145009992             0.00662845645           
       0.362333             0.00704522518             0.00413251442           
       0.363012           -0.000291389669                         0           
       0.363691             0.00363459756             0.00376306479           
       0.364370               0.014681704             0.00853256771           
       0.365050              0.0251067188              0.0102640853           
       0.365729             0.00492804495             0.00505998993           
       0.366408              0.0119382905             0.00694577523           
       0.367087              0.0146373727             0.00602487128           
       0.367766             0.00348399686             0.00362069808           
       0.368445              0.0146821965             0.00853387118           
       0.369124              0.0107325253              0.0076525585           
       0.369804              0.0037746821             0.00390606884           
       0.370483             0.00889759504             0.00636094606           
       0.371162              0.0193837258             0.00869241123           
       0.371841              0.0166688142             0.00836521461           
       0.372520             0.00754562946             0.00562837044           
       0.373199             0.00928430106             0.00663806171           
       0.373879              0.0111784128             0.00648681274           
       0.374558              0.0245344541             0.00929518793           
       0.375237             0.00787115216             0.00564154791           
       0.375916             0.00376562227             0.00390218261           
       0.376595              0.0107443471             0.00625330948           
       0.377274              0.0110066809             0.00643753815           
       0.377954              0.0200638938             0.00900796266           
       0.378633              0.0055578762             0.00565182652           
       0.379312              0.0112804071             0.00805204174           
       0.379991             0.00450153861              0.0046232512           
       0.380670             0.00338037187             0.00350803635           
       0.381349           -0.000291750346                         0           
       0.382029           -0.000291761801                         0           
       0.382708             0.00362676615             0.00376142961           
       0.383387             0.00303390372               0.003169036           
       0.384066              0.0096985934             0.00693963734           
       0.384745              0.0135194499             0.00784472606           
       0.385424              0.0124154821             0.00722285184           
       0.386104              0.0119501388             0.00695389153           
       0.386783              0.0216595814              0.0108778851           
       0.387462             0.00782541495             0.00562749638           
       0.388141              0.0115095381             0.00670199687           
       0.388820             0.00522447894             0.00534281901           
       0.389499              0.0192692214             0.00867217876           
       0.390178              0.0140243006             0.00816320001           
       0.390858             0.00337576333             0.00350688333           
       0.391537             0.00928355001             0.00664201763           
       0.392216             0.00500094876             0.00510192177           
       0.392895              0.0113217259             0.00807062462           
       0.393574           -0.000291999553                         0           
       0.394253               0.014033687             0.00816716795           
       0.394933           -0.000292028353                         0           
       0.395612              0.0200966854             0.00902091212           
       0.396291              0.0548074821              0.0193526903           
       0.396970              0.0092058422             0.00661545138           
       0.397649             0.00816975301             0.00828962055           
       0.398328             0.00755152194             0.00543063916           
       0.399008              0.0134973487              0.0078422791           
       0.399687              0.0188259618             0.00946126705           
       0.400366              0.0128975637             0.00751153034           
       0.401045              0.0126354128             0.00901625211           
       0.401724               0.027320272              0.0136662174           
       0.402403             0.00551489532              0.0056346764           
       0.403083              0.0134373129             0.00782596166           
       0.403762             0.00501238572             0.00510989764           
       0.404441              0.0088944137             0.00636741425           
       0.405120           -0.000292244126                         0           
       0.405799           -0.000292257698                         0           
       0.406478              0.0049378529             0.00507226279           
       0.407158             0.00616303116              0.0062983258           
       0.407837             0.00395684914             0.00408085244           
       0.408516             0.00696864568             0.00713023228           
       0.409195              0.0101662825             0.00727875759           
       0.409874              0.0333201451              0.0167486287           
       0.410553              0.0203137745              0.0117880873           
       0.411233              0.0075577382              0.0076868881           
       0.411912           -0.000292392566                         0           
       0.412591              0.0119812632             0.00853603372           
       0.413270              0.0112744481              0.0080597763           
       0.413949              0.0154945487              0.0110074792           
       0.414628             0.00618168468              0.0063096335           
       0.415307           -0.000292467519                         0           
       0.415987           -0.000292482602                         0           
       0.416666             0.00450771441             0.00463259287           
       0.417345              0.0217660892              0.0154386178           
       0.418024             0.00757352223             0.00769689896           
       0.418703              0.0191041252              0.0110938328           
       0.419382              0.0314731465              0.0221907364           
       0.420062              0.0155596983              0.0110331532           
       0.420741              0.0144249649              0.0102633122           
       0.421420              0.0055079298             0.00563512984           
       0.422099              0.0218942001              0.0219016772           
       0.422778              0.0102153854             0.00730005484           
       0.423457            -0.00029264869                         0           
       0.424137             0.00473226096             0.00485461413           
       0.424816              0.0065624938             0.00670374638           
       0.425495           -0.000292694379                         0           
       0.426174              0.0179196244               0.012792034           
       0.426853              0.0108217617              0.0108899236           
       0.427532           -0.000292740514                         0           
       0.428212              0.0107577988              0.0108583103           
       0.428891               0.015435072              0.0155458935           
       0.429570           -0.000292786607                         0           
       0.430249             0.00973203618              0.0098477883           
       0.430928              0.0134708882              0.0135861782           
       0.431607           -0.000292834546                         0           
       0.432287              0.0134771386              0.0135901036           
       0.432966             0.00818020531             0.00830600323           
       0.433645           -0.000292879629                         0           
       0.434324           -0.000292896724                         0           
       0.435003              0.0437630052              0.0309801104           
       0.435682               0.015551096              0.0110368211           
       0.436361             0.00977895032              0.0098739028           
       0.437041              0.0180730534              0.0181757242           
       0.437720           -0.000292972484                         0           
       0.438399              0.0155851107              0.0156271252           
       0.439078              0.0183669681              0.0183243788           
       0.439757              0.0107355338               0.010851969           
       0.440436            -0.00029304194                         0           
       0.441116              0.0403746545              0.0235304517           
       0.441795              0.0119319262              0.0120605192           
       0.442474             0.00971890604             0.00984593005           
       0.443153              0.0120437827              0.0121175803           
       0.443832              0.0440490684              0.0310921924           
       0.444511           -0.000293135904                         0           
       0.445191             0.00971087796             0.00984295436           
       0.445870              0.0107277135              0.0108507379           
       0.446549           -0.000293180666                         0           
       0.447228              0.0119869985              0.0120909747           
       0.447907           -0.000293216282                         0           
       0.448586              0.0272705703              0.0193444757           
       0.449266              0.0658858142              0.0268944269           
       0.449945              0.0216142135              0.0217850737           
       0.450624              0.0420280409              0.0204815072           
       0.451303              0.0549787399              0.0317193048           
       0.451982           -0.000293312635                         0           
       0.452661              0.0272760022              0.0273641759           
       0.453341           -0.000293346104                         0           
       0.454020           -0.000293361271                         0           
       0.454699           -0.000293374326                         0           
       0.455378              0.0371700657              0.0368900519           
       0.456057              0.0330409517              0.0190507908           
       0.456736              0.0135862874              0.0136585606           
       0.457416           -0.000293444288                         0           
       0.458095           -0.000293460551                         0           
       0.458774           -0.000293479192                         0           
       0.459453           -0.000293495139                         0           
       0.460132           -0.000293511151                         0           
       0.460811              0.0369529894              0.0367905748           
       0.461490              0.0218659609              0.0219221824           
       0.462170              0.0365474273              0.0258730746           
       0.462849              0.0367307705              0.0366829732           
       0.463528           -0.000293590772                         0           
       0.464207           -0.000293609642                         0           
       0.464886           -0.000293621522                         0           
       0.465565           -0.000293646759                         0           
       0.466245           -0.000293671142                         0           
       0.466924           -0.000293676904                         0           
       0.467603            -0.00029369952                         0           
       0.468282           -0.000293711555                         0           
       0.468961           -0.000293733447                         0           
       0.469640           -0.000293747363                         0           
       0.470320                       nan                       nan           
       0.470999           -0.000293785408                         0           
       0.471678           -0.000293799868                         0           
       0.472357           -0.000293811096                         0           
       0.473036           -0.000293832031                         0           
       0.473715              0.0273388401              0.0274200508           
       0.474395           -0.000293865064                         0           
       0.475074                       nan                       nan           
       0.475753           -0.000293899589                         0           
       0.476432           -0.000293921253                         0           
       0.477111           -0.000293939036                         0           
       0.477790                       nan                       nan           
       0.478470           -0.000293975405                         0           
       0.479149            -0.00029398909                         0           
       0.479828           -0.000294008604                         0           
       0.480507               0.110195921               0.110133694           
       0.481186           -0.000294042585                         0           
       0.481865           -0.000294057571                         0           
       0.482545           -0.000294075201                         0           
       0.483224               0.110996806               0.110545803           
       0.483903                       nan                       nan           
       0.484582                       nan                       nan           
       0.485261           -0.000294146906                         0           
