################################################################################
# EDF_DataBlockID                     0.Image.Psd
# EDF_BinarySize                      2105344
# EDF_HeaderSize                      2560
# ByteOrder                           LowByteFirst
# DataType                            FloatValue
# Dim_1                               512
# Dim_2                               1028
# Image                               0
# HeaderID                            EH:000000:000000:000000
# Size                                2105344
# Center_1                            304.9000
# Center_2                            588.7000
# Comment                             Xenocs_Cell_Window - front_window_open_only
# DDummy                              0.6
# Date                                2025-10-18T14:09:21
# Delta                               21.910000
# Dummy                               -1.5
# ExposureTime                        360
# Gamma                               15.360000
# Intensity1                          9.14743e-10
# PSize_1                             7.5e-05
# PSize_2                             7.5e-05
# Pressure                            0.0334673
# SampleDistance                      0.115750
# SampleEnvKind                       large
# SampleEnvPN                         ElectroChemical cell
# SampleEnvSN                         1141
# Thickness                           0
# Wavelength                          1.541891e-10
# Wavelength                          1.54189e-10
# aux                                 0
# aux_dial                            0.002375
# beamx                               588.429
# beamx_dial                          588.429
# beamz                               657.855
# beamz_dial                          657.855
# det0x                               -0.000396875
# det0x_dial                          6.36905
# det0xvd                             -0.0005
# det0xvd_dial                        -0.0005
# det0y                               450.002
# det0y_dial                          481.635
# det0z                               0
# det0z_dial                          1.2295
# det0zvd                             0
# det0zvd_dial                        0
# mag                                 1.818
# mag_dial                            1.818
# om                                  0.2499
# om_dial                             -0.610199
# phi                                 -0.0120535
# phi_dial                            0
# ry                                  0.599993
# ry_dial                             0.599993
# s1bot                               0.8
# s1bot_dial                          -1.66094
# s1hl                                0.8
# s1hl_dial                           -0.608437
# s1hr                                0.8
# s1hr_dial                           0.970938
# s1top                               0.8
# s1top_dial                          -0.461562
# s2bot                               0.45
# s2bot_dial                          1.36109
# s2hl                                0.45
# s2hl_dial                           -0.83375
# s2hr                                0.45
# s2hr_dial                           -0.118594
# s2top                               0.45
# s2top_dial                          1.44734
# w2theta                             32
# w2theta_dial                        32
# waxsch                              19.2605
# waxsch_dial                         -32.7238
# waxsh                               137.085
# waxsh_dial                          -43.5335
# waxsth                              26.0607
# waxsth_dial                         -19.4068
# waxsz                               67.0407
# waxsz_dial                          -23.7962
# wind                                65.9854
# wind_dial                           66.0041
# wpsi                                124
# wpsi_dial                           124
# wstod                               115
# wstod_dial                          115
# x                                   0
# x_dial                              1.00969
# z                                   0
# z_dial                              13.3172
# CountCutoff                         6807993
# DetectorModel                       Dectris EIGER2 Si 500K, S/N E-01-0554
# ThresholdSetting                    4023.88989258
# Saturation                          0
# FlatField                           Corrected
# BackgroundReductionExtra            0.02
# BackgroundCorrectionConstant        0.0026712
# Detector                            0
# Monitor                             0
# Pil_Roi0                            0
# SumForIntensity1                    3.29308e+08
# TransmittedFlux                     914743
# det                                 0
# mon                                 0
# pilai0                              3.29308e+08
# pilai1                              710849
# pilct0                              5.69208e+08
# pilct1                              710849
# pilroi0                             0
# pilroi1                             0
# sec                                 1
# title                               20251017__1_00182.edf
# usaxs0                              0
# Operation                           Azimuthal average I(q)
# Error_model                         ErrorModel.poisson
# Geometrical_correction              True
# Transmission_correction             True
# Thickness_correction                False
# Binning mode                        Uniform
# Binning factor                      1.0
# Psi                                 0.0
# Omega                               0.2499
# MaskInvalidPixels                   True
# DetectorEdge                        3
# MaskFiles                           ['20251017__1_00233_mask.edf']
################################################################################
    q(A⁻¹)                Intensity(a.u.)            Sigma_I(a.u.)            
       0.690460           -2.22032792e-05                         0           
       0.693100             0.00302893466             0.00224330357           
       0.695741              0.0112970855             0.00366009557           
       0.698381              0.0129795356              0.0036693147           
       0.701021             0.00539601681             0.00193088717           
       0.703662             0.00686897581             0.00201654808           
       0.706302             0.00867585287             0.00218874179           
       0.708942             0.00597046493             0.00161282201           
       0.711583             0.00729107794             0.00178196303           
       0.714223             0.00617590087             0.00142914799           
       0.716864             0.00574594365             0.00140669334           
       0.719504             0.00523545491             0.00124271869           
       0.722144               0.006473682             0.00133461804           
       0.724785             0.00685113378             0.00135047155           
       0.727425             0.00539890994             0.00111197526           
       0.730065             0.00573446455             0.00117917993           
       0.732706             0.00546187796             0.00103486211           
       0.735346             0.00659682468             0.00122848907           
       0.737987             0.00693623424             0.00109031917           
       0.740627             0.00753475741             0.00124489925           
       0.743267             0.00526498135            0.000895124647           
       0.745908             0.00676886418             0.00108774263           
       0.748548             0.00694135358               0.001027355           
       0.751189             0.00756137478             0.00106215491           
       0.753829              0.0066385309             0.00100420776           
       0.756469             0.00693708399            0.000965508478           
       0.759110             0.00740576875             0.00103184932           
       0.761750             0.00562523358            0.000823037585           
       0.764390             0.00561231602            0.000882470536           
       0.767031             0.00722135922            0.000905798262           
       0.769671             0.00673043621            0.000927401454           
       0.772312             0.00559267757            0.000770375175           
       0.774952             0.00724952719            0.000940293737           
       0.777592             0.00639449498             0.00080773129           
       0.780233             0.00795193614            0.000949570192           
       0.782873              0.0063310998            0.000774798882           
       0.785513             0.00575230237            0.000785623847           
       0.788154             0.00827765775            0.000865630535           
       0.790794             0.00741061104            0.000847684302           
       0.793435             0.00586116347            0.000724089052           
       0.796075             0.00799737591            0.000850280671           
       0.798715             0.00610145207            0.000738446007           
       0.801356             0.00586859565            0.000704836533           
       0.803996             0.00545965302             0.00069069962           
       0.806637             0.00582145438            0.000674179532           
       0.809277             0.00670925981            0.000757175423           
       0.811917              0.0074601872            0.000755541991           
       0.814558             0.00750350451            0.000776248137           
       0.817198             0.00565401795            0.000642492654           
       0.819838              0.0059927497            0.000689972097           
       0.822479             0.00718922059            0.000696434308           
       0.825119              0.0065584518             0.00071457539           
       0.827760              0.0059979138            0.000633200208           
       0.830400             0.00604632955            0.000669843867           
       0.833040             0.00694212303             0.00066986621           
       0.835681             0.00612705228            0.000659026417           
       0.838321             0.00586747438            0.000603628672           
       0.840961             0.00667501747             0.00067295804           
       0.843602              0.0058351773            0.000592681572           
       0.846242             0.00628841771            0.000636992066           
       0.848883             0.00520098159            0.000563531978           
       0.851523             0.00684455402            0.000651314996           
       0.854163             0.00680462458            0.000641867759           
       0.856804              0.0070348299            0.000635935876           
       0.859444              0.0068386477            0.000631513988           
       0.862085             0.00664551879             0.00061347729           
       0.864725             0.00647068921            0.000603131392           
       0.867365             0.00784001018            0.000659133825           
       0.870006             0.00702516431            0.000632646323           
       0.872646             0.00565314174            0.000542816726           
       0.875286              0.0069123265            0.000620685607           
       0.877927             0.00624795047            0.000565000013           
       0.880567             0.00661164235            0.000592566097           
       0.883208             0.00607555328            0.000551630048           
       0.885848             0.00775927918            0.000639565153           
       0.888488             0.00636582753            0.000550807734           
       0.891129             0.00748800786            0.000627960505           
       0.893769             0.00660351461            0.000557420249           
       0.896410             0.00607107224            0.000550939242           
       0.899050             0.00736282377            0.000585003522           
       0.901690             0.00750717883            0.000603040751           
       0.904331              0.0074449365              0.0005795692           
       0.906971             0.00708820497            0.000583946747           
       0.909611             0.00717933262            0.000564082102           
       0.912252             0.00638732014            0.000541278364           
       0.914892              0.0072677447            0.000562754906           
       0.917533             0.00673407811            0.000553922548           
       0.920173             0.00768989666            0.000567807894           
       0.922813             0.00796545628            0.000603907207           
       0.925454             0.00713711274            0.000542524819           
       0.928094             0.00657730921            0.000531992914           
       0.930734             0.00713027411             0.00054068511           
       0.933375             0.00748637949            0.000565832553           
       0.936015              0.0077798793            0.000551908626           
       0.938656             0.00622345186            0.000514329533           
       0.941296             0.00688574857            0.000521527333           
       0.943936             0.00663768247            0.000521268723           
       0.946577             0.00664632191              0.0005023406           
       0.949217                0.00677392            0.000525049975           
       0.951858               0.006844993            0.000498970268           
       0.954498             0.00692493574            0.000527994884           
       0.957138             0.00644305237             0.00048950609           
       0.959779             0.00750954176            0.000540027464           
       0.962419             0.00748624653            0.000519075094           
       0.965059             0.00698085029            0.000515485237           
       0.967700             0.00747523028            0.000516176339           
       0.970340             0.00694762522            0.000511610231           
       0.972981             0.00688615265            0.000491784189           
       0.975621             0.00667604946            0.000494362452           
       0.978261             0.00767154435            0.000505629679           
       0.980902             0.00784657569            0.000535714027           
       0.983542             0.00734692452            0.000503283322           
       0.986182             0.00755126833            0.000516953768           
       0.988823             0.00721574657            0.000489033461           
       0.991463             0.00783100929              0.0005216245           
       0.994104             0.00810470035            0.000512774319           
       0.996744             0.00733444545            0.000503618341           
       0.999384             0.00708663279            0.000478235481           
       1.002025             0.00709451602            0.000491824266           
       1.004665             0.00697438601            0.000467667682           
       1.007306             0.00743857326            0.000499163769           
       1.009946             0.00733927842            0.000476747517           
       1.012586              0.0072342392            0.000486939019           
       1.015227             0.00743417603            0.000478680394           
       1.017867              0.0067292628            0.000468471752           
       1.020507              0.0084277167            0.000504533093           
       1.023148             0.00668804402            0.000454881674           
       1.025788             0.00749483639            0.000476606506           
       1.028429             0.00744273523            0.000485329726           
       1.031069             0.00805616861              0.0004864792           
       1.033709             0.00761928096            0.000482189396           
       1.036350               0.007873347             0.00047730978           
       1.038990             0.00835848651            0.000503936747           
       1.041630             0.00745354222            0.000466720591           
       1.044271             0.00768631299             0.00047400552           
       1.046911             0.00778179109            0.000468078976           
       1.049552             0.00817130492            0.000496936149           
       1.052192             0.00805134881            0.000471093247           
       1.054832             0.00759252622            0.000466369768           
       1.057473             0.00715589183            0.000447029309           
       1.060113             0.00759612346            0.000465562171           
       1.062754              0.0076214862            0.000461181014           
       1.065394             0.00817252895            0.000472537478           
       1.068034             0.00838429116            0.000476767411           
       1.070675              0.0071943594            0.000449409016           
       1.073315             0.00768095415            0.000450164481           
       1.075955             0.00777381413            0.000460472848           
       1.078596             0.00760320705            0.000454491827           
       1.081236             0.00817217511            0.000464201732           
       1.083877             0.00856963525            0.000490205671           
       1.086517             0.00703795737            0.000434193507           
       1.089157             0.00814573125            0.000470541096           
       1.091798             0.00840511492            0.000467847111           
       1.094438              0.0077685176            0.000456929494           
       1.097078             0.00835705291            0.000461743193           
       1.099719             0.00909513993             0.00049404772           
       1.102359              0.0082159237            0.000444824611           
       1.105000             0.00903011961            0.000484711419           
       1.107640              0.0077854833            0.000435398038           
       1.110280             0.00885875912            0.000473740271           
       1.112921             0.00810465352            0.000444929147           
       1.115561             0.00829003399            0.000455699537           
       1.118202             0.00845120606            0.000446678917           
       1.120842             0.00796299253            0.000447246281           
       1.123482             0.00828472509            0.000443395016           
       1.126123              0.0088357114            0.000460759676           
       1.128763             0.00839318692            0.000446845835           
       1.131403             0.00785132268             0.00043150917           
       1.134044             0.00858233432             0.00045036733           
       1.136684             0.00779845834            0.000432533884           
       1.139325             0.00806031076            0.000427345866           
       1.141965              0.0079708675            0.000430526098           
       1.144605               0.008516948            0.000447643421           
       1.147246             0.00850420961            0.000438837038           
       1.149886             0.00842653503            0.000439935018           
       1.152527             0.00860124764            0.000444917715           
       1.155167             0.00832825492            0.000431644744           
       1.157807             0.00758963006            0.000412343209           
       1.160448             0.00737052563            0.000411907443           
       1.163088              0.0088226821            0.000433942364           
       1.165728             0.00807857027            0.000432355215           
       1.168369             0.00918136805            0.000444467027           
       1.171009             0.00801628756            0.000418753378           
       1.173650             0.00876627657             0.00043474657           
       1.176290               0.009068415            0.000447363438           
       1.178930             0.00859875155             0.00042337879           
       1.181571             0.00904093686            0.000448307624           
       1.184211             0.00925050231            0.000439778037           
       1.186851             0.00925570885            0.000443957917           
       1.189492             0.00859993497               0.000430318           
       1.192132             0.00864321626            0.000425010356           
       1.194773             0.00883282363            0.000427054734           
       1.197413              0.0088773639            0.000431622537           
       1.200053             0.00836777861            0.000416414738           
       1.202694             0.00883448153            0.000424645396           
       1.205334             0.00935571024            0.000441769783           
       1.207975             0.00904548451            0.000425872561           
       1.210615             0.00945994779            0.000444729582           
       1.213255             0.00872614043            0.000415832715           
       1.215896             0.00969697084            0.000446663677           
       1.218536              0.0092906666            0.000424613337           
       1.221176             0.00885607078            0.000424458312           
       1.223817             0.00971814005            0.000435372323           
       1.226457              0.0101869498            0.000451411735           
       1.229098             0.00916169645            0.000421599036           
       1.231738             0.00958835942            0.000437377755           
       1.234378              0.0103195169            0.000444931001           
       1.237019              0.0091673385            0.000422740201           
       1.239659             0.00924117163            0.000424209503           
       1.242299              0.0105880137            0.000451750011           
       1.244940             0.00968113162            0.000427307584           
       1.247580             0.00992278654            0.000434517975           
       1.250221             0.00957951859            0.000433905039           
       1.252861              0.0097754209            0.000421989058           
       1.255501              0.0090070957            0.000416502742           
       1.258142             0.00929570974            0.000414758003           
       1.260782              0.0096002775            0.000426258979           
       1.263423             0.00953187171            0.000416322816           
       1.266063             0.00945012657            0.000422260133           
       1.268703             0.00949656539            0.000412631418           
       1.271344             0.00964793965            0.000424965529           
       1.273984              0.0098005533            0.000421627153           
       1.276624             0.00980352142            0.000419118066           
       1.279265             0.00955924755            0.000414767153           
       1.281905             0.00944767609            0.000414881139           
       1.284546             0.00992649406            0.000420618738           
       1.287186              0.0106619633            0.000436341266           
       1.289826              0.0100009911            0.000424791197           
       1.292467              0.0102563641             0.00042250258           
       1.295107             0.00988201196            0.000422030381           
       1.297747              0.0100211348            0.000413843448           
       1.300388               0.010196008            0.000428158209           
       1.303028             0.00970389007            0.000407076025           
       1.305669              0.0101797694            0.000422324911           
       1.308309              0.0110655105            0.000433694384           
       1.310949              0.0106121872            0.000430011525           
       1.313590              0.0105470518            0.000422055517           
       1.316230             0.00979377358            0.000414025289           
       1.318871             0.00990598062            0.000407407257           
       1.321511             0.00990670486             0.00040946387           
       1.324151              0.0106838333            0.000426901063           
       1.326792              0.0093558479            0.000396253314           
       1.329432              0.0101529664            0.000414941934           
       1.332072               0.011370516            0.000431587896           
       1.334713              0.0102889493            0.000415640277           
       1.337353             0.00971792211            0.000397728252           
       1.339994             0.00995285004            0.000408240157           
       1.342634              0.0103581739            0.000407094122           
       1.345274              0.0119142118            0.000442309994           
       1.347915              0.0105500115            0.000417324256           
       1.350555              0.0113442152             0.00043105667           
       1.353195             0.00970559181             0.00039108344           
       1.355836              0.0118815345            0.000440872038           
       1.358476              0.0103023765            0.000409375487           
       1.361117              0.0103196475            0.000399440316           
       1.363757             0.00986650304            0.000403515824           
       1.366397              0.0107460751            0.000408004102           
       1.369038              0.0106439275             0.00041461892           
       1.371678              0.0100556351            0.000394860628           
       1.374319              0.0108067025            0.000412587937           
       1.376959              0.0107278746            0.000405421089           
       1.379599               0.010913902            0.000416891775           
       1.382240              0.0107669516            0.000406210864           
       1.384880              0.0104297294            0.000404707688           
       1.387520              0.0112726571            0.000415824879           
       1.390161              0.0106070364            0.000402265095           
       1.392801              0.0107749866            0.000407853772           
       1.395442              0.0114904215            0.000416812488           
       1.398082              0.0101294223            0.000392689008           
       1.400722              0.0103294004            0.000394754921           
       1.403363              0.0101717448            0.000395365985           
       1.406003              0.0111126465            0.000403100226           
       1.408644              0.0110928758            0.000411196529           
       1.411284              0.0111513701            0.000410018237           
       1.413924              0.0100806278            0.000385028698           
       1.416565              0.0100473092            0.000383940002           
       1.419205              0.0105018459            0.000396395196           
       1.421845              0.0101076472            0.000383995512           
       1.424486              0.0114455203            0.000410423253           
       1.427126             0.00998867328            0.000383172199           
       1.429767              0.0109535536            0.000395069125           
       1.432407              0.0101219104            0.000389342468           
       1.435047              0.0105052968            0.000384727978           
       1.437688              0.0108597714            0.000399827265           
       1.440328              0.0103463034             0.00038269781           
       1.442968              0.0104417673            0.000389781358           
       1.445609              0.0101772275            0.000378482752           
       1.448249              0.0102014514            0.000381383047           
       1.450890              0.0108175475            0.000389929104           
       1.453530              0.0103551563            0.000384330272           
       1.456170              0.0105054435            0.000386237649           
       1.458811              0.0104603851            0.000382342233           
       1.461451              0.0101623719            0.000379626701           
       1.464092              0.0104831381            0.000382210551           
       1.466732              0.0106656273            0.000383158308           
       1.469372               0.010715406            0.000382870872           
       1.472013              0.0103382234            0.000382800243           
       1.474653              0.0100174778            0.000367510997           
       1.477293              0.0106490622            0.000385297473           
       1.479934              0.0101751204            0.000372684025           
       1.482574              0.0103539201            0.000375016395           
       1.485215              0.0102711029            0.000374475368           
       1.487855              0.0103458012            0.000375756979           
       1.490495              0.0101894031            0.000372103369           
       1.493136              0.0107684592            0.000377513898           
       1.495776              0.0102776974            0.000375241261           
       1.498416              0.0101002341            0.000364760877           
       1.501057             0.00996589253            0.000365443432           
       1.503697             0.00982049598            0.000359279929           
       1.506338             0.00921609932             0.00035060812           
       1.508978              0.0105791721            0.000373424163           
       1.511618             0.00986836999            0.000360478818           
       1.514259              0.0108630113            0.000378892322           
       1.516899              0.0100073603            0.000363833475           
       1.519540              0.0100734698            0.000363007541           
       1.522180              0.0105281426            0.000366474888           
       1.524820             0.00991357312            0.000362800372           
       1.527461              0.0105347678             0.00036572094           
       1.530101              0.0106049155              0.0003707304           
       1.532741             0.00994975159            0.000357394772           
       1.535382              0.0115725872            0.000386289294           
       1.538022              0.0167588361            0.000460744143           
       1.540663              0.0119846721            0.000393311113           
       1.543303             0.00957914184            0.000347254631           
       1.545943              0.0100642841            0.000357934308           
       1.548584              0.0101768386            0.000361846878           
       1.551224              0.0102631006            0.000354061264           
       1.553864              0.0103722219            0.000365236872           
       1.556505              0.0101125922             0.00035508906           
       1.559145             0.00992211785            0.000352542174           
       1.561786             0.00959678836            0.000345143667           
       1.564426             0.00959787019            0.000344851353           
       1.567066              0.0096016133            0.000342226459           
       1.569707             0.00964983194            0.000348051697           
       1.572347             0.00982038817            0.000346558621           
       1.574988             0.00925172886             0.00033504438           
       1.577628             0.00943228946            0.000345914723           
       1.580268             0.00992253221            0.000342546565           
       1.582909             0.00967573691            0.000344586631           
       1.585549             0.00935961375            0.000335743536           
       1.588189              0.0091944518            0.000336484733           
       1.590830             0.00940769331            0.000334521751           
       1.593470             0.00918314611            0.000333204381           
       1.596111             0.00953536846            0.000336600503           
       1.598751             0.00864434444            0.000323764478           
       1.601391             0.00906692093            0.000329463631           
       1.604032             0.00910898421            0.000327469296           
       1.606672             0.00954820803            0.000342019362           
       1.609312             0.00862954675            0.000315475098           
       1.611953             0.00897564844            0.000326401983           
       1.614593             0.00861724972            0.000317386508           
       1.617234             0.00852230046            0.000317422231           
       1.619874             0.00902712694            0.000322845146           
       1.622514             0.00910399556            0.000327084214           
       1.625155             0.00875898074            0.000320033169           
       1.627795             0.00848412745            0.000311789053           
       1.630436             0.00903006766            0.000324897416           
       1.633076              0.0088267692            0.000319587303           
       1.635716             0.00919478186            0.000325612696           
       1.638357             0.00808717457            0.000304074433           
       1.640997             0.00877698878            0.000319254775           
       1.643637             0.00899345739            0.000317166805           
       1.646278             0.00848496787            0.000312681364           
       1.648918             0.00908531452            0.000319382803           
       1.651559             0.00823325817            0.000307860412           
       1.654199               0.008534818            0.000309151196           
       1.656839             0.00837142083            0.000306095142           
       1.659480              0.0080173996            0.000302191194           
       1.662120             0.00868953534            0.000310387533           
       1.664761             0.00812975504            0.000303474095           
       1.667401             0.00887864987            0.000314189425           
       1.670041             0.00879024143            0.000312979009           
       1.672682               0.008176656            0.000299017552           
       1.675322             0.00824951545            0.000305657235           
       1.677962             0.00861658279            0.000306179493           
       1.680603             0.00860405277            0.000308672144           
       1.683243             0.00899935353            0.000313347931           
       1.685884             0.00841702572            0.000304193556           
       1.688524             0.00851140241            0.000305033571           
       1.691164             0.00847625735            0.000303620748           
       1.693805             0.00842847319            0.000305212058           
       1.696445             0.00853780879            0.000302921776           
       1.699085             0.00816908916            0.000297491472           
       1.701726             0.00845953207            0.000298795954           
       1.704366             0.00830685347            0.000303291795           
       1.707007             0.00841078787            0.000298670852           
       1.709647             0.00870661273            0.000307653599           
       1.712287             0.00823574896            0.000294218312           
       1.714928              0.0083977407            0.000300085178           
       1.717568             0.00823025324            0.000294345794           
       1.720209             0.00845155691            0.000300118776           
       1.722849             0.00845324723             0.00030063004           
       1.725489             0.00873983584            0.000300811416           
       1.728130             0.00889953276            0.000309726509           
       1.730770             0.00819986997            0.000291018051           
       1.733410             0.00818711486            0.000294609034           
       1.736051             0.00884257226            0.000301422717           
       1.738691             0.00795481747            0.000288809995           
       1.741332             0.00821309735            0.000291654644           
       1.743972             0.00793430427            0.000286768134           
       1.746612             0.00819705927             0.00029154487           
       1.749253             0.00874388845             0.00030241371           
       1.751893             0.00866609837            0.000299259252           
       1.754533             0.00829091492            0.000288692244           
       1.757174             0.00809678225            0.000290626352           
       1.759814             0.00830551728            0.000289861182           
       1.762455             0.00809123906            0.000288533287           
       1.765095             0.00854144874            0.000292288708           
       1.767735             0.00839492407            0.000294694708           
       1.770376             0.00824240698            0.000287577134           
       1.773016             0.00826920009            0.000288498755           
       1.775657             0.00850734209            0.000293222979           
       1.778297             0.00832129725            0.000291417728           
       1.780937             0.00817339445             0.00028746854           
       1.783578              0.0079002171              0.0002812966           
       1.786218             0.00807767067            0.000288977207           
       1.788858             0.00808322389            0.000281894344           
       1.791499             0.00844084381            0.000293371715           
       1.794139             0.00823228387            0.000284374625           
       1.796780             0.00822869676            0.000286002005           
       1.799420             0.00904862698            0.000299530888           
       1.802060             0.00874185137            0.000290788551           
       1.804701             0.00858194887            0.000291982108           
       1.807341             0.00884861919            0.000293619032           
       1.809981             0.00875014645            0.000293919795           
       1.812622              0.0090965932            0.000298049187           
       1.815262             0.00899599207            0.000297453334           
       1.817903             0.00897383249            0.000293416388           
       1.820543             0.00879769138            0.000294113359           
       1.823183             0.00840867375             0.00028310688           
       1.825824             0.00869378796            0.000292195573           
       1.828464             0.00844997339            0.000287185322           
       1.831105               0.008799402             0.00029419769           
       1.833745             0.00739891508            0.000269603508           
       1.836385             0.00836720749            0.000285587622           
       1.839026             0.00860155968              0.0002939122           
       1.841666             0.00810828031            0.000281654872           
       1.844306             0.00846058357            0.000291340962           
       1.846947             0.00807324738            0.000280936602           
       1.849587             0.00877151736            0.000296805704           
       1.852228             0.00846308539            0.000288439954           
       1.854868             0.00829073644            0.000290723885           
       1.857508             0.00842465246            0.000287651087           
       1.860149             0.00866661235            0.000294091116           
       1.862789              0.0079988061            0.000283783595           
       1.865429             0.00894281524            0.000300967225           
       1.868070             0.00872354157            0.000296227394           
       1.870710             0.00833523049            0.000290347925           
       1.873351             0.00845468334            0.000294287866           
       1.875991             0.00842085951            0.000295287321           
       1.878631             0.00827830354            0.000290055963           
       1.881272             0.00869147245            0.000296509964           
       1.883912             0.00829299373            0.000293029922           
       1.886553             0.00851371677            0.000293342392           
       1.889193              0.0080811479            0.000289094488           
       1.891833             0.00838960285            0.000291208085           
       1.894474             0.00809443279            0.000288303307           
       1.897114             0.00803017107             0.00028492922           
       1.899754              0.0085435341            0.000297191791           
       1.902395             0.00893140293            0.000303927815           
       1.905035             0.00875222528             0.00029968468           
       1.907676             0.00823332983            0.000291003126           
       1.910316             0.00844280716             0.00029656075           
       1.912956             0.00801124466            0.000288870355           
       1.915597             0.00867232761            0.000297419444           
       1.918237             0.00842591818            0.000297613827           
       1.920878               0.008467167            0.000293061497           
       1.923518               0.008040704            0.000293173502           
       1.926158             0.00850169559            0.000294533261           
       1.928799             0.00791415238            0.000287949862           
       1.931439             0.00805564223            0.000288184307           
       1.934079             0.00808154678            0.000291570386           
       1.936720             0.00800278055            0.000288438296           
       1.939360             0.00812313636            0.000293399891           
       1.942001             0.00790992763            0.000288410047           
       1.944641              0.0078989107            0.000286967201           
       1.947281             0.00823637529            0.000294448872           
       1.949922              0.0076852386             0.00028478279           
       1.952562             0.00802053998            0.000293432362           
       1.955202             0.00882440891            0.000300053062           
       1.957843             0.00802012535            0.000295139504           
       1.960483              0.0077329692            0.000285185039           
       1.963124             0.00749617888            0.000280576566           
       1.965764             0.00818325705             0.00029325793           
       1.968404             0.00757139339            0.000287125703           
       1.971045             0.00738436991            0.000276449354           
       1.973685             0.00779371841            0.000289308382           
       1.976326              0.0075905665            0.000284268115           
       1.978966             0.00803539101            0.000293862921           
       1.981606              0.0078922618            0.000288154004           
       1.984247             0.00772136429            0.000287502374           
       1.986887              0.0076824522            0.000289459066           
       1.989527             0.00713828543            0.000273206335           
       1.992168             0.00723060133            0.000281601419           
       1.994808             0.00809666016            0.000294523172           
       1.997449               0.007852125            0.000289616143           
       2.000089             0.00780620392            0.000287067664           
       2.002729             0.00785471061            0.000294556579           
       2.005370             0.00744742962            0.000281366027           
       2.008010             0.00750093882            0.000286124013           
       2.010650             0.00783368474             0.00029156499           
       2.013291             0.00788813983            0.000294241949           
       2.015931             0.00745413608              0.0002839857           
       2.018572             0.00779864632            0.000294331928           
       2.021212             0.00769740511            0.000289790852           
       2.023852             0.00753276303            0.000288180853           
       2.026493             0.00828770979            0.000300952413           
       2.029133             0.00808081298            0.000294905175           
       2.031774             0.00783237968            0.000293152151           
       2.034414             0.00743329903            0.000283881744           
       2.037054             0.00772587038            0.000293063853           
       2.039695             0.00751139722            0.000283275534           
       2.042335             0.00774364202            0.000292517213           
       2.044975             0.00722106991            0.000280217133           
       2.047616             0.00768531562            0.000290323216           
       2.050256             0.00761488955            0.000285590559           
       2.052897             0.00785353825            0.000298621074           
       2.055537             0.00741388574            0.000282231676           
       2.058177             0.00725627449            0.000281681975           
       2.060818             0.00792739574            0.000295304006           
       2.063458             0.00750685448            0.000287760264           
       2.066098             0.00724011101            0.000281347364           
       2.068739             0.00759035053            0.000291075704           
       2.071379             0.00718547712             0.00027902396           
       2.074020             0.00742640612            0.000287547669           
       2.076660             0.00798570326            0.000296157824           
       2.079300             0.00717573057            0.000280696349           
       2.081941             0.00757709571            0.000290193296           
       2.084581              0.0073065463            0.000285176437           
       2.087222             0.00711165045            0.000281538975           
       2.089862             0.00710312829            0.000277863234           
       2.092502             0.00768311796            0.000294235645           
       2.095143             0.00725308196             0.00028179687           
       2.097783             0.00779444943            0.000296569437           
       2.100423             0.00707602406            0.000277153281           
       2.103064             0.00735305289            0.000287404552           
       2.105704             0.00736830698            0.000286601869           
       2.108345             0.00741430413             0.00028881493           
       2.110985             0.00726942372            0.000281962347           
       2.113625             0.00716199959            0.000284280811           
       2.116266             0.00760543418            0.000290781002           
       2.118906             0.00730092541            0.000284693196           
       2.121546             0.00771746791            0.000292469499           
       2.124187             0.00768901897            0.000295967808           
       2.126827             0.00727083571            0.000283293256           
       2.129468             0.00746694945             0.00029008438           
       2.132108             0.00723252181            0.000284903654           
       2.134748             0.00754971593            0.000289987077           
       2.137389             0.00716727193            0.000284913235           
       2.140029               0.007308069            0.000286999446           
       2.142670             0.00703608931            0.000282068415           
       2.145310             0.00692268301            0.000280854938           
       2.147950             0.00764126396             0.00029621232           
       2.150591             0.00770610438            0.000294738394           
       2.153231             0.00714649013            0.000288031111           
       2.155871              0.0076590616            0.000293875155           
       2.158512             0.00748686322            0.000295788326           
       2.161152             0.00725614078            0.000283921011           
       2.163793             0.00710367798             0.00028549336           
       2.166433             0.00707201253            0.000279916659           
       2.169073             0.00774560032            0.000299783678           
       2.171714              0.0072301459            0.000283740354           
       2.174354              0.0073622026            0.000290695102           
       2.176995             0.00721159245            0.000285319762           
       2.179635             0.00748277112            0.000296135035           
       2.182275              0.0073669432            0.000288001265           
       2.184916             0.00733211694            0.000293392177           
       2.187556             0.00763628052            0.000294595515           
       2.190196             0.00755886217            0.000297705263           
       2.192837             0.00739938548            0.000291322565           
       2.195477             0.00716897016            0.000289516883           
       2.198118             0.00694018083            0.000279600612           
       2.200758             0.00745530157            0.000294291545           
       2.203398             0.00744166937            0.000289146455           
       2.206039             0.00689834337            0.000282646102           
       2.208679             0.00732150322             0.00028833575           
       2.211319             0.00721721321            0.000287622295           
       2.213960             0.00727836663            0.000285767225           
       2.216600             0.00725211641            0.000291972407           
       2.219241             0.00725557857            0.000287796278           
       2.221881             0.00701723682            0.000284505123           
       2.224521             0.00702777423            0.000283731113           
       2.227162             0.00699439111            0.000287502361           
       2.229802             0.00724358781            0.000287829859           
       2.232443             0.00681075951            0.000280195258           
       2.235083             0.00712657977             0.00028489943           
       2.237723             0.00753031375            0.000295102613           
       2.240364              0.0074080383            0.000291208129           
       2.243004             0.00739497403            0.000291830229           
       2.245644             0.00739709267            0.000291198028           
       2.248285             0.00723469204             0.00028985318           
       2.250925             0.00748540077            0.000293453956           
       2.253566             0.00749936356            0.000294445746           
       2.256206             0.00693717081            0.000282345851           
       2.258846             0.00712558371            0.000286156959           
       2.261487             0.00704658515            0.000285058544           
       2.264127             0.00726544147            0.000292190158           
       2.266767              0.0068507182            0.000279142393           
       2.269408             0.00697602627            0.000285029258           
       2.272048             0.00729877517            0.000289754795           
       2.274689             0.00763187325            0.000297457983           
       2.277329             0.00719625679            0.000288460206           
       2.279969             0.00731757142            0.000291763124           
       2.282610             0.00687696076            0.000280084544           
       2.285250             0.00641136702            0.000274690361           
       2.287891             0.00700781789            0.000284285518           
       2.290531             0.00689184149            0.000283313556           
       2.293171             0.00729769022            0.000291521785           
       2.295812              0.0071311055            0.000286645776           
       2.298452             0.00693637714            0.000284515631           
       2.301092             0.00724268119            0.000292576519           
       2.303733             0.00702348219            0.000282416339           
       2.306373             0.00711490251            0.000291200885           
       2.309014             0.00755500546            0.000294289651           
       2.311654             0.00728369142            0.000291699438           
       2.314294             0.00679910892            0.000281213822           
       2.316935             0.00703703126            0.000287222513           
       2.319575             0.00697334527              0.0002848492           
       2.322215             0.00714766302            0.000292496974           
       2.324856             0.00738576148             0.00028986217           
       2.327496             0.00692156301            0.000287482399           
       2.330137             0.00702561748            0.000284293658           
       2.332777             0.00733074723            0.000293577802           
       2.335417             0.00744706101             0.00029500937           
       2.338058             0.00727818126            0.000292812423           
       2.340698             0.00689075882            0.000282107353           
       2.343339             0.00768118901            0.000303532051           
       2.345979              0.0072795702            0.000289593855           
       2.348619             0.00735662096            0.000296620196           
       2.351260             0.00729864832            0.000289168729           
       2.353900             0.00721277702            0.000293551791           
       2.356540             0.00718755583             0.00028900788           
       2.359181             0.00701969073            0.000289432317           
       2.361821             0.00688929456             0.00028323788           
       2.364462             0.00721644683             0.00029472975           
       2.367102             0.00674187014             0.00027663589           
       2.369742             0.00763782591            0.000304996298           
       2.372383             0.00713270156            0.000286146506           
       2.375023             0.00706346806            0.000292173421           
       2.377663             0.00715401894            0.000287791709           
       2.380304              0.0067486037            0.000283395669           
       2.382944             0.00672060931            0.000280041126           
       2.385585              0.0069237405            0.000286928887           
       2.388225              0.0068883082            0.000284900675           
       2.390865             0.00731904479            0.000294425268           
       2.393506             0.00679196557            0.000282318644           
       2.396146             0.00710802022            0.000289769878           
       2.398787             0.00720674702            0.000292030532           
       2.401427             0.00672078956            0.000280300393           
       2.404067             0.00693131166            0.000289001332           
       2.406708             0.00682836406            0.000283241714           
       2.409348             0.00696883342            0.000288292784           
       2.411988             0.00767683099             0.00030161676           
       2.414629              0.0075374793            0.000299844586           
       2.417269             0.00721035636            0.000290602588           
       2.419910             0.00748852426            0.000299889859           
       2.422550             0.00690849919            0.000283669385           
       2.425190             0.00752466817             0.00030537056           
       2.427831             0.00725439758            0.000288559809           
       2.430471             0.00696201744            0.000290948253           
       2.433112             0.00694046197            0.000283642859           
       2.435752             0.00710000382            0.000294147224           
       2.438392             0.00720831905            0.000291400803           
       2.441033             0.00702284714            0.000288945483           
       2.443673             0.00722938662            0.000293946444           
       2.446313             0.00729160497            0.000293635775           
       2.448954             0.00695611398             0.00028931764           
       2.451594             0.00721993689            0.000292984455           
       2.454235             0.00671590658            0.000281693456           
       2.456875             0.00698400861            0.000288716172           
       2.459515             0.00827003145            0.000314659919           
       2.462156             0.00765272379            0.000301128137           
       2.464796             0.00794782559            0.000312292358           
       2.467436             0.00777164722            0.000302336404           
       2.470077             0.00850410686            0.000320624037           
       2.472717             0.00802734342            0.000307609128           
       2.475358             0.00768988482            0.000304484991           
       2.477998             0.00712709279              0.0002915674           
       2.480638             0.00724026831            0.000294587317           
       2.483279             0.00769382969            0.000304978851           
       2.485919             0.00762873369            0.000301559535           
       2.488560             0.00763564696            0.000302947556           
       2.491200             0.00700832534            0.000289838331           
       2.493840             0.00688484356            0.000285709528           
       2.496481              0.0077001315            0.000306104098           
       2.499121             0.00716245454            0.000291292794           
       2.501761             0.00656035856            0.000283514477           
       2.504402             0.00724997095            0.000292331731           
       2.507042             0.00728549106            0.000297918376           
       2.509683             0.00710257566            0.000291475883           
       2.512323             0.00701287794            0.000290763598           
       2.514963              0.0108621558            0.000362587454           
       2.517604              0.0200013539            0.000490095699           
       2.520244              0.0488378354            0.000765992193           
       2.522884               0.012207444            0.000382126765           
       2.525525             0.00944439161            0.000338871335           
       2.528165              0.0168840947            0.000451023039           
       2.530806              0.0203194877            0.000492927355           
       2.533446              0.0102056236            0.000352442875           
       2.536086              0.0133545451            0.000399781976           
       2.538727              0.0139755974            0.000411594128           
       2.541367             0.00989787186            0.000345391202           
       2.544008              0.0118441568             0.00037814658           
       2.546648             0.00774582022            0.000306150295           
       2.549288             0.00778082309            0.000306885422           
       2.551929              0.0079539833             0.00031130637           
       2.554569             0.00719740361            0.000293424702           
       2.557209             0.00761990556            0.000305325458           
       2.559850             0.00700028458            0.000289283136           
       2.562490             0.00719704274            0.000295456149           
       2.565131             0.00705968549            0.000293132272           
       2.567771             0.00734103611            0.000297332063           
       2.570411             0.00719192246            0.000297878093           
       2.573052             0.00762035191            0.000303043018           
       2.575692             0.00707132871            0.000292696699           
       2.578332             0.00709392814            0.000292298021           
       2.580973               0.007882167            0.000310607809           
       2.583613              0.0072917055             0.00029602495           
       2.586254             0.00720893612            0.000296944043           
       2.588894             0.00718673021            0.000294904792           
       2.591534             0.00699640417            0.000291508821           
       2.594175             0.00702550041            0.000293810002           
       2.596815             0.00700819329            0.000290719542           
       2.599456             0.00675756378            0.000287809478           
       2.602096             0.00728755531            0.000297764322           
       2.604736             0.00703196031             0.00029326312           
       2.607377             0.00715569944            0.000294700797           
       2.610017              0.0066436115            0.000283860929           
       2.612657             0.00729433346            0.000299538988           
       2.615298             0.00716418348            0.000293950928           
       2.617938             0.00733675173            0.000300072458           
       2.620579             0.00691474631            0.000288935023           
       2.623219             0.00732462487            0.000302131976           
       2.625859             0.00720026188            0.000294507427           
       2.628500             0.00695372942            0.000294047202           
       2.631140              0.0070018647            0.000289859875           
       2.633780             0.00688958328            0.000291219404           
       2.636421             0.00735817354            0.000298221406           
       2.639061             0.00710335071            0.000296515384           
       2.641702             0.00741674789             0.00029974694           
       2.644342              0.0066863306            0.000286939242           
       2.646982             0.00676668092            0.000288413119           
       2.649623             0.00703382528            0.000295813992           
       2.652263             0.00739082554            0.000300815196           
       2.654904             0.00715633442            0.000297611934           
       2.657544              0.0069496719            0.000291219766           
       2.660184             0.00785002884            0.000309905641           
       2.662825             0.00724921891            0.000298523955           
       2.665465             0.00686404947            0.000291022299           
       2.668105              0.0070075558            0.000294165185           
       2.670746             0.00673577676            0.000285964068           
       2.673386             0.00721275819            0.000299502277           
       2.676027             0.00704943431            0.000293574846           
       2.678667             0.00733334844            0.000300984956           
       2.681307              0.0071083222            0.000294000872           
       2.683948             0.00739821057            0.000302914618           
       2.686588              0.0074890833            0.000301972553           
       2.689229             0.00759233437            0.000306775829           
       2.691869             0.00736986966            0.000299231063           
       2.694509             0.00722566198            0.000300352303           
       2.697150             0.00734055451            0.000297899083           
       2.699790             0.00688353079            0.000294468752           
       2.702430             0.00678863181            0.000286825108           
       2.705071             0.00684638993            0.000291984819           
       2.707711             0.00691824999            0.000290602605           
       2.710352             0.00664658736            0.000286461106           
       2.712992             0.00702475737            0.000295455237           
       2.715632             0.00641045497            0.000280635761           
       2.718273             0.00704719295            0.000295220186           
       2.720913             0.00716995706            0.000298277657           
       2.723553             0.00634551161            0.000279630167           
       2.726194             0.00650553854            0.000284499705           
       2.728834             0.00659346557            0.000283869824           
       2.731475              0.0069486573            0.000293962496           
       2.734115             0.00668754043            0.000286667923           
       2.736755             0.00746467356            0.000304868628           
       2.739396             0.00678461008            0.000289112679           
       2.742036             0.00653507389            0.000285682849           
       2.744677             0.00695724458            0.000295197075           
       2.747317             0.00731188799            0.000301157128           
       2.749957              0.0070902253            0.000298708538           
       2.752598             0.00675937993            0.000292534379           
       2.755238             0.00668633326            0.000290818289           
       2.757878             0.00684481356            0.000293406834           
       2.760519             0.00705827377            0.000294800873           
       2.763159             0.00756177006            0.000310095891           
       2.765800             0.00701165283            0.000293544948           
       2.768440             0.00692170181            0.000295498075           
       2.771080              0.0068433228            0.000291344219           
       2.773721             0.00650084286            0.000287443963           
       2.776361             0.00685322988            0.000291961987           
       2.779001             0.00686755359            0.000295339129           
       2.781642             0.00618388605            0.000278340975           
       2.784282             0.00601077187            0.000274513059           
       2.786923             0.00692044139            0.000292313721           
       2.789563             0.00718275549            0.000298400392           
       2.792203             0.00662267996            0.000288354317           
       2.794844             0.00676853394            0.000290185863           
       2.797484             0.00631419487            0.000280672217           
       2.800125             0.00636886383            0.000281520371           
       2.802765             0.00676169971             0.00029545004           
       2.805405             0.00671191061            0.000290111178           
       2.808046             0.00634535371            0.000286403305           
       2.810686             0.00653534152            0.000287562201           
       2.813326             0.00644050486            0.000288999982           
       2.815967             0.00707687933            0.000301032343           
       2.818607             0.00681463187            0.000298354963           
       2.821248             0.00715569968            0.000301917921           
       2.823888             0.00620403056            0.000285653239           
       2.826528             0.00658393281            0.000292513579           
       2.829169             0.00708777792             0.00030215987           
       2.831809             0.00647715442            0.000289104068           
       2.834449             0.00662928823             0.00028737438           
       2.837090             0.00656569414            0.000287713782           
       2.839730             0.00707119652            0.000296463791           
       2.842371             0.00637170062            0.000283379425           
       2.845011             0.00702304439            0.000296847679           
       2.847651             0.00688467399             0.00029444859           
       2.850292             0.00660667142            0.000286803539           
       2.852932             0.00734552675            0.000302958203           
       2.855573              0.0065990143            0.000289673224           
       2.858213             0.00642547654            0.000282631813           
       2.860853              0.0068102997            0.000293150092           
       2.863494             0.00687710095             0.00029529364           
       2.866134             0.00702078817            0.000302547594           
       2.868774             0.00778135716            0.000313638266           
       2.871415             0.00661373885            0.000292012985           
       2.874055             0.00685496462            0.000298763266           
       2.876696             0.00676715613            0.000294170638           
       2.879336             0.00657701396            0.000291933507           
       2.881976             0.00728742016            0.000307042775           
       2.884617             0.00643143892            0.000286844648           
       2.887257             0.00690666595            0.000295180846           
       2.889897             0.00603390345            0.000279063305           
       2.892538             0.00673180956            0.000292716908           
       2.895178             0.00662637755            0.000287454051           
       2.897819             0.00614387391            0.000279637472           
       2.900459             0.00658296449            0.000287061034           
       2.903099             0.00665718036            0.000290181936           
       2.905740             0.00644985469            0.000282439314           
       2.908380             0.00724656563            0.000303366444           
       2.911021              0.0067423014            0.000293177284           
       2.913661              0.0072265171            0.000300182198           
       2.916301             0.00686139907            0.000296661687           
       2.918942             0.00663150223            0.000287249483           
       2.921582              0.0072546321            0.000303594391           
       2.924222             0.00643264431            0.000284219914           
       2.926863             0.00712065107            0.000299827616           
       2.929503             0.00667481146            0.000293511955           
       2.932144             0.00656805664             0.00028638009           
       2.934784             0.00777590455            0.000312925951           
       2.937424             0.00747092583            0.000307295262           
       2.940065             0.00690179332             0.00029559899           
       2.942705             0.00648116792            0.000287320247           
       2.945346             0.00672320702            0.000290907614           
       2.947986              0.0065287206            0.000287671587           
       2.950626             0.00716036036            0.000302192485           
       2.953267             0.00901062609             0.00033539404           
       2.955907              0.0102818037            0.000363008386           
       2.958547             0.00864342269            0.000329419062           
       2.961188             0.00735581277            0.000306546272           
       2.963828             0.00767556422            0.000311363491           
       2.966469             0.00718562072            0.000301337258           
       2.969109             0.00693529998            0.000297556038           
       2.971749             0.00724568596            0.000303247071           
       2.974390             0.00793481493            0.000318211112           
       2.977030              0.0098317265            0.000353536714           
       2.979670             0.00995295797            0.000353416386           
       2.982311             0.00819507186            0.000323005547           
       2.984951             0.00782460582            0.000316436307           
       2.987592             0.00782070389            0.000315289617           
       2.990232             0.00744299373            0.000308367174           
       2.992872              0.0077221441            0.000311639218           
       2.995513             0.00851934675            0.000329901581           
       2.998153             0.00853800692            0.000332393395           
       3.000794              0.0110280727            0.000372269856           
       3.003434              0.0311638673            0.000632433036           
       3.006074              0.0606285133            0.000884962231           
       3.008715              0.0326573874            0.000654442494           
       3.011355              0.0242251427            0.000569517585           
       3.013995              0.0206433539            0.000523160676           
       3.016636              0.0317922064            0.000650457348           
       3.019276               0.150528824             0.00144918817           
       3.021917               0.251210041             0.00184036793           
       3.024557               0.133159716             0.00135059767           
       3.027197               0.117367972             0.00128926742           
       3.029838                0.11038988             0.00124437449           
       3.032478              0.0581101784            0.000908238605           
       3.035118              0.0399490012            0.000756931478           
       3.037759              0.0946559354             0.00116719051           
       3.040399               0.162213603             0.00154544207           
       3.043040               0.069001504             0.00101773836           
       3.045680              0.0569125487             0.00091006047           
       3.048320               0.103148647             0.00124483473           
       3.050961                0.27095244             0.00203779097           
       3.053601              0.0807736184             0.00110770218           
       3.056242              0.0475866618            0.000855680419           
       3.058882               0.206453969             0.00180881221           
       3.061522                0.18998176             0.00172313124           
       3.064163              0.0255424157            0.000632969699           
       3.066803              0.0208239438            0.000582574199           
       3.069443              0.0338962466            0.000738317911           
       3.072084               0.090606661             0.00121785768           
       3.074724              0.0277972446            0.000678538188           
       3.077365              0.0108109165            0.000422857104           
       3.080005             0.00981903497            0.000407461222           
       3.082645             0.00932928394            0.000399191887           
       3.085286             0.00821780186            0.000374726654           
       3.087926             0.00825584511            0.000377982738           
       3.090566             0.00788808236            0.000373273833           
       3.093207             0.00765454953            0.000363734029           
       3.095847             0.00747066825            0.000366870725           
       3.098488             0.00794379803            0.000377623698           
       3.101128             0.00722821099            0.000362176196           
       3.103768              0.0090093423             0.00040662201           
       3.106409              0.0102004053             0.00043556426           
       3.109049              0.0106689985            0.000448919473           
       3.111690               0.011945354            0.000473143373           
       3.114330              0.0110501798            0.000459118791           
       3.116970              0.0126578746            0.000498219603           
       3.119611              0.0172171294            0.000577278884           
       3.122251              0.0135507419             0.00051633202           
       3.124891              0.0104120599            0.000454798642           
       3.127532             0.00885850475            0.000427055884           
       3.130172             0.00784460018            0.000393606797           
       3.132813              0.0083157703            0.000413502959           
       3.135453             0.00898795003            0.000438958601           
       3.138093             0.00764524155            0.000395239203           
       3.140734             0.00637276481            0.000367567178           
       3.143374             0.00652231542            0.000377539482           
       3.146014             0.00621710592            0.000365924566           
       3.148655             0.00571691432            0.000353658549           
       3.151295             0.00603423334            0.000366216897           
       3.153936             0.00692138804            0.000398004857           
       3.156576             0.00701061114            0.000395963739           
       3.159216             0.00640160041             0.00038146906           
       3.161857             0.00667382425            0.000394273533           
       3.164497             0.00623558158            0.000389144375           
       3.167138             0.00646925386            0.000386859194           
       3.169778             0.00612162902            0.000383116958           
       3.172418             0.00634139775            0.000392211867           
       3.175059             0.00551996052            0.000370717331           
       3.177699             0.00547552088            0.000367763693           
       3.180339             0.00645662229            0.000402924356           
       3.182980             0.00552083701            0.000377613029           
       3.185620             0.00609132221             0.00040097785           
       3.188261             0.00553777979            0.000377315793           
       3.190901             0.00573652235            0.000389944212           
       3.193541             0.00540403028            0.000379721994           
       3.196182              0.0059065461            0.000405244461           
       3.198822             0.00495725622             0.00036675334           
       3.201463             0.00569525108            0.000398189674           
       3.204103             0.00608557045             0.00041708944           
       3.206743             0.00550662261            0.000400108319           
       3.209384             0.00567177941             0.00040425395           
       3.212024             0.00551370504             0.00039999673           
       3.214664             0.00578119745            0.000417391377           
       3.217305             0.00574384965            0.000425747392           
       3.219945              0.0059330817            0.000429085435           
       3.222586             0.00607706831            0.000436718441           
       3.225226             0.00642746415            0.000459250528           
       3.227866             0.00525481569            0.000418461437           
       3.230507             0.00576287846            0.000443453516           
       3.233147             0.00638608613            0.000459911301           
       3.235787             0.00694909406            0.000479886824           
       3.238428             0.00525326828            0.000424612455           
       3.241068             0.00635253582            0.000476397947           
       3.243709             0.00558432293            0.000444185467           
       3.246349             0.00538219672            0.000433632821           
       3.248989             0.00532940542            0.000441363745           
       3.251630             0.00511898996             0.00043447678           
       3.254270             0.00639360338            0.000500490532           
       3.256911             0.00562806267            0.000457806754           
       3.259551             0.00510226127            0.000445529348           
       3.262191             0.00549964586             0.00046680931           
       3.264832             0.00536982811             0.00046559504           
       3.267472             0.00555757159            0.000480381596           
       3.270112             0.00513971188            0.000463284516           
       3.272753             0.00547430142            0.000484002189           
       3.275393             0.00610147685            0.000513606079           
       3.278034             0.00576484764            0.000509406766           
       3.280674             0.00503003871            0.000477216079           
       3.283314             0.00491258026            0.000474217221           
       3.285955             0.00637497175            0.000550355547           
       3.288595             0.00534798819            0.000509703518           
       3.291235             0.00506787827            0.000499090392           
       3.293876             0.00543028523            0.000519686429           
       3.296516             0.00596278033            0.000555678228           
       3.299157              0.0054514941             0.00053935132           
       3.301797             0.00613616632            0.000572462514           
       3.304437             0.00561357436            0.000557806471           
       3.307078             0.00520123328            0.000542145176           
       3.309718             0.00515784853            0.000545268546           
       3.312359             0.00600813644            0.000600390446           
       3.314999             0.00558278563            0.000584819153           
       3.317639             0.00628149488            0.000627016677           
       3.320280             0.00512140989            0.000574431869           
       3.322920             0.00531731224            0.000594072637           
       3.325560             0.00484999299            0.000578322626           
       3.328201             0.00523710123            0.000603499771           
       3.330841             0.00536585719            0.000625730286           
       3.333482             0.00587467438            0.000663039009           
       3.336122             0.00580569758            0.000673461036           
       3.338762             0.00607125586             0.00069499022           
       3.341403             0.00474596841            0.000620172064           
       3.344043             0.00526621405            0.000678213395           
       3.346683             0.00379619143            0.000581666171           
       3.349324             0.00499968615            0.000677863918           
       3.351964             0.00407100349            0.000631341078           
       3.354605             0.00586426111            0.000766320087           
       3.357245             0.00621367097            0.000816546318           
       3.359885             0.00692335466            0.000862225891           
       3.362526             0.00432701011            0.000716495777           
       3.365166             0.00499622378            0.000760405683           
       3.367807             0.00484921363            0.000801922662           
       3.370447             0.00541596063            0.000847818569           
       3.373087             0.00588124175            0.000932429755           
       3.375728             0.00621138035            0.000950999407           
       3.378368             0.00517819812            0.000938275483           
       3.381008             0.00694728314             0.00107732099           
       3.383649             0.00698535667             0.00116909687           
       3.386289             0.00580699327             0.00106637741           
       3.388930              0.0053611287             0.00112528727           
       3.391570             0.00536558268             0.00112622666           
       3.394210             0.00591004793             0.00126647369           
       3.396851             0.00559895865             0.00133529549           
       3.399491             0.00578954739             0.00138247562           
       3.402131             0.00587575859             0.00164859869           
       3.404772             0.00491820024             0.00150894069           
       3.407412             0.00692745964             0.00222220321           
       3.410053             0.00442867655             0.00185012274           
       3.412693             0.00724695317             0.00334840757           
       3.415333             0.00638630246             0.00385130179           
