################################################################################
# EDF_DataBlockID                     0.Image.Psd
# EDF_BinarySize                      2105344
# EDF_HeaderSize                      2560
# ByteOrder                           LowByteFirst
# DataType                            FloatValue
# Dim_1                               512
# Dim_2                               1028
# Image                               0
# HeaderID                            EH:000000:000000:000000
# Size                                2105344
# Center_1                            304.9000
# Center_2                            588.7000
# Comment                             Xenocs_Cell_Window - front_window_open_only
# DDummy                              0.6
# Date                                2025-10-19T11:03:49
# Delta                               21.910000
# Dummy                               -1.5
# ExposureTime                        360
# Gamma                               15.360000
# Intensity1                          8.96194e-10
# PSize_1                             7.5e-05
# PSize_2                             7.5e-05
# Pressure                            0.0330238
# SampleDistance                      0.115750
# SampleEnvKind                       large
# SampleEnvPN                         ElectroChemical cell
# SampleEnvSN                         1141
# Thickness                           0
# Wavelength                          1.541891e-10
# Wavelength                          1.54189e-10
# aux                                 0
# aux_dial                            0.002375
# beamx                               588.429
# beamx_dial                          588.429
# beamz                               657.855
# beamz_dial                          657.855
# det0x                               -0.000396875
# det0x_dial                          6.36905
# det0xvd                             -0.0005
# det0xvd_dial                        -0.0005
# det0y                               450.002
# det0y_dial                          481.635
# det0z                               0
# det0z_dial                          1.2295
# det0zvd                             0
# det0zvd_dial                        0
# mag                                 1.818
# mag_dial                            1.818
# om                                  0.2499
# om_dial                             -0.610199
# phi                                 -0.0120535
# phi_dial                            0
# ry                                  0.599993
# ry_dial                             0.599993
# s1bot                               0.8
# s1bot_dial                          -1.66094
# s1hl                                0.8
# s1hl_dial                           -0.608437
# s1hr                                0.8
# s1hr_dial                           0.970938
# s1top                               0.8
# s1top_dial                          -0.461562
# s2bot                               0.45
# s2bot_dial                          1.36109
# s2hl                                0.45
# s2hl_dial                           -0.83375
# s2hr                                0.45
# s2hr_dial                           -0.118594
# s2top                               0.45
# s2top_dial                          1.44734
# w2theta                             32
# w2theta_dial                        32
# waxsch                              19.2605
# waxsch_dial                         -32.7238
# waxsh                               137.085
# waxsh_dial                          -43.5335
# waxsth                              26.0607
# waxsth_dial                         -19.4068
# waxsz                               67.0407
# waxsz_dial                          -23.7962
# wind                                65.9854
# wind_dial                           66.0041
# wpsi                                124
# wpsi_dial                           124
# wstod                               115
# wstod_dial                          115
# x                                   0
# x_dial                              1.00969
# z                                   0
# z_dial                              13.3172
# CountCutoff                         6807993
# DetectorModel                       Dectris EIGER2 Si 500K, S/N E-01-0554
# ThresholdSetting                    4023.88989258
# Saturation                          0
# FlatField                           Corrected
# BackgroundReductionExtra            0.02
# BackgroundCorrectionConstant        0.0026712
# Detector                            0
# Monitor                             0
# Pil_Roi0                            0
# SumForIntensity1                    3.2263e+08
# TransmittedFlux                     896194
# det                                 0
# mon                                 0
# pilai0                              3.2263e+08
# pilai1                              699988
# pilct0                              5.58243e+08
# pilct1                              699988
# pilroi0                             0
# pilroi1                             0
# sec                                 1
# title                               20251017__1_00372.edf
# usaxs0                              0
# Operation                           Azimuthal average I(q)
# Error_model                         ErrorModel.poisson
# Geometrical_correction              True
# Transmission_correction             True
# Thickness_correction                False
# Binning mode                        Uniform
# Binning factor                      1.0
# Psi                                 0.0
# Omega                               0.2499
# MaskInvalidPixels                   True
# DetectorEdge                        3
# MaskFiles                           ['20251017__1_00233_mask.edf']
################################################################################
    q(A⁻¹)                Intensity(a.u.)            Sigma_I(a.u.)            
       0.690460           -2.26628321e-05                         0           
       0.693100             0.00468969091             0.00282009499           
       0.695741             0.00578433441             0.00264596713           
       0.698381             0.00501067698             0.00230330854           
       0.701021             0.00962703862             0.00260564435           
       0.703662             0.00642036634              0.0019696589           
       0.706302             0.00771486966             0.00208521705           
       0.708942             0.00564346797             0.00158417783           
       0.711583             0.00480112581             0.00146090809           
       0.714223             0.00397179716             0.00115789481           
       0.716864             0.00893903349             0.00177260743           
       0.719504             0.00744501411             0.00149718998           
       0.722144              0.0057795448             0.00127402121           
       0.724785             0.00753055145             0.00143042844           
       0.727425             0.00901465195             0.00145166062           
       0.730065             0.00535408825             0.00115113149           
       0.732706             0.00774282912             0.00124482946           
       0.735346             0.00762327141             0.00133420649           
       0.737987              0.0071035202             0.00111474905           
       0.740627             0.00602471956             0.00112464775           
       0.743267             0.00479791219            0.000863296095           
       0.745908             0.00564589006             0.00100365162           
       0.748548             0.00694338761             0.00103808447           
       0.751189              0.0075432769             0.00107180564           
       0.753829             0.00602138523            0.000966238464           
       0.756469             0.00747301088             0.00101242755           
       0.759110             0.00654943773            0.000980351344           
       0.761750             0.00853812766             0.00102442281           
       0.764390             0.00656486618            0.000964252172           
       0.767031             0.00656854307            0.000872780563           
       0.769671             0.00764667167            0.000998690501           
       0.772312             0.00795404046            0.000928185582           
       0.774952             0.00530679574            0.000812780768           
       0.777592             0.00611657573            0.000798116872           
       0.780233             0.00769806207            0.000943908435           
       0.782873             0.00817870978            0.000889693333           
       0.785513             0.00654327635            0.000846525348           
       0.788154             0.00630815454            0.000763446359           
       0.790794             0.00608282217            0.000775904414           
       0.793435             0.00616285381            0.000750135171           
       0.796075              0.0077028399            0.000843067832           
       0.798715             0.00629745928            0.000757937439           
       0.801356             0.00788137775            0.000825222225           
       0.803996             0.00608899143            0.000736932836           
       0.806637             0.00626828398            0.000706777438           
       0.809277             0.00727081835            0.000796341561           
       0.811917             0.00731151096            0.000755676371           
       0.814558             0.00496589889            0.000637993074           
       0.817198             0.00681917043            0.000712859397           
       0.819838             0.00620467785            0.000709294527           
       0.822479             0.00631041047            0.000659199074           
       0.825119             0.00605561862            0.000693705565           
       0.827760             0.00753809126            0.000717166782           
       0.830400             0.00617471809            0.000683887674           
       0.833040             0.00727212989            0.000692661842           
       0.835681             0.00790632755            0.000756332849           
       0.838321             0.00687068657            0.000659922384           
       0.840961             0.00639730726            0.000665593265           
       0.843602             0.00671651839            0.000642414052           
       0.846242             0.00662056435            0.000660327476           
       0.848883             0.00662631833            0.000642629394           
       0.851523             0.00597430437            0.000614767222           
       0.854163             0.00645880722             0.00063178334           
       0.856804             0.00647941789            0.000616599335           
       0.859444             0.00668062349            0.000630601339           
       0.862085             0.00736582678            0.000652519248           
       0.864725             0.00665241116            0.000617838171           
       0.867365             0.00715053783            0.000635964936           
       0.870006             0.00804609716            0.000684028053           
       0.872646             0.00660716258            0.000592876604           
       0.875286             0.00808173019            0.000678047718           
       0.877927             0.00713401421            0.000609951333           
       0.880567             0.00722452769             0.00062579975           
       0.883208             0.00542925402            0.000526833775           
       0.885848             0.00593017863            0.000564880423           
       0.888488              0.0062886552            0.000553095365           
       0.891129             0.00677657862            0.000603535688           
       0.893769             0.00731046805            0.000592538116           
       0.896410             0.00655754547            0.000578482457           
       0.899050             0.00651187426            0.000555824662           
       0.901690             0.00746645596            0.000607594824           
       0.904331             0.00764563104             0.00059337603           
       0.906971             0.00768263654            0.000614198547           
       0.909611             0.00679017494            0.000554229063           
       0.912252             0.00749831471             0.00059250455           
       0.914892             0.00701843684            0.000558712243           
       0.917533              0.0071208781            0.000575473429           
       0.920173             0.00711201795            0.000551678587           
       0.922813             0.00590438477            0.000525291944           
       0.925454             0.00757894257            0.000564821438           
       0.928094             0.00711312274            0.000558933835           
       0.930734             0.00706793425            0.000543858698           
       0.933375             0.00694870239            0.000550747326           
       0.936015             0.00674489643            0.000519178771           
       0.938656             0.00661751023            0.000535823352           
       0.941296             0.00686140325            0.000525964579           
       0.943936             0.00643065179            0.000518357587           
       0.946577             0.00633324782            0.000495415245           
       0.949217             0.00678915125            0.000531051799           
       0.951858             0.00669589359            0.000498587019           
       0.954498             0.00645623063            0.000515062451           
       0.957138             0.00736299855             0.00052867425           
       0.959779             0.00682252854            0.000520032326           
       0.962419             0.00792808996            0.000539673316           
       0.965059             0.00708968524            0.000524836557           
       0.967700             0.00782199094            0.000533449104           
       0.970340             0.00668630833             0.00050706398           
       0.972981             0.00784786867            0.000530408694           
       0.975621             0.00702790385            0.000512444861           
       0.978261              0.0076636732            0.000510573391           
       0.980902             0.00681907105             0.00050454984           
       0.983542             0.00685684304            0.000491213603           
       0.986182             0.00759573712            0.000523811765           
       0.988823             0.00679532719            0.000479459201           
       0.991463             0.00720783697            0.000505591916           
       0.994104              0.0073557861            0.000493538301           
       0.996744             0.00797069108            0.000530413314           
       0.999384             0.00709549852            0.000483461414           
       1.002025             0.00834810814            0.000539002935           
       1.004665             0.00724215067             0.00048146717           
       1.007306              0.0074230555            0.000503776747           
       1.009946             0.00702841084            0.000471344951           
       1.012586             0.00773138752            0.000508575455           
       1.015227             0.00799568183            0.000501539916           
       1.017867             0.00742976211            0.000497319685           
       1.020507              0.0072490029            0.000472740012           
       1.023148             0.00758128912             0.00048929293           
       1.025788             0.00764536088            0.000486324798           
       1.028429             0.00729458372            0.000485421934           
       1.031069             0.00729254852            0.000467614746           
       1.033709             0.00762708058            0.000487403181           
       1.036350             0.00692964122            0.000452402028           
       1.038990             0.00726092347            0.000474522343           
       1.041630             0.00733151254            0.000467649987           
       1.044271             0.00758627702            0.000475759257           
       1.046911             0.00845468009            0.000492920037           
       1.049552             0.00830252614            0.000506067606           
       1.052192             0.00791462449             0.00047188508           
       1.054832             0.00843410152            0.000496598248           
       1.057473             0.00735436972            0.000457852274           
       1.060113             0.00824185818            0.000489939864           
       1.062754             0.00849537259            0.000491916435           
       1.065394             0.00777803923            0.000465737944           
       1.068034             0.00737175254            0.000451655488           
       1.070675             0.00787967057            0.000475169196           
       1.073315              0.0077817482            0.000457773615           
       1.075955             0.00871781431             0.00049265091           
       1.078596             0.00744896682            0.000454489883           
       1.081236               0.008132513            0.000467841603           
       1.083877              0.0072980866            0.000457035779           
       1.086517              0.0078440978            0.000463105608           
       1.089157             0.00905841628            0.000501310949           
       1.091798             0.00844766526            0.000473858859           
       1.094438             0.00875097133            0.000489955658           
       1.097078             0.00871067812            0.000476264751           
       1.099719             0.00778008113            0.000461641455           
       1.102359             0.00929714128            0.000478061595           
       1.105000             0.00834955871            0.000470887099           
       1.107640             0.00865072895            0.000463680212           
       1.110280             0.00672235114            0.000416929847           
       1.112921             0.00833300478             0.00045579859           
       1.115561             0.00893328938            0.000477919405           
       1.118202             0.00778663322            0.000433171125           
       1.120842             0.00892121778            0.000478265645           
       1.123482             0.00811755414            0.000443417556           
       1.126123             0.00802102877            0.000443524149           
       1.128763             0.00817396473            0.000445511766           
       1.131403             0.00827561906            0.000447576621           
       1.134044             0.00776562385            0.000432813573           
       1.136684             0.00758735643            0.000431032018           
       1.139325              0.0076457355            0.000420495914           
       1.141965             0.00784539309            0.000431521635           
       1.144605             0.00788862842            0.000435250711           
       1.147246             0.00884015499            0.000452027408           
       1.149886             0.00883325471            0.000455064467           
       1.152527             0.00897106119            0.000459059959           
       1.155167             0.00833573228            0.000436284579           
       1.157807             0.00906841875            0.000455368365           
       1.160448             0.00887815113            0.000456730703           
       1.163088             0.00820579437            0.000422805455           
       1.165728             0.00896816703            0.000460228833           
       1.168369             0.00901644121            0.000444991749           
       1.171009             0.00778772465             0.00041698987           
       1.173650             0.00920796121            0.000450151656           
       1.176290             0.00888788552             0.00044744798           
       1.178930             0.00871729947            0.000430676239           
       1.181571             0.00953936251            0.000465240607           
       1.184211             0.00892392468             0.00043639258           
       1.186851             0.00914875416            0.000445929776           
       1.189492             0.00810829753            0.000422138827           
       1.192132             0.00829186985            0.000420568355           
       1.194773             0.00907032342            0.000437213616           
       1.197413             0.00852605308            0.000427350926           
       1.200053             0.00878340219            0.000431023468           
       1.202694              0.0102257981            0.000461565164           
       1.205334             0.00866548597            0.000429539017           
       1.207975             0.00931691362            0.000436664924           
       1.210615             0.00933596095            0.000446354269           
       1.213255             0.00932678949            0.000434332346           
       1.215896             0.00838183363             0.00041954702           
       1.218536             0.00965044334            0.000437212286           
       1.221176             0.00939509489            0.000441685985           
       1.223817             0.00933904956            0.000431190428           
       1.226457             0.00974693094            0.000446101041           
       1.229098             0.00954161819            0.000434681551           
       1.231738             0.00931921381            0.000435634942           
       1.234378              0.0097680899            0.000437337119           
       1.237019             0.00985613214            0.000442846999           
       1.239659             0.00905857452            0.000424321792           
       1.242299             0.00930914122            0.000427951215           
       1.244940              0.0100565807            0.000439998546           
       1.247580             0.00911105741             0.00042065286           
       1.250221              0.0090405412            0.000425861714           
       1.252861             0.00895374382            0.000408022695           
       1.255501             0.00926902272            0.000426865426           
       1.258142             0.00939676636             0.00042129979           
       1.260782              0.0102281484            0.000444507085           
       1.263423              0.0100453043            0.000431788626           
       1.266063             0.00995169656            0.000437782464           
       1.268703               0.010024819            0.000428317494           
       1.271344              0.0102278321            0.000442055442           
       1.273984             0.00965406757            0.000422772737           
       1.276624              0.0104320167            0.000436795343           
       1.279265             0.00970591277            0.000422239856           
       1.281905             0.00969152179            0.000424527388           
       1.284546              0.0098449636            0.000423200587           
       1.287186              0.0100289854            0.000427547849           
       1.289826             0.00962403415            0.000420999032           
       1.292467              0.0100054446            0.000421598812           
       1.295107             0.00980712268            0.000424756823           
       1.297747              0.0104005603            0.000425945988           
       1.300388             0.00996374636            0.000427611183           
       1.303028              0.0102728342            0.000423151867           
       1.305669              0.0100496829             0.00042393809           
       1.308309             0.00968691914             0.00040995807           
       1.310949             0.00997717567             0.00042124037           
       1.313590              0.0107203171            0.000429889055           
       1.316230              0.0104545323            0.000432168068           
       1.318871              0.0102386281            0.000418455652           
       1.321511              0.0106116527            0.000428145142           
       1.324151              0.0102635089            0.000422727154           
       1.326792              0.0098602739            0.000410983468           
       1.329432             0.00938981654            0.000403151181           
       1.332072             0.00951348624            0.000398838935           
       1.334713              0.0101756069            0.000417600303           
       1.337353              0.0100658601            0.000408953295           
       1.339994              0.0100955384            0.000415389262           
       1.342634              0.0102649839            0.000409431169           
       1.345274              0.0115317203            0.000439632385           
       1.347915              0.0105846944            0.000422313392           
       1.350555              0.0105135731            0.000419247848           
       1.353195              0.0104891644            0.000410749831           
       1.355836              0.0107559546             0.00042378863           
       1.358476              0.0102236705             0.00041200746           
       1.361117              0.0100787663            0.000398815184           
       1.363757               0.010574192            0.000422037528           
       1.366397               0.010891867            0.000414991585           
       1.369038              0.0110899288            0.000427573787           
       1.371678              0.0100272723            0.000398363019           
       1.374319             0.00945130067            0.000389820119           
       1.376959              0.0102874654             0.00040109959           
       1.379599              0.0109508204            0.000421895762           
       1.382240              0.0113461893            0.000421287621           
       1.384880              0.0103044107            0.000406410618           
       1.387520             0.00996213598            0.000394931783           
       1.390161              0.0104383058            0.000403161321           
       1.392801             0.00976553243            0.000392276787           
       1.395442              0.0101127353            0.000395053208           
       1.398082              0.0106012299            0.000405866367           
       1.400722              0.0102386577            0.000397063567           
       1.403363              0.0102700019            0.000401361184           
       1.406003              0.0109161812            0.000403634418           
       1.408644             0.00980031769            0.000390477462           
       1.411284              0.0107043625            0.000405852283           
       1.413924              0.0113101641            0.000412033279           
       1.416565              0.0106110146            0.000398625858           
       1.419205              0.0110747268            0.000411254445           
       1.421845              0.0101803788            0.000389342319           
       1.424486             0.00995384048            0.000386685651           
       1.427126              0.0102359472            0.000391879582           
       1.429767              0.0106132474            0.000392887531           
       1.432407              0.0103445463             0.00039765348           
       1.435047              0.0104788213             0.00038819895           
       1.437688               0.010396347             0.00039523098           
       1.440328               0.010188839              0.0003836845           
       1.442968              0.0101623826            0.000388490463           
       1.445609              0.0103957684            0.000386463232           
       1.448249              0.0102440918            0.000386114102           
       1.450890              0.0101692821            0.000381957398           
       1.453530              0.0102491207            0.000386294121           
       1.456170             0.00974771341            0.000375878354           
       1.458811              0.0105058148            0.000387116638           
       1.461451             0.00964862295            0.000373714895           
       1.464092              0.0104056217            0.000384715395           
       1.466732              0.0103547803            0.000381420491           
       1.469372              0.0107468344            0.000387379667           
       1.472013              0.0106517646            0.000392562273           
       1.474653              0.0103660652            0.000377699705           
       1.477293              0.0110824701            0.000397106774           
       1.479934              0.0100642096            0.000374463392           
       1.482574              0.0107752207            0.000386508874           
       1.485215             0.00985114753            0.000370515738           
       1.487855              0.0101325805            0.000375693392           
       1.490495              0.0105078151            0.000381763121           
       1.493136               0.010372968            0.000374331359           
       1.495776              0.0103662496            0.000380734328           
       1.498416              0.0101760408            0.000369896722           
       1.501057               0.010134203            0.000372310593           
       1.503697               0.010103188            0.000368166267           
       1.506338              0.0103059164            0.000374576249           
       1.508978              0.0101873699            0.000370216818           
       1.511618             0.00995397046            0.000365766346           
       1.514259             0.00960645111            0.000359973648           
       1.516899              0.0098053171            0.000363849883           
       1.519540              0.0102517657            0.000369976355           
       1.522180              0.0100331433            0.000361439306           
       1.524820              0.0102080012            0.000371938815           
       1.527461             0.00936486842            0.000348366764           
       1.530101             0.00954063415            0.000355256265           
       1.532741             0.00942116773            0.000351352442           
       1.535382             0.00966526805            0.000356658784           
       1.538022             0.00934071733             0.00034751739           
       1.540663               0.010087259            0.000364550969           
       1.543303             0.00974433554            0.000353842008           
       1.545943              0.0101745662            0.000363595389           
       1.548584             0.00965676642            0.000356108861           
       1.551224             0.00993940967            0.000352020494           
       1.553864             0.00986771364            0.000359911327           
       1.556505             0.00998758754            0.000356520802           
       1.559145             0.00973171693            0.000352737923           
       1.561786              0.0100284699            0.000356453447           
       1.564426             0.00941036615            0.000344981885           
       1.567066             0.00986170164            0.000350401485           
       1.569707             0.00924452972            0.000344171436           
       1.572347             0.00915744656            0.000338102286           
       1.574988             0.00947642347             0.00034257972           
       1.577628              0.0096679554            0.000353815079           
       1.580268             0.00917816626            0.000332839492           
       1.582909             0.00998150841            0.000353592479           
       1.585549             0.00944180854             0.00034068642           
       1.588189             0.00933964108            0.000342622649           
       1.590830             0.00923255434            0.000334805245           
       1.593470             0.00941615189            0.000340878975           
       1.596111             0.00908478507            0.000331934108           
       1.598751             0.00933191636            0.000339857702           
       1.601391             0.00924301548             0.00033607247           
       1.604032             0.00900310859            0.000328912506           
       1.606672             0.00909678805            0.000337273582           
       1.609312             0.00902149776            0.000325880929           
       1.611953             0.00875793945             0.00032573871           
       1.614593             0.00862526379            0.000320803314           
       1.617234             0.00934507522            0.000335814041           
       1.619874             0.00897120544            0.000325157233           
       1.622514             0.00907679739            0.000329957814           
       1.625155             0.00930308762            0.000333219412           
       1.627795             0.00858456455            0.000316858191           
       1.630436             0.00922238224            0.000331719381           
       1.633076             0.00833930289            0.000313835478           
       1.635716             0.00830141524            0.000312575702           
       1.638357             0.00883662639            0.000321124377           
       1.640997             0.00825036797            0.000312715797           
       1.643637             0.00878258877            0.000316653427           
       1.646278             0.00832769033            0.000312959192           
       1.648918             0.00886310089            0.000318700631           
       1.651559             0.00865143073            0.000318830953           
       1.654199             0.00889728762            0.000318897523           
       1.656839             0.00820004261            0.000306064836           
       1.659480             0.00834787004            0.000311531102           
       1.662120             0.00813682877            0.000303446485           
       1.664761             0.00880387371            0.000319057037           
       1.667401             0.00809603534            0.000303111788           
       1.670041              0.0082861495            0.000307000952           
       1.672682             0.00776269672            0.000294349742           
       1.675322             0.00735820811            0.000291645329           
       1.677962             0.00807429238            0.000299439669           
       1.680603             0.00914061492            0.000321426844           
       1.683243             0.00825089345            0.000303123911           
       1.685884             0.00835292697            0.000306153026           
       1.688524             0.00842027185            0.000306519893           
       1.691164             0.00876032339            0.000311844421           
       1.693805              0.0087117482            0.000313493414           
       1.696445             0.00825011372            0.000300840139           
       1.699085             0.00825739118            0.000302174396           
       1.701726             0.00839449836            0.000300709706           
       1.704366             0.00789688094            0.000298757429           
       1.707007             0.00843318848            0.000302147452           
       1.709647             0.00820525572            0.000301739369           
       1.712287             0.00836166571             0.00029951121           
       1.714928             0.00845785085            0.000304257895           
       1.717568             0.00803559991            0.000293838649           
       1.720209             0.00833073642            0.000301033643           
       1.722849             0.00849067011            0.000304396815           
       1.725489             0.00855356901            0.000300652548           
       1.728130             0.00783723451            0.000293646431           
       1.730770             0.00785660157            0.000287794401           
       1.733410             0.00880120751            0.000308603097           
       1.736051             0.00841604369            0.000297090793           
       1.738691             0.00815781972            0.000295483131           
       1.741332             0.00824041864            0.000295147141           
       1.743972             0.00841642568            0.000298393146           
       1.746612             0.00768494478             0.00028519721           
       1.749253             0.00819523212            0.000295786489           
       1.751893             0.00876399649            0.000304043279           
       1.754533             0.00835106858            0.000292720705           
       1.757174             0.00838502399            0.000298799212           
       1.759814              0.0080018612            0.000287442349           
       1.762455             0.00800656136            0.000289974599           
       1.765095             0.00915407783            0.000305704688           
       1.767735             0.00811610261            0.000292742816           
       1.770376             0.00868292706            0.000298200887           
       1.773016             0.00885657455            0.000301643254           
       1.775657             0.00896343721            0.000304079312           
       1.778297             0.00864701054            0.000300124864           
       1.780937             0.00831803181            0.000292986705           
       1.783578             0.00810400613            0.000287834854           
       1.786218             0.00804783666            0.000291412801           
       1.788858             0.00826396412            0.000287963074           
       1.791499             0.00805643287            0.000289564446           
       1.794139             0.00903968369            0.000301061916           
       1.796780             0.00883669219            0.000299431127           
       1.799420             0.00917807796            0.000304771726           
       1.802060             0.00837613983             0.00028757166           
       1.804701             0.00899977603            0.000302083957           
       1.807341             0.00908263665             0.00030053908           
       1.809981             0.00961682605            0.000311304635           
       1.812622             0.00930391848            0.000304529967           
       1.815262             0.00948826801            0.000308628702           
       1.817903             0.00848406345            0.000288234441           
       1.820543              0.0090145712            0.000300781734           
       1.823183             0.00821003495            0.000282623133           
       1.825824             0.00874820845            0.000296126451           
       1.828464              0.0088981875            0.000297737732           
       1.831105             0.00788009441            0.000281272271           
       1.833745             0.00852541633            0.000292380125           
       1.836385             0.00851569265            0.000291076826           
       1.839026             0.00786559999            0.000283951044           
       1.841666             0.00830515556            0.000287988608           
       1.844306              0.0087817365            0.000299874904           
       1.846947             0.00823536826            0.000286664714           
       1.849587             0.00898905427            0.000303557111           
       1.852228             0.00885394986            0.000298063033           
       1.854868             0.00897683094            0.000305628756           
       1.857508             0.00864742954            0.000294430007           
       1.860149             0.00870403599            0.000297759818           
       1.862789             0.00857305543            0.000296818556           
       1.865429             0.00841958804            0.000295036691           
       1.868070              0.0080633137            0.000287729314           
       1.870710             0.00865941358            0.000298987266           
       1.873351             0.00797721908            0.000288800521           
       1.875991             0.00849381448            0.000299617037           
       1.878631             0.00909383902            0.000307137813           
       1.881272             0.00876183724            0.000300772922           
       1.883912              0.0085916541            0.000301330592           
       1.886553             0.00848426206            0.000295849472           
       1.889193             0.00846165541            0.000298868045           
       1.891833             0.00896666997            0.000304156324           
       1.894474             0.00819673889            0.000293106531           
       1.897114             0.00829818136            0.000292627127           
       1.899754             0.00777849004             0.00028649313           
       1.902395             0.00814182191            0.000293170277           
       1.905035             0.00861955764             0.00030046668           
       1.907676             0.00801412422            0.000290059079           
       1.910316             0.00888667053             0.00030738899           
       1.912956             0.00857714418            0.000301976303           
       1.915597             0.00836223261            0.000295060567           
       1.918237             0.00817052357             0.00029608606           
       1.920878              0.0089018408            0.000303583486           
       1.923518             0.00820695388            0.000299238318           
       1.926158             0.00842994927            0.000296307458           
       1.928799             0.00865283853            0.000304188298           
       1.931439             0.00853504825            0.000299689663           
       1.934079             0.00855855755            0.000303141213           
       1.936720             0.00851613763            0.000300609246           
       1.939360             0.00844344947            0.000302208421           
       1.942001             0.00813657873            0.000295524558           
       1.944641             0.00850147487            0.000300776796           
       1.947281             0.00781656291            0.000289799931           
       1.949922             0.00839282258            0.000300668282           
       1.952562             0.00838729424            0.000303155657           
       1.955202             0.00805810555            0.000289681165           
       1.957843             0.00811041345            0.000299851892           
       1.960483             0.00794554036            0.000292054464           
       1.963124             0.00828554014             0.00029801654           
       1.965764             0.00806365993             0.00029410425           
       1.968404             0.00839051423            0.000305370433           
       1.971045              0.0082887695             0.00029590508           
       1.973685              0.0081709948            0.000299277908           
       1.976326              0.0081002396             0.00029668017           
       1.978966             0.00839154725            0.000303396689           
       1.981606             0.00831275799            0.000298775525           
       1.984247             0.00800047294            0.000295665584           
       1.986887             0.00823307514              0.0003027379           
       1.989527             0.00869658529            0.000304660901           
       1.992168             0.00823943781            0.000303700112           
       1.994808             0.00828433796            0.000300984374           
       1.997449             0.00800431571            0.000295419936           
       2.000089             0.00794796289            0.000292644776           
       2.002729             0.00752677874            0.000291310902           
       2.005370             0.00771256513            0.000289278667           
       2.008010             0.00760446594            0.000291057897           
       2.010650             0.00749174964            0.000288066323           
       2.013291             0.00793713894            0.000298193252           
       2.015931             0.00783283837            0.000294107384           
       2.018572             0.00768048388            0.000295100935           
       2.021212             0.00744607389            0.000287955052           
       2.023852             0.00772170859            0.000294776735           
       2.026493             0.00806796498            0.000299992983           
       2.029133             0.00806758452            0.000297697481           
       2.031774             0.00749946782            0.000289807735           
       2.034414             0.00794225725            0.000296460727           
       2.037054             0.00813351759            0.000303791964           
       2.039695             0.00757544597            0.000287409643           
       2.042335             0.00776861773            0.000296005105           
       2.044975             0.00774706593            0.000293231801           
       2.047616             0.00794518384            0.000298230062           
       2.050256             0.00767671945            0.000289699942           
       2.052897             0.00742854605            0.000293418987           
       2.055537             0.00767775413            0.000290167282           
       2.058177             0.00799584596            0.000298732826           
       2.060818             0.00805653418            0.000300764606           
       2.063458             0.00743645957             0.00028935665           
       2.066098             0.00737041467             0.00028679048           
       2.068739             0.00798680215            0.000301654657           
       2.071379             0.00749059668            0.000287819644           
       2.074020             0.00780100193            0.000297744829           
       2.076660             0.00719522246            0.000284012379           
       2.079300               0.007242463             0.00028490192           
       2.081941             0.00781612465            0.000297769532           
       2.084581             0.00713142477              0.0002846389           
       2.087222             0.00749590054            0.000292020785           
       2.089862             0.00736716776            0.000285894017           
       2.092502             0.00774269942            0.000298415423           
       2.095143              0.0072299034            0.000284242917           
       2.097783             0.00809909084            0.000305422015           
       2.100423             0.00772361883             0.00029253937           
       2.103064             0.00742762463            0.000291832263           
       2.105704             0.00719105458            0.000286048706           
       2.108345             0.00693607579            0.000282221364           
       2.110985              0.0076054258            0.000291374421           
       2.113625             0.00792047798             0.00030203316           
       2.116266             0.00794193432            0.000300203464           
       2.118906             0.00741864764            0.000289933925           
       2.121546             0.00763202955            0.000293840543           
       2.124187              0.0075530339            0.000296359094           
       2.126827             0.00745214606            0.000289756562           
       2.129468             0.00748055816            0.000293337963           
       2.132108             0.00735898681             0.00029034255           
       2.134748             0.00712348513            0.000284582462           
       2.137389             0.00779020934            0.000300095013           
       2.140029              0.0072346974             0.00028849511           
       2.142670              0.0077727667            0.000299519522           
       2.145310             0.00715901373            0.000288549264           
       2.147950             0.00707403724            0.000287940476           
       2.150591             0.00731035805            0.000290026128           
       2.153231             0.00694960583            0.000286960168           
       2.155871             0.00690698242            0.000281947206           
       2.158512             0.00773766666            0.000303797797           
       2.161152             0.00737919874            0.000289266285           
       2.163793             0.00737358503            0.000293861206           
       2.166433             0.00728598964            0.000287045036           
       2.169073              0.0074146767            0.000296329633           
       2.171714              0.0075132113            0.000292219309           
       2.174354             0.00677378848             0.00028170735           
       2.176995              0.0068701756            0.000281351164           
       2.179635             0.00755900354            0.000300704111           
       2.182275             0.00740656643            0.000291747892           
       2.184916             0.00749126119            0.000299612439           
       2.187556             0.00798138189            0.000304279554           
       2.190196             0.00757954963            0.000301181666           
       2.192837             0.00789069092            0.000303936142           
       2.195477             0.00748126371            0.000298800638           
       2.198118             0.00718144002            0.000287347237           
       2.200758             0.00773408358            0.000302829472           
       2.203398             0.00748707076            0.000293013201           
       2.206039             0.00737826228            0.000295322253           
       2.208679             0.00745707457            0.000293989039           
       2.211319             0.00781396119            0.000302358328           
       2.213960             0.00685638922            0.000280215218           
       2.216600             0.00736886733            0.000297343417           
       2.219241             0.00767272259            0.000299000853           
       2.221881             0.00717522565            0.000290652014           
       2.224521             0.00698982798            0.000285877409           
       2.227162             0.00758648818            0.000302506968           
       2.229802              0.0074942411            0.000295781728           
       2.232443             0.00756433994            0.000298330089           
       2.235083             0.00756582079            0.000296570235           
       2.237723             0.00733163769            0.000294181629           
       2.240364             0.00725318846             0.00029111521           
       2.243004             0.00674039242            0.000281483584           
       2.245644             0.00689579744            0.000284052542           
       2.248285             0.00710955982            0.000290293915           
       2.250925             0.00753729519            0.000297501207           
       2.253566             0.00704110666            0.000288245193           
       2.256206              0.0074109511            0.000294832749           
       2.258846             0.00782374591            0.000302935374           
       2.261487             0.00739461487            0.000295019703           
       2.264127             0.00736036826            0.000297120681           
       2.266767             0.00732429017            0.000291601026           
       2.269408             0.00693186485            0.000287050934           
       2.272048             0.00691588112            0.000284956081           
       2.274689             0.00730528007            0.000294020101           
       2.277329             0.00761851771            0.000299858493           
       2.279969             0.00699763132            0.000288251102           
       2.282610             0.00797081402            0.000304642675           
       2.285250             0.00738700274            0.000297886459           
       2.287891              0.0073237225            0.000293614706           
       2.290531             0.00693020549            0.000287026042           
       2.293171             0.00713459188            0.000291213432           
       2.295812             0.00704353861            0.000287813457           
       2.298452             0.00754101556            0.000299711379           
       2.301092             0.00709583375            0.000292576898           
       2.303733             0.00726657443            0.000290219755           
       2.306373             0.00739634885            0.000299961446           
       2.309014             0.00751670759            0.000296565043           
       2.311654             0.00737487171            0.000296541575           
       2.314294             0.00743494764            0.000297096922           
       2.316935              0.0069680055            0.000288753005           
       2.319575             0.00708563644             0.00029008975           
       2.322215             0.00712961293            0.000295135092           
       2.324856             0.00762575898            0.000297566454           
       2.327496             0.00713676439            0.000294922824           
       2.330137             0.00698385555            0.000286365751           
       2.332777             0.00712172508            0.000292341335           
       2.335417             0.00688402273            0.000286558327           
       2.338058             0.00734643326             0.00029721099           
       2.340698             0.00730332405             0.00029341999           
       2.343339             0.00753895686            0.000303804702           
       2.345979             0.00726998786            0.000292382818           
       2.348619             0.00694966079            0.000291267389           
       2.351260             0.00697944017            0.000285685983           
       2.353900              0.0067821235            0.000287584093           
       2.356540             0.00722289986            0.000292700455           
       2.359181             0.00776724497            0.000307588479           
       2.361821             0.00692838651            0.000286964744           
       2.364462              0.0072186434            0.000297809531           
       2.367102             0.00689046939            0.000282547368           
       2.369742              0.0071475166            0.000298082039           
       2.372383             0.00785102213            0.000303300449           
       2.375023             0.00755500532            0.000305279493           
       2.377663              0.0068526626            0.000284564973           
       2.380304             0.00749372441            0.000301705784           
       2.382944             0.00666122279            0.000281671562           
       2.385585             0.00735236898            0.000298721211           
       2.388225             0.00673652107            0.000284645001           
       2.390865             0.00741094227            0.000299318199           
       2.393506              0.0074596694            0.000298916675           
       2.396146             0.00706431659            0.000291851896           
       2.398787             0.00671942774            0.000284887436           
       2.401427             0.00700629288            0.000289138707           
       2.404067             0.00698547017            0.000293115297           
       2.406708             0.00732280682            0.000296337219           
       2.409348             0.00729628149            0.000298025244           
       2.411988             0.00724880189            0.000296105263           
       2.414629             0.00738529779            0.000299858029           
       2.417269             0.00676311932            0.000284343411           
       2.419910              0.0070821614            0.000294642303           
       2.422550             0.00702440683            0.000288984115           
       2.425190             0.00702698142            0.000298137375           
       2.427831             0.00737829533            0.000294009737           
       2.430471             0.00793753763            0.000313862645           
       2.433112             0.00705231407            0.000288863067           
       2.435752             0.00730171071            0.000301367424           
       2.438392             0.00733759282            0.000297029155           
       2.441033             0.00711864347            0.000293904648           
       2.443673             0.00710301735             0.00029436587           
       2.446313             0.00730767856            0.000296985776           
       2.448954             0.00721599382            0.000297706404           
       2.451594             0.00685947562            0.000288517306           
       2.454235               0.007134447            0.000293327732           
       2.456875             0.00751258919            0.000302525565           
       2.459515             0.00732583591             0.00029920233           
       2.462156             0.00761289525            0.000303435771           
       2.464796             0.00744609858            0.000305386697           
       2.467436             0.00823514875            0.000314425789           
       2.470077             0.00815027338            0.000317114678           
       2.472717             0.00744338568             0.00029925891           
       2.475358             0.00777058131            0.000309229743           
       2.477998             0.00785066626            0.000309160889           
       2.480638             0.00707381747            0.000294179341           
       2.483279              0.0077287075            0.000308816436           
       2.485919             0.00721894625            0.000296368658           
       2.488560             0.00723183142            0.000297863448           
       2.491200             0.00735155629            0.000299907183           
       2.493840             0.00668126803            0.000284351592           
       2.496481             0.00748341739            0.000304872736           
       2.499121             0.00690862934            0.000289030238           
       2.501761             0.00725186427            0.000301151351           
       2.504402             0.00727458807            0.000295842496           
       2.507042             0.00723525604            0.000299946197           
       2.509683              0.0074771625            0.000302142371           
       2.512323             0.00745331688            0.000302841382           
       2.514963              0.0152602974            0.000434194972           
       2.517604              0.0298125071            0.000604503717           
       2.520244              0.0155533328             0.00043672334           
       2.522884             0.00813584825            0.000315170121           
       2.525525             0.00871500607            0.000328874514           
       2.528165              0.0182123776            0.000473251166           
       2.530806              0.0210341588            0.000506684535           
       2.533446               0.012189646            0.000389146421           
       2.536086              0.0100499688            0.000350380195           
       2.538727               0.010377147            0.000358320368           
       2.541367              0.0106783684            0.000362444354           
       2.544008             0.00773659064            0.000308767402           
       2.546648             0.00710554479            0.000296243069           
       2.549288             0.00734310373            0.000301197838           
       2.551929             0.00698480323            0.000294727927           
       2.554569             0.00718926345            0.000296278048           
       2.557209             0.00653088531            0.000285576708           
       2.559850             0.00686008559            0.000289320074           
       2.562490             0.00695187912            0.000293369952           
       2.565131             0.00649992878            0.000284167095           
       2.567771             0.00672093484            0.000287426256           
       2.570411             0.00713744787            0.000299803068           
       2.573052             0.00658426636            0.000284589581           
       2.575692              0.0067480884            0.000288872516           
       2.578332             0.00700252353            0.000293398779           
       2.580973             0.00750268582            0.000306158601           
       2.583613             0.00667549345            0.000286156737           
       2.586254              0.0068295305            0.000292000089           
       2.588894             0.00669138656            0.000287490004           
       2.591534             0.00711251527             0.00029694389           
       2.594175             0.00733081753            0.000303216395           
       2.596815             0.00675318411              0.0002883195           
       2.599456             0.00717713819            0.000299663744           
       2.602096             0.00665077051            0.000287386419           
       2.604736             0.00765020252            0.000309032562           
       2.607377              0.0069728454            0.000293906245           
       2.610017             0.00717499846            0.000298032031           
       2.612657             0.00675733903            0.000291270792           
       2.615298             0.00681227445            0.000289591684           
       2.617938             0.00689934862            0.000293986103           
       2.620579             0.00673534414            0.000288098163           
       2.623219             0.00669875401            0.000291910383           
       2.625859             0.00671421923            0.000287321679           
       2.628500             0.00728382889            0.000304044083           
       2.631140             0.00663331888            0.000285033045           
       2.633780             0.00715419136            0.000299814505           
       2.636421             0.00680974609            0.000289846321           
       2.639061             0.00697453162            0.000296839476           
       2.641702             0.00755629295            0.000305668668           
       2.644342             0.00737677099            0.000304493275           
       2.646982             0.00757108022            0.000308215601           
       2.649623             0.00745988242             0.00030777791           
       2.652263             0.00740905669            0.000304286921           
       2.654904             0.00716143841            0.000300783279           
       2.657544               0.006945324            0.000294126046           
       2.660184             0.00750386726            0.000306115245           
       2.662825             0.00719794738             0.00030052904           
       2.665465             0.00683596473             0.00029341648           
       2.668105              0.0069170939            0.000295269342           
       2.670746             0.00715721841            0.000297809324           
       2.673386             0.00747830267             0.00030810553           
       2.676027              0.0074310241            0.000304519126           
       2.678667             0.00749669585            0.000307451846           
       2.681307             0.00726903911            0.000300366919           
       2.683948             0.00736646963            0.000305376154           
       2.686588             0.00786465055            0.000312637729           
       2.689229              0.0070622753            0.000298919556           
       2.691869             0.00795890597            0.000314160797           
       2.694509             0.00732642127            0.000305553048           
       2.697150             0.00783409141            0.000310919228           
       2.699790               0.007409973            0.000308667163           
       2.702430              0.0068385655            0.000290841968           
       2.705071             0.00654416398            0.000288406521           
       2.707711             0.00677056732             0.00029044402           
       2.710352             0.00670539997            0.000290688052           
       2.712992             0.00681004929            0.000293900068           
       2.715632              0.0068970206            0.000294088389           
       2.718273             0.00758829657            0.000309498571           
       2.720913             0.00650097468            0.000286946026           
       2.723553             0.00734373136             0.00030391884           
       2.726194             0.00713498057             0.00030101291           
       2.728834             0.00699797434            0.000295458889           
       2.731475             0.00674947109            0.000292701455           
       2.734115             0.00716766848            0.000299835724           
       2.736755             0.00720282018            0.000302556957           
       2.739396             0.00691155505            0.000294809251           
       2.742036             0.00698302576            0.000298352218           
       2.744677             0.00706578078            0.000300553663           
       2.747317             0.00766931117            0.000311605484           
       2.749957             0.00707237398            0.000301403825           
       2.752598             0.00705037985            0.000301841029           
       2.755238             0.00699226889            0.000300459056           
       2.757878             0.00757688566            0.000311876974           
       2.760519             0.00684074387             0.00029321063           
       2.763159             0.00728275249            0.000307454309           
       2.765800             0.00710860392            0.000298610516           
       2.768440              0.0071536096            0.000303500466           
       2.771080             0.00680624663             0.00029354539           
       2.773721             0.00639244671            0.000287972122           
       2.776361             0.00631969107             0.00028325339           
       2.779001             0.00683455868             0.00029766223           
       2.781642             0.00641216037            0.000286349958           
       2.784282             0.00659590206            0.000290525005           
       2.786923              0.0067964045            0.000292664768           
       2.789563             0.00723015665             0.00030246577           
       2.792203               0.006707543             0.00029318371           
       2.794844             0.00654622285            0.000288318739           
       2.797484             0.00641776562            0.000285878104           
       2.800125             0.00674782203             0.00029275828           
       2.802765             0.00682387318            0.000299861092           
       2.805405             0.00651355508            0.000288734684           
       2.808046             0.00662883831             0.00029574496           
       2.810686             0.00712241404             0.00030329119           
       2.813326              0.0064165714             0.00029143245           
       2.815967             0.00659211006            0.000293530355           
       2.818607             0.00727268805            0.000311392449           
       2.821248             0.00694021861            0.000300398629           
       2.823888             0.00656432826            0.000296856023           
       2.826528             0.00653048922            0.000294323356           
       2.829169             0.00638012104            0.000289630788           
       2.831809             0.00665847901            0.000296140719           
       2.834449             0.00658749265            0.000289416442           
       2.837090             0.00720287975             0.00030445419           
       2.839730             0.00717245873             0.00030165308           
       2.842371              0.0073634797            0.000307773137           
       2.845011             0.00628499408             0.00028370822           
       2.847651             0.00674716646            0.000294494395           
       2.850292             0.00626209736            0.000282099029           
       2.852932             0.00675447505            0.000293505048           
       2.855573             0.00622465258            0.000284233268           
       2.858213             0.00704476125            0.000298985444           
       2.860853              0.0070264531            0.000300831653           
       2.863494             0.00686400009            0.000298049615           
       2.866134             0.00696888047            0.000304530508           
       2.868774             0.00672666287            0.000294611524           
       2.871415             0.00666804786            0.000296228288           
       2.874055              0.0066301235            0.000296847865           
       2.876696             0.00643064956            0.000289715797           
       2.879336             0.00710758967            0.000306605025           
       2.881976             0.00692887277            0.000302476614           
       2.884617             0.00664097786            0.000294480963           
       2.887257             0.00674500395            0.000294709125           
       2.889897             0.00605686173            0.000282472332           
       2.892538             0.00697952527            0.000301122614           
       2.895178             0.00693137941            0.000297022065           
       2.897819             0.00653234767            0.000291311345           
       2.900459             0.00699976882            0.000299056928           
       2.903099             0.00647495987            0.000289129419           
       2.905740             0.00677184321            0.000292383029           
       2.908380             0.00651527336            0.000290613831           
       2.911021             0.00667244405            0.000294657323           
       2.913661             0.00692663994            0.000296913712           
       2.916301             0.00678314791            0.000298002082           
       2.918942             0.00700980219            0.000298369693           
       2.921582              0.0062755683            0.000285273289           
       2.924222             0.00697260168            0.000298954912           
       2.926863              0.0066539023            0.000292818506           
       2.929503             0.00716685197            0.000307269208           
       2.932144             0.00733441933            0.000305742475           
       2.934784             0.00729465376            0.000306208325           
       2.937424             0.00691534334             0.00029869232           
       2.940065             0.00678606102            0.000296127938           
       2.942705             0.00701405196             0.00030197613           
       2.945346             0.00712979102            0.000302659129           
       2.947986             0.00831017421            0.000327896305           
       2.950626             0.00867183272            0.000335985238           
       2.953267             0.00959765748            0.000349710773           
       2.955907             0.00799776253            0.000323455685           
       2.958547              0.0078369336            0.000316903814           
       2.961188             0.00739265518             0.00031047702           
       2.963828             0.00691013792            0.000298472569           
       2.966469             0.00700773179            0.000300647747           
       2.969109             0.00740129302            0.000310554962           
       2.971749             0.00839278798            0.000329730043           
       2.974390             0.00913910622            0.000345022433           
       2.977030             0.00982261334            0.000357011069           
       2.979670             0.00876439929            0.000335058165           
       2.982311             0.00701831946            0.000301994265           
       2.984951             0.00727227549            0.000308204352           
       2.987592             0.00746614963            0.000311231556           
       2.990232             0.00761866946            0.000315197244           
       2.992872             0.00889798959            0.000337969597           
       2.995513             0.00944275046              0.0003508965           
       2.998153              0.0125628739            0.000407349479           
       3.000794              0.0233472598            0.000547235863           
       3.003434              0.0340741933            0.000668113423           
       3.006074              0.0229191737            0.000549710821           
       3.008715              0.0160851707            0.000464025814           
       3.011355              0.0183958259            0.000501397477           
       3.013995              0.0158095222            0.000462543803           
       3.016636              0.0277063459            0.000613474686           
       3.019276               0.164991787             0.00153283229           
       3.021917               0.435551661             0.00244824303           
       3.024557               0.156115038             0.00147744209           
       3.027197              0.0771090836             0.00105577047           
       3.029838               0.126586669             0.00134626013           
       3.032478              0.0906027392              0.0011457584           
       3.035118              0.0619558233            0.000952342577           
       3.037759              0.0892750735             0.00114520032           
       3.040399              0.0696122098             0.00102282265           
       3.043040              0.0610518886            0.000967174744           
       3.045680              0.0528279845            0.000885822659           
       3.048320              0.0740555812             0.00106563226           
       3.050961               0.127410218             0.00141176939           
       3.053601               0.122213798             0.00137656553           
       3.056242              0.0586042234            0.000959360786           
       3.058882               0.154151938             0.00157908275           
       3.061522               0.270877429             0.00207872646           
       3.064163              0.0456147786             0.00085458104           
       3.066803               0.018571313            0.000555826938           
       3.069443              0.0311914022            0.000715539445           
       3.072084              0.0916183071             0.00123724623           
       3.074724              0.0516762564            0.000934689737           
       3.077365              0.0108363733            0.000427713426           
       3.080005             0.00899747934            0.000394058628           
       3.082645             0.00891544546             0.00039425536           
       3.085286             0.00845005219            0.000383897231           
       3.087926             0.00768842677            0.000368517801           
       3.090566             0.00767356873            0.000371953846           
       3.093207             0.00817352481            0.000379732124           
       3.095847             0.00790382102            0.000381241713           
       3.098488             0.00812346206            0.000385801804           
       3.101128              0.0081960919            0.000389633629           
       3.103768             0.00843632063            0.000397529543           
       3.106409                0.01018028            0.000439614406           
       3.109049              0.0097887485            0.000434428926           
       3.111690              0.0126742782            0.000492383394           
       3.114330              0.0181040413            0.000593713184           
       3.116970              0.0178217854            0.000597261545           
       3.119611              0.0140684387            0.000527201677           
       3.122251              0.0106044582            0.000461466624           
       3.124891             0.00880760425            0.000422598798           
       3.127532              0.0071924494             0.00038876883           
       3.130172             0.00987948761              0.0004462651           
       3.132813             0.00858081805            0.000424365683           
       3.135453             0.00797988778            0.000417869008           
       3.138093              0.0071064771            0.000384981731           
       3.140734             0.00617543852             0.00036555709           
       3.143374             0.00636571378            0.000376819668           
       3.146014             0.00654285108            0.000379253399           
       3.148655             0.00578902051            0.000359545945           
       3.151295             0.00643872152            0.000382186797           
       3.153936             0.00616948827            0.000379633803           
       3.156576             0.00700160513            0.000399783454           
       3.159216             0.00648366396            0.000387858951           
       3.161857             0.00663695258            0.000397230997           
       3.164497             0.00651706537            0.000401926688           
       3.167138             0.00601226928            0.000376784969           
       3.169778             0.00606117222              0.0003851454           
       3.172418             0.00614843442            0.000390174639           
       3.175059             0.00550289467            0.000373954734           
       3.177699              0.0062676785            0.000397519117           
       3.180339             0.00642851779            0.000406185846           
       3.182980             0.00599874541            0.000397670389           
       3.185620             0.00603172673            0.000403119639           
       3.188261             0.00625917029            0.000405269627           
       3.190901             0.00606039053            0.000404927219           
       3.193541             0.00608632169             0.00040712976           
       3.196182             0.00552104115            0.000395830552           
       3.198822             0.00550360891            0.000390414292           
       3.201463             0.00615839607               0.000418327           
       3.204103             0.00525830492            0.000391696745           
       3.206743             0.00640641341            0.000436004464           
       3.209384             0.00528912488            0.000394398313           
       3.212024               0.005859144            0.000416581801           
       3.214664             0.00642932015            0.000444698464           
       3.217305             0.00559914628            0.000424678136           
       3.219945             0.00563880325            0.000422615684           
       3.222586             0.00577975945            0.000430286664           
       3.225226             0.00519078025             0.00041696028           
       3.227866             0.00557811396            0.000435580993           
       3.230507             0.00564558667            0.000443436505           
       3.233147             0.00578786187            0.000442348242           
       3.235787              0.0060186857            0.000451205199           
       3.238428             0.00558965512            0.000442505809           
       3.241068             0.00576720828            0.000458593261           
       3.243709              0.0060602798            0.000467491751           
       3.246349             0.00746761153            0.000516038083           
       3.248989             0.00541288682            0.000449386769           
       3.251630             0.00598349618             0.00047457021           
       3.254270              0.0063295564            0.000503104484           
       3.256911             0.00623089622            0.000486660976           
       3.259551             0.00473219393            0.000433485694           
       3.262191             0.00614654391            0.000498581515           
       3.264832             0.00523609586            0.000464494396           
       3.267472             0.00678289848            0.000536166922           
       3.270112             0.00605265093            0.000507925181           
       3.272753             0.00602686246            0.000513070618           
       3.275393             0.00489971131            0.000464993036           
       3.278034             0.00542923065             0.00049944592           
       3.280674             0.00632967951             0.00054083999           
       3.283314             0.00594353291             0.00052697906           
       3.285955             0.00525812138            0.000504972876           
       3.288595             0.00502387125            0.000499103015           
       3.291235             0.00533601514            0.000517396135           
       3.293876             0.00704748003            0.000598129901           
       3.296516             0.00665963216             0.00059329765           
       3.299157             0.00638722682            0.000589818885           
       3.301797             0.00574786857            0.000559758166           
       3.304437             0.00506003015            0.000535043253           
       3.307078             0.00559105396             0.00056788161           
       3.309718             0.00565177014            0.000576656153           
       3.312359             0.00618113004            0.000615242532           
       3.314999             0.00631979728            0.000628631612           
       3.317639             0.00480951585            0.000554302451           
       3.320280               0.005662708            0.000610245202           
       3.322920             0.00613467048            0.000644670235           
       3.325560             0.00593472761            0.000646321429           
       3.328201              0.0058485726            0.000644325174           
       3.330841             0.00734088803            0.000739418738           
       3.333482             0.00530322733            0.000636452262           
       3.336122             0.00599542672            0.000691423045           
       3.338762             0.00475211566            0.000621200016           
       3.341403             0.00476377609            0.000627731583           
       3.344043             0.00465605744             0.00064428023           
       3.346683             0.00521497391             0.00068877021           
       3.349324             0.00584857721            0.000740704173           
       3.351964             0.00494889105            0.000703259793           
       3.354605             0.00536539297            0.000740547395           
       3.357245             0.00587531364            0.000802178019           
       3.359885             0.00498002445            0.000738800259           
       3.362526             0.00501822516            0.000779548757           
       3.365166             0.00572724919            0.000822519087           
       3.367807             0.00710162461            0.000980447211           
       3.370447             0.00456267158            0.000786182389           
       3.373087             0.00417711314            0.000793904492           
       3.375728             0.00720212645              0.0010345824           
       3.378368             0.00567740765            0.000992577915           
       3.381008             0.00507659169            0.000930405506           
       3.383649             0.00511951822             0.00101115861           
       3.386289              0.0057264822             0.00106986201           
       3.388930             0.00665305117              0.0012664681           
       3.391570             0.00593800031             0.00119697752           
       3.394210             0.00489317215             0.00116424519           
       3.396851              0.0063698038             0.00143891557           
       3.399491             0.00559544436              0.0013730963           
       3.402131             0.00643031601             0.00174239921           
       3.404772             0.00551122093             0.00161376952           
       3.407412              0.0021233412             0.00124295439           
       3.410053             0.00897687418             0.00266118251           
       3.412693             0.00889499145             0.00374784729           
       3.415333             0.00658286228             0.00395037866           
