################################################################################
# EDF_DataBlockID                     0.Image.Psd
# EDF_BinarySize                      4366944
# EDF_HeaderSize                      2560
# ByteOrder                           LowByteFirst
# DataType                            FloatValue
# Dim_1                               1028
# Dim_2                               1062
# Image                               0
# HeaderID                            EH:000000:000000:000000
# Size                                4366944
# Center_1                            607.5320
# Center_2                            651.4720
# Comment                             Xenocs_Cell_Window - front_window_open_only
# DDummy                              0.6
# Date                                2025-10-19T06:26:37
# Delta                               0
# Dummy                               -1.5
# ExposureTime                        360
# Gamma                               0
# Intensity1                          9.03302e-10
# PSize_1                             7.5e-05
# PSize_2                             7.5e-05
# Pressure                            0.0331144
# SampleDistance                      0.450002
# SampleEnvKind                       large
# SampleEnvPN                         ElectroChemical cell
# SampleEnvSN                         1141
# Thickness                           0
# Wavelength                          1.541891e-10
# Wavelength                          1.54189e-10
# aux                                 0
# aux_dial                            0.002375
# beamx                               588.429
# beamx_dial                          588.429
# beamz                               657.855
# beamz_dial                          657.855
# det0x                               -0.000396875
# det0x_dial                          6.36905
# det0xvd                             -0.0005
# det0xvd_dial                        -0.0005
# det0y                               450.002
# det0y_dial                          481.635
# det0z                               0
# det0z_dial                          1.2295
# det0zvd                             0
# det0zvd_dial                        0
# mag                                 1.818
# mag_dial                            1.818
# om                                  0.2499
# om_dial                             -0.610199
# phi                                 -0.0120535
# phi_dial                            0
# ry                                  0.599993
# ry_dial                             0.599993
# s1bot                               0.8
# s1bot_dial                          -1.66094
# s1hl                                0.8
# s1hl_dial                           -0.608437
# s1hr                                0.8
# s1hr_dial                           0.970938
# s1top                               0.8
# s1top_dial                          -0.461562
# s2bot                               0.45
# s2bot_dial                          1.36109
# s2hl                                0.45
# s2hl_dial                           -0.83375
# s2hr                                0.45
# s2hr_dial                           -0.118594
# s2top                               0.45
# s2top_dial                          1.44734
# w2theta                             32
# w2theta_dial                        32
# waxsch                              19.2605
# waxsch_dial                         -32.7238
# waxsh                               137.085
# waxsh_dial                          -43.5335
# waxsth                              26.0607
# waxsth_dial                         -19.4068
# waxsz                               67.0407
# waxsz_dial                          -23.7962
# wind                                65.9854
# wind_dial                           66.0041
# wpsi                                124
# wpsi_dial                           124
# wstod                               115
# wstod_dial                          115
# x                                   0
# x_dial                              1.00969
# z                                   0
# z_dial                              13.3172
# CountCutoff                         15302352
# DetectorModel                       Dectris EIGER2 Si 1M, S/N E-02-0362
# ThresholdSetting                    4023.88989258
# Saturation                          0
# FlatField                           Corrected
# BackgroundReductionExtra            0.02
# BackgroundCorrectionConstant        0.0026712
# Detector                            0
# Monitor                             0
# Pil_Roi0                            0
# SumForIntensity1                    3.25189e+08
# TransmittedFlux                     903302
# det                                 0
# mon                                 0
# pilai0                              3.25189e+08
# pilai1                              692966
# pilct0                              5.61927e+08
# pilct1                              692966
# pilroi0                             0
# pilroi1                             0
# sec                                 1
# title                               20251017__0_00330.edf
# usaxs0                              0
# Operation                           Azimuthal average I(q)
# Error_model                         ErrorModel.poisson
# Geometrical_correction              True
# Transmission_correction             True
# Thickness_correction                False
# Binning mode                        Uniform
# Binning factor                      1.0
# Psi                                 0.0
# Omega                               0.2499
# MaskInvalidPixels                   True
# DetectorEdge                        3
# MaskFiles                           ['SAXS_correted.edf']
################################################################################
    q(A⁻¹)                Intensity(a.u.)            Sigma_I(a.u.)            
       0.000340                353146.791                114.156976           
       0.001019                351706.047                69.7638418           
       0.001698                348431.171                49.1002845           
       0.002377                331742.421                42.8519961           
       0.003056                299613.341                34.4181228           
       0.003735                260549.215                 28.306055           
       0.004415                204250.968                25.0620519           
       0.005094                152359.464                18.7456298           
       0.005773                 101185.69                14.1433283           
       0.006452                60733.4985                10.5858267           
       0.007131                 32975.488                7.55252304           
       0.007810                16277.2644                5.22522938           
       0.008490                 8437.4318                3.33466593           
       0.009169                3274.54857                 2.0531164           
       0.009848                1304.57225                1.24617758           
       0.010527                369.495685               0.666804272           
       0.011206                126.504984               0.368742413           
       0.011885                51.4247351               0.222497589           
       0.012564                25.5780737               0.157605011           
       0.013244                 17.370657               0.123541175           
       0.013923                 12.641511               0.107104769           
       0.014602                 9.6567022              0.0861633932           
       0.015281                7.65215705              0.0789246202           
       0.015960                6.29480241              0.0708066532           
       0.016639                5.08327049              0.0594927296           
       0.017319                4.23435426              0.0534641888           
       0.017998                3.49900668              0.0471834356           
       0.018677                3.09444775              0.0457048128           
       0.019356                2.52026265              0.0405127018           
       0.020035                  2.211048              0.0357060459           
       0.020714                1.84485933               0.033048721           
       0.021394                1.65510412              0.0294690299           
       0.022073                1.47120516              0.0291260095           
       0.022752                1.31639092              0.0260356716           
       0.023431                1.17416015              0.0240363552           
       0.024110               0.959690451              0.0227106101           
       0.024789               0.901856419              0.0205254173           
       0.025469               0.798006256              0.0197718388           
       0.026148               0.746649371              0.0181116039           
       0.026827               0.669225335              0.0172846224           
       0.027506               0.658327556              0.0177246342           
       0.028185               0.539290811               0.015362158           
       0.028864               0.550687127              0.0153132558           
       0.029544               0.504206819               0.014352325           
       0.030223               0.431182715              0.0137093591           
       0.030902               0.405736391              0.0137384471           
       0.031581               0.375594704              0.0123873969           
       0.032260               0.357043147              0.0125998827           
       0.032939               0.325890644              0.0120619295           
       0.033619               0.291957116              0.0118293572           
       0.034298               0.266642666               0.010954833           
       0.034977               0.265686567              0.0108473643           
       0.035656               0.259444783               0.011249155           
       0.036335               0.216988405              0.0100260673           
       0.037014               0.217515079              0.0105837054           
       0.037693               0.192303184             0.00968486556           
       0.038373                0.18112068             0.00981898636           
       0.039052               0.163112612             0.00916515645           
       0.039731               0.173201181             0.00976773228           
       0.040410               0.154262101             0.00921826134           
       0.041089               0.152352991              0.0095749191           
       0.041768               0.164818466              0.0104850026           
       0.042448               0.125738918             0.00851539914           
       0.043127                0.13290524             0.00914400888           
       0.043806               0.129774323             0.00941802743           
       0.044485               0.130228672             0.00905151337           
       0.045164               0.120606565             0.00922276292           
       0.045843               0.117902935             0.00842325719           
       0.046523               0.123586651             0.00886827258           
       0.047202               0.124200347             0.00932957869           
       0.047881               0.105993579             0.00853802046           
       0.048560                0.11076208              0.0088667584           
       0.049239               0.101947556              0.0080778977           
       0.049918              0.0799805929             0.00804019062           
       0.050598               0.089300833              0.0079872544           
       0.051277              0.0905544447             0.00781933723           
       0.051956              0.0992071556             0.00908832908           
       0.052635              0.0749322473             0.00808299466           
       0.053314              0.0888976604             0.00832610973           
       0.053993              0.0774505282             0.00812237585           
       0.054673              0.0871713478             0.00830360951           
       0.055352               0.076204067             0.00821636339           
       0.056031              0.0799157901             0.00838065612           
       0.056710              0.0897048418             0.00887914426           
       0.057389               0.065823971             0.00760600777           
       0.058068              0.0783239551             0.00807556768           
       0.058748               0.072992424             0.00782537326           
       0.059427              0.0676393701             0.00686366263           
       0.060106              0.0608362048             0.00786183704           
       0.060785              0.0615204544             0.00715717866           
       0.061464              0.0502483666             0.00678153103           
       0.062143              0.0610811655               0.007052537           
       0.062822              0.0613850128             0.00755823665           
       0.063502              0.0639905805             0.00806323455           
       0.064181              0.0666035361             0.00807933707           
       0.064860              0.0530200698             0.00774060813           
       0.065539              0.0565329332             0.00783466399           
       0.066218              0.0486487664             0.00761142288           
       0.066897              0.0512558685             0.00764995949           
       0.067577              0.0516384869             0.00797150762           
       0.068256              0.0384253456             0.00658980546           
       0.068935              0.0439859122             0.00723758874           
       0.069614               0.055974374              0.0078345571           
       0.070293              0.0548678242             0.00826316015           
       0.070972              0.0508617991             0.00758170854           
       0.071652              0.0456978331             0.00741719979           
       0.072331               0.040940687             0.00748209466           
       0.073010              0.0417941939             0.00790919243           
       0.073689              0.0467737338             0.00780698676           
       0.074368              0.0454771584             0.00748116546           
       0.075047              0.0368494396             0.00697062402           
       0.075727              0.0513627857             0.00908024592           
       0.076406              0.0413332784             0.00845784992           
       0.077085              0.0501940019             0.00849732905           
       0.077764              0.0361537333             0.00756365284           
       0.078443              0.0288772932             0.00632323681           
       0.079122              0.0392558005             0.00771789276           
       0.079802              0.0597452749              0.0102492409           
       0.080481              0.0634686806             0.00955535684           
       0.081160              0.0285667908             0.00765505927           
       0.081839              0.0333438817             0.00765692798           
       0.082518               0.024781234             0.00621800785           
       0.083197              0.0394509101             0.00860644266           
       0.083876              0.0487896859             0.00802135656           
       0.084556              0.0368635916             0.00846422364           
       0.085235              0.0385805689             0.00804711803           
       0.085914              0.0271675773             0.00642087472           
       0.086593              0.0391081448             0.00816412041           
       0.087272              0.0367694495             0.00736966281           
       0.087951               0.021982351             0.00637086932           
       0.088631              0.0503679285             0.00919484864           
       0.089310              0.0363325373             0.00758299532           
       0.089989              0.0223045241              0.0055927726           
       0.090668              0.0527754084             0.00948431205           
       0.091347              0.0301642013             0.00734174318           
       0.092026              0.0295405186             0.00616894968           
       0.092706              0.0341762002             0.00829725524           
       0.093385              0.0380273526             0.00811361647           
       0.094064              0.0565001436             0.00996812404           
       0.094743              0.0295848053              0.0067946415           
       0.095422              0.0368772434             0.00825216096           
       0.096101              0.0375374557             0.00972238287           
       0.096781              0.0326417918             0.00770000979           
       0.097460              0.0246277133             0.00685914165           
       0.098139              0.0297842047             0.00796646683           
       0.098818              0.0339599123             0.00760858093           
       0.099497              0.0422467507             0.00922560411           
       0.100176              0.0254803826             0.00659065236           
       0.100856              0.0280440288             0.00751664023           
       0.101535              0.0305649967             0.00848889115           
       0.102214              0.0295004224             0.00678539808           
       0.102893              0.0246247747              0.0063817794           
       0.103572              0.0343123603             0.00731799433           
       0.104251               0.034346283             0.00789902555           
       0.104931              0.0319248575             0.00824829735           
       0.105610              0.0271354465             0.00726332083           
       0.106289              0.0219671216             0.00665292199           
       0.106968              0.0236976261             0.00576565615           
       0.107647              0.0275688572              0.0071358643           
       0.108326              0.0341389884             0.00829391594           
       0.109005              0.0306947476             0.00656201382           
       0.109685              0.0270201844             0.00724816915           
       0.110364               0.027532182             0.00650995992           
       0.111043              0.0158137905             0.00564500154           
       0.111722              0.0272056507              0.0064268534           
       0.112401              0.0262332821             0.00679342917           
       0.113080              0.0304074582             0.00762276677           
       0.113760              0.0285717452             0.00738913493           
       0.114439              0.0258900743             0.00595204757           
       0.115118              0.0249869932             0.00607675889           
       0.115797               0.026358188             0.00641471089           
       0.116476              0.0119408507             0.00458352001           
       0.117155              0.0205825311             0.00597054529           
       0.117835              0.0335462537             0.00750598922           
       0.118514              0.0205559568             0.00596677926           
       0.119193                0.03036321             0.00698414871           
       0.119872              0.0182527586             0.00580705261           
       0.120551              0.0118801713             0.00453619769           
       0.121230              0.0191669959             0.00580738552           
       0.121910               0.014935909             0.00500865176           
       0.122589              0.0236309751             0.00611747206           
       0.123268               0.022267423             0.00598127908           
       0.123947              0.0290315157             0.00634273702           
       0.124626               0.017892877             0.00497949486           
       0.125305              0.0267279383             0.00632791125           
       0.125985              0.0159235243             0.00505815081           
       0.126664              0.0284228199             0.00690974234           
       0.127343              0.0220698332             0.00666993724           
       0.128022              0.0352872917             0.00752994058           
       0.128701              0.0255573804             0.00587843523           
       0.129380              0.0327587887             0.00753334485           
       0.130059              0.0216599953              0.0062745344           
       0.130739              0.0230892926             0.00642584749           
       0.131418              0.0244959542             0.00614193529           
       0.132097               0.032611318             0.00729218288           
       0.132776              0.0194816379             0.00590266731           
       0.133455              0.0068912222             0.00351064644           
       0.134134              0.0287758582             0.00661136468           
       0.134814              0.0255113324             0.00602228393           
       0.135493              0.0180209541             0.00572360337           
       0.136172              0.0157180815             0.00475777298           
       0.136851              0.0364194087             0.00714999302           
       0.137530              0.0313632766             0.00685569017           
       0.138209              0.0132159956             0.00445035437           
       0.138889              0.0177712887              0.0051606883           
       0.139568               0.016297044             0.00494204136           
       0.140247              0.0232495343             0.00602627857           
       0.140926              0.0173609924             0.00484569025           
       0.141605              0.0217749849             0.00546028719           
       0.142284              0.0185503861             0.00538306813           
       0.142964              0.0208274558             0.00558713065           
       0.143643              0.0142430296             0.00478483353           
       0.144322              0.0190457066             0.00553309496           
       0.145001              0.0190526222             0.00553414669           
       0.145680              0.0220654687             0.00536597867           
       0.146359              0.0144003563             0.00458443277           
       0.147039               0.022420012             0.00579711226           
       0.147718              0.0263445075             0.00681064269           
       0.148397              0.0143118645             0.00479668344           
       0.149076              0.0228322152             0.00593102255           
       0.149755              0.0231273396             0.00546183934           
       0.150434              0.0220390755             0.00590985947           
       0.151114              0.0234515369             0.00570261845           
       0.151793              0.0185843032             0.00538867112           
       0.152472              0.0180801267             0.00503881811           
       0.153151              0.0213987341             0.00574213939           
       0.153830              0.0120006203             0.00402944165           
       0.154509              0.0331703648             0.00678240714           
       0.155188              0.0164422976                0.00477523           
       0.155868              0.0152911379             0.00427110916           
       0.156547              0.0168348173             0.00536060318           
       0.157226               0.018120659             0.00486348711           
       0.157905             0.00623059399             0.00316530105           
       0.158584              0.0194595603             0.00504006188           
       0.159263              0.0195426942             0.00591397517           
       0.159943              0.0158714639              0.0046063488           
       0.160622              0.0209232328             0.00542116346           
       0.161301              0.0178336504             0.00539463092           
       0.161980              0.0159868836             0.00446464868           
       0.162659               0.018581874             0.00538914605           
       0.163338               0.013014415             0.00414649995           
       0.164018              0.0208738474             0.00559498029           
       0.164697              0.0219452232             0.00535276389           
       0.165376              0.0240163027             0.00584558187           
       0.166055                0.01717738             0.00479254062           
       0.166734              0.0215469518             0.00524281416           
       0.167413              0.0189422565              0.0049157737           
       0.168093              0.0200088005             0.00537038386           
       0.168772              0.0194312568               0.005037156           
       0.169451               0.021742975             0.00583014528           
       0.170130              0.0208604044             0.00541378658           
       0.170809              0.0154551844             0.00491547828           
       0.171488              0.0146327589             0.00445060552           
       0.172168              0.0165444924               0.005015711           
       0.172847              0.0180586858             0.00546987518           
       0.173526              0.0258126252             0.00610024604           
       0.174205              0.0130172871             0.00414764374           
       0.174884              0.0302940705             0.00678739005           
       0.175563              0.0164050671             0.00457530369           
       0.176243              0.0247410366             0.00555531846           
       0.176922              0.0138731027             0.00441542799           
       0.177601               0.011894026             0.00378857012           
       0.178280              0.0181054631             0.00504429691           
       0.178959              0.0289425525              0.0060428403           
       0.179638              0.0157232683             0.00455879665           
       0.180317              0.0176610397             0.00459187783           
       0.180997              0.0106646033             0.00358762501           
       0.181676              0.0168218099             0.00489353202           
       0.182355              0.0104006069             0.00350512235           
       0.183034              0.0255061606             0.00557885206           
       0.183713              0.0185866871             0.00498666217           
       0.184392              0.0178708224             0.00480369902           
       0.185072              0.0130333272             0.00415093241           
       0.185751              0.0127988961             0.00388852618           
       0.186430               0.012984414             0.00414323208           
       0.187109              0.0225390687              0.0051879922           
       0.187788              0.0162203076              0.0045244495           
       0.188467              0.0119964692             0.00382638453           
       0.189147              0.0174724469             0.00555001519           
       0.189826              0.0118105619             0.00397547647           
       0.190505              0.0172267881             0.00446441162           
       0.191184              0.0144689873             0.00404957177           
       0.191863              0.0238946856             0.00565483118           
       0.192542              0.0175451413             0.00455331458           
       0.193222              0.0138040611             0.00371672105           
       0.193901              0.0235754809             0.00590912057           
       0.194580              0.0193320381             0.00485787771           
       0.195259               0.022689667             0.00587606353           
       0.195938              0.0197218171             0.00510708168           
       0.196617              0.0120034894              0.0038280472           
       0.197297              0.0182193911             0.00503003684           
       0.197976              0.0195141959             0.00475219761           
       0.198655              0.0140100578             0.00406926829           
       0.199334             0.00417716449             0.00215430002           
       0.200013              0.0175333681             0.00455238963           
       0.200692               0.014535687             0.00464048271           
       0.201371              0.0117536274             0.00374736348           
       0.202051              0.0132182589             0.00401747431           
       0.202730             0.00716188426             0.00297361316           
       0.203409              0.0156972263             0.00455689904           
       0.204088              0.0157909515             0.00410762192           
       0.204767              0.0106214509             0.00379396608           
       0.205446              0.0258684266             0.00565167783           
       0.206126              0.0114318423             0.00347842806           
       0.206805              0.0158753561             0.00426482164           
       0.207484              0.0135182516             0.00410861645           
       0.208163               0.015885254             0.00442906044           
       0.208842              0.0197796172              0.0045540495           
       0.209521              0.0203315241             0.00468396264           
       0.210201              0.0205156211             0.00472819343           
       0.210880              0.0156479203             0.00475271053           
       0.211559              0.0164804149             0.00428004122           
       0.212238              0.0214894932             0.00481574829           
       0.212917              0.0149353815             0.00401480816           
       0.213596              0.0126081453             0.00367104512           
       0.214276              0.0213206591             0.00534377359           
       0.214955               0.020596976             0.00501618744           
       0.215634              0.0157123962             0.00438125461           
       0.216313              0.0179677989             0.00465969358           
       0.216992              0.0154017265             0.00429094588           
       0.217671               0.010115016             0.00361617768           
       0.218351              0.0163056596             0.00439163869           
       0.219030              0.0179749768             0.00466087543           
       0.219709              0.0247015384             0.00568441068           
       0.220388              0.0107819408             0.00362966725           
       0.221067              0.0191196537             0.00465770399           
       0.221746              0.0171894222             0.00446216339           
       0.222426               0.021292654             0.00477149776           
       0.223105              0.0157001906             0.00438020488           
       0.223784              0.0122376179             0.00372652471           
       0.224463               0.016491129             0.00428252262           
       0.225142              0.0256117133             0.00513556328           
       0.225821              0.0221192689             0.00472906841           
       0.226500              0.0032579402             0.00195300088           
       0.227180               0.012512594             0.00364063854           
       0.227859               0.010779206             0.00362975567           
       0.228538              0.0139228435             0.00362271273           
       0.229217              0.0119078341             0.00347006089           
       0.229896              0.0185465726             0.00466007505           
       0.230575             0.00848116094             0.00304128089           
       0.231255               0.017559918             0.00455861334           
       0.231934              0.0127746047              0.0038882229           
       0.232613              0.0124247704             0.00377490276           
       0.233292              0.0129295337             0.00393281771           
       0.233971              0.0169036881             0.00438064758           
       0.234650             0.00884530896             0.00316890727           
       0.235330              0.0111183257             0.00374930773           
       0.236009               0.018925958             0.00461201172           
       0.236688              0.0115801907             0.00351987004           
       0.237367              0.0168475285             0.00437368015           
       0.238046              0.0193530073             0.00471179481           
       0.238725              0.0183970732             0.00435378109           
       0.239405              0.0128791681             0.00374847432           
       0.240084               0.018421192             0.00435676566           
       0.240763              0.0118227994             0.00421665175           
       0.241442               0.022799695              0.0048697039           
       0.242121              0.0123214356              0.0039252925           
       0.242800              0.0172292948             0.00419433584           
       0.243480              0.0142363287             0.00398059923           
       0.244159              0.0198433571              0.0043448077           
       0.244838              0.0138499636             0.00386872534           
       0.245517              0.0130284293             0.00415504369           
       0.246196             0.00980616862             0.00330388539           
       0.246875              0.0160000894             0.00430732427           
       0.247554              0.0141602955             0.00411702555           
       0.248234              0.0101915013             0.00343778388           
       0.248913               0.014977857             0.00435297031           
       0.249592             0.00725257327              0.0027863649           
       0.250271              0.0142987288             0.00415977823           
       0.250950              0.0135653788             0.00394595461           
       0.251629              0.0122851184             0.00392033578           
       0.252309             0.00781132751             0.00299441276           
       0.252988               0.018345183             0.00461282938           
       0.253667              0.0179916709               0.004666495           
       0.254346             0.00595697849             0.00248987135           
       0.255025              0.0113887397             0.00363466335           
       0.255704              0.0229797086             0.00491347091           
       0.256384              0.0106143173             0.00338768962           
       0.257063              0.0207893011             0.00478787023           
       0.257742              0.0195206966             0.00475884405           
       0.258421              0.0109004891             0.00318074619           
       0.259100              0.0172004487             0.00498802051           
       0.259779             0.00815999159              0.0031261795           
       0.260459               0.012791519              0.0035827527           
       0.261138              0.0113539578             0.00362963081           
       0.261817              0.0162702264             0.00453823664           
       0.262496              0.0107718788             0.00363131065           
       0.263175              0.0076239117             0.00316100307           
       0.263854             0.00903073839             0.00323726705           
       0.264534              0.0106913166             0.00341723812           
       0.265213              0.0117997066             0.00359006763           
       0.265892              0.0113246075             0.00380825233           
       0.266571              0.0172075698             0.00461550443           
       0.267250              0.0109041295             0.00367419518           
       0.267929              0.0113600846             0.00363120158           
       0.268609              0.0120353706             0.00383894156           
       0.269288              0.0191959771             0.00467198722           
       0.269967              0.0188887256             0.00506653339           
       0.270646              0.0100080163             0.00337353328           
       0.271325              0.0120306983             0.00383845151           
       0.272004                0.01614416             0.00406286566           
       0.272683             0.00800201319              0.0033181991           
       0.273363              0.0185893697             0.00467007106           
       0.274042              0.0197163519             0.00453191413           
       0.274721               0.016571647              0.0044566527           
       0.275400              0.0151847122             0.00424340085           
       0.276079              0.0112769284             0.00380117924           
       0.276758               0.011465168             0.00348887065           
       0.277438              0.0157095855             0.00456604361           
       0.278117              0.0220704225             0.00538022178           
       0.278796              0.0129991381             0.00394755555           
       0.279475             0.00842622138             0.00349293225           
       0.280154              0.0125570512             0.00447220257           
       0.280833              0.0186859204             0.00520171299           
       0.281513               0.010283028             0.00465119151           
       0.282192              0.0145997777             0.00442877189           
       0.282871             0.00891897364             0.00369107202           
       0.283550             0.00958334306              0.0039643175           
       0.284229             0.00506269965             0.00299359744           
       0.284908             0.00719169964             0.00327012719           
       0.285588             0.00989912514             0.00378652061           
       0.286267              0.0162536328             0.00516316585           
       0.286946             0.00556220832             0.00329904905           
       0.287625             0.00781273537             0.00355375293           
       0.288304             0.00991049584             0.00378895953           
       0.288983             0.00831827745             0.00344901618           
       0.289663              0.0121709118             0.00434238946           
       0.290342             0.00618461614             0.00364246601           
       0.291021              0.0277987836             0.00718929063           
       0.291700             0.00861478982             0.00390579078           
       0.292379              0.0140761424             0.00448702929           
       0.293058              0.0123849301             0.00472088074           
       0.293738              0.0067264005             0.00342437218           
       0.294417              0.0118069627             0.00450194698           
       0.295096              0.0117208042             0.00483259303           
       0.295775             0.00336932949             0.00248261938           
       0.296454             0.00909297921             0.00411233692           
       0.297133             0.00495427381             0.00293913765           
       0.297812                0.01217203             0.00409511653           
       0.298492             0.00836575686             0.00378992621           
       0.299171             0.00904343163             0.00374406939           
       0.299850              0.0130284075             0.00496444516           
       0.300529             0.00978377553              0.0037416701           
       0.301208              0.0224964967             0.00582517253           
       0.301887               0.013525752             0.00454772737           
       0.302567             0.00204287287             0.00217963276           
       0.303246                0.01356384             0.00482643115           
       0.303925             0.00907109711             0.00410822546           
       0.304604              0.0100640703              0.0045614021           
       0.305283              0.0157357953             0.00528068312           
       0.305962             0.00560240051             0.00331263673           
       0.306642              0.0124317212             0.00511752624           
       0.307321              0.0137419559             0.00523444055           
       0.308000              0.0211976654             0.00589981282           
       0.308679              0.0242479766             0.00701637054           
       0.309358              0.0161206357             0.00612400199           
       0.310037              0.0152040958             0.00541053749           
       0.310717              0.0146757105             0.00522644195           
       0.311396             0.00791672091             0.00400941605           
       0.312075              0.0126077673             0.00480454549           
       0.312754              0.0065085732             0.00381297994           
       0.313433              0.0117675673             0.00449677903           
       0.314112               0.013980389             0.00497866451           
       0.314792              0.0199541995             0.00755992337           
       0.315471              0.0192847484             0.00684334832           
       0.316150              0.0421111508              0.0103400062           
       0.316829              0.0109561637             0.00553167825           
       0.317508              0.0131742376             0.00542554561           
       0.318187               0.021172249             0.00750470144           
       0.318866             0.00430041146             0.00313141082           
       0.319546             0.00614524203             0.00442922235           
       0.320225              0.0138175735             0.00621278749           
       0.320904              0.0140066615             0.00577067511           
       0.321583              0.0166580586             0.00592640441           
       0.322262             0.00498737236             0.00360020489           
       0.322941              0.0056153364             0.00331806728           
       0.323621              0.0116389353             0.00526078564           
       0.324300              0.0122033982             0.00550534843           
       0.324979             0.00855011773             0.00432873512           
       0.325658             0.00775065586             0.00454164566           
       0.326337              0.0134400818             0.00605322762           
       0.327016               0.004232611             0.00307613751           
       0.327696              0.0151870905             0.00576961881           
       0.328375              0.0129154186             0.00651656578           
       0.329054             0.00265830023             0.00279655561           
       0.329733               0.014361136             0.00590795022           
       0.330412             0.00869861959             0.00441032824           
       0.331091              0.0214987474             0.00880574033           
       0.331771              0.0104800073             0.00528207006           
       0.332450             0.00713379469             0.00515650746           
       0.333129              0.0025432153             0.00266641203           
       0.333808              0.0134541308             0.00605773761           
       0.334487              0.0184454409             0.00756966396           
       0.335166              0.0112408346             0.00567753357           
       0.335846              0.0144471681              0.0073389288           
       0.336525             0.00936018046             0.00546913805           
       0.337204               0.013537261             0.00555888346           
       0.337883              0.0140357976             0.00534277279           
       0.338562              0.0158630651             0.00649991383           
       0.339241             0.00998773752             0.00581866366           
       0.339921             0.00252334089             0.00265652205           
       0.340600           -0.000298838507                         0           
       0.341279              0.0083448973             0.00489274695           
       0.341958              0.0129844139             0.00653665421           
       0.342637              0.0149173909             0.00671643778           
       0.343316              0.0179755168             0.00737296344           
       0.343995              0.0167924346             0.00639129394           
       0.344675             0.00813639007             0.00477096313           
       0.345354             0.00332626471             0.00346518263           
       0.346033               0.010996804              0.0055467825           
       0.346712               0.005201982             0.00376824968           
       0.347391              0.0114850501             0.00522967199           
       0.348070             0.00244928346             0.00258579146           
       0.348750              0.0025931106             0.00272805951           
       0.349429              0.0122554942             0.00617303191           
       0.350108             0.00402042703              0.0041604802           
       0.350787              0.0489421462              0.0132942495           
       0.351466              0.0233663601             0.00829691605           
       0.352145              0.0074144178             0.00439366478           
       0.352825             0.00650604659             0.00469822126           
       0.353504             0.00933426587             0.00546446027           
       0.354183              0.0217864036             0.00823173947           
       0.354862              0.0178136196             0.00802150081           
       0.355541              0.0090565097             0.00530761515           
       0.356220             0.00614415365             0.00443379894           
       0.356900              0.0088975351             0.00518945688           
       0.357579              0.0035905129             0.00372372489           
       0.358258             0.00653255746              0.0047086018           
       0.358937              0.0229951911             0.00870354912           
       0.359616             0.00348892809             0.00360921432           
       0.360295              0.0152730332             0.00768069207           
       0.360975              0.0127981115             0.00742561319           
       0.361654              0.0121984472             0.00616109529           
       0.362333              0.0122005413             0.00551123203           
       0.363012               0.013271054             0.00771185361           
       0.363691             0.00371665179             0.00385639646           
       0.364370             0.00995104052             0.00711898317           
       0.365050              0.0171207293             0.00858971221           
       0.365729           -0.000299319337                         0           
       0.366408              0.0205512002             0.00923550096           
       0.367087              0.0124420765             0.00562930589           
       0.367766              0.0113926737             0.00663526806           
       0.368445             0.00996245208             0.00712403259           
       0.369124           -0.000299386509                         0           
       0.369804             0.00393024971             0.00403926161           
       0.370483           -0.000299414527                         0           
       0.371162              0.0119319653             0.00691146056           
       0.371841              0.0040263196             0.00416649692           
       0.372520             0.00842597437             0.00602749988           
       0.373199              0.0144116041             0.00838137066           
       0.373879              0.0114494202             0.00665311827           
       0.374558              0.0142761067             0.00718566679           
       0.375237             0.00811508414             0.00580520884           
       0.375916             0.00395400799             0.00405228695           
       0.376595              0.0147568201              0.0074269159           
       0.377274              0.0113526904             0.00662572236           
       0.377954             0.00391197181             0.00403096505           
       0.378633           -0.000299580274                         0           
       0.379312           -0.000299593023                         0           
       0.379991             0.00954557171             0.00682276136           
       0.380670             0.00722056715             0.00519588713           
       0.381349              0.0184467864               0.010721827           
       0.382029               0.011110366             0.00789409591           
       0.382708              0.0158876152             0.00797838016           
       0.383387              0.0167665185             0.00754987792           
       0.384066             0.00995821402             0.00712632024           
       0.384745             0.00438883929             0.00452965703           
       0.385424               0.017042574             0.00857603835           
       0.386104              0.0205571375             0.00924304283           
       0.386783              0.0166204609             0.00965679869           
       0.387462              0.0122561613             0.00713725112           
       0.388141             0.00775836806             0.00557638397           
       0.388820             0.00535265128             0.00548056906           
       0.389499             0.00374223061              0.0038730546           
       0.390178              0.0242809928              0.0108854217           
       0.390858              0.0335771509              0.0112085505           
       0.391537             0.00461431238             0.00474557332           
       0.392216            -0.00029986468                         0           
       0.392895               0.017548878              0.0101828117           
       0.393574             0.00536847941             0.00548960049           
       0.394253             0.00460440577             0.00474094149           
       0.394933              0.0166301106             0.00966237922           
       0.395612           -0.000299937709                         0           
       0.396291              0.0280208896              0.0140234409           
       0.396970              0.0193860859             0.00972892808           
       0.397649             0.00838563953             0.00851119402           
       0.398328              0.0037406024             0.00387343868           
       0.399008             0.00441066855             0.00454320653           
       0.399687              0.0095162306             0.00681703308           
       0.400366           -0.000300040591                         0           
       0.401045              0.0130081649             0.00927110617           
       0.401724              0.0279508656              0.0140086297           
       0.402403              0.0294213201              0.0131893571           
       0.403083             0.00909421631              0.0065246369           
       0.403762             0.00506525366             0.00520574351           
       0.404441             0.00910549234             0.00652902553           
       0.405120           -0.000300144373                         0           
       0.405799           -0.000300158312                         0           
       0.406478             0.00507133808             0.00520938148           
       0.407158              0.0129820261             0.00926384731           
       0.407837              0.0127417611             0.00742135288           
       0.408516               0.007213365             0.00735174861           
       0.409195               0.010434184             0.00747304545           
       0.409874             0.00834079554             0.00849223022           
       0.410553             0.00677880174             0.00690107433           
       0.411233             0.00783915525             0.00793380418           
       0.411912              0.0059909773              0.0061169474           
       0.412591             0.00597121567             0.00610700681           
       0.413270              0.0235683196              0.0118095095           
       0.413949           -0.000300341733                         0           
       0.414628           -0.000300359363                         0           
       0.415307           -0.000300373806                         0           
       0.415987           -0.000300389296                         0           
       0.416666              0.0144629681              0.0084094358           
       0.417345              0.0223847162              0.0158666856           
       0.418024             0.00783673072             0.00793462677           
       0.418703             0.00636719331             0.00649059129           
       0.419382            -0.00030046379                         0           
       0.420062           -0.000300480985                         0           
       0.420741           -0.000300498568                         0           
       0.421420             0.00571267365             0.00581596313           
       0.422099            -0.00030052908                         0           
       0.422778           -0.000300543692                         0           
       0.423457           -0.000300559874                         0           
       0.424137              0.0100293151             0.00716222927           
       0.424816              0.0067538069             0.00689206953           
       0.425495              0.0185451478              0.0131877503           
       0.426174             0.00916610169             0.00927170696           
       0.426853           -0.000300637074                         0           
       0.427532             0.00910429831              0.0092408736           
       0.428212               0.011045785              0.0111504152           
       0.428891              0.0158741825              0.0159771477           
       0.429570             0.00785550264             0.00794762876           
       0.430249           -0.000300716469                         0           
       0.430928              0.0273082026              0.0196036959           
       0.431607              0.0130075927             0.00928162797           
       0.432287           -0.000300765944                         0           
       0.432966             0.00860558629             0.00863361014           
       0.433645              0.0186150698              0.0132167688           
       0.434324              0.0122518516              0.0123815742           
       0.435003              0.0223343266              0.0224289029           
       0.435682             0.00776678173             0.00790453382           
       0.436361           -0.000300863135                         0           
       0.437041           -0.000300880472                         0           
       0.437720              0.0122493928              0.0123819327           
       0.438399              0.0161696617              0.0161312054           
       0.439078           -0.000300928371                         0           
       0.439757              0.0110605285              0.0111628958           
       0.440436           -0.000300963755                         0           
       0.441116              0.0275488072              0.0196978788           
       0.441795           -0.000300991889                         0           
       0.442474              0.0205182999              0.0144980952           
       0.443153           -0.000301024778                         0           
       0.443832           -0.000301041802                         0           
       0.444511           -0.000301060259                         0           
       0.445191           -0.000301075882                         0           
       0.445870           -0.000301094081                         0           
       0.446549           -0.000301106231                         0           
       0.447228           -0.000301124104                         0           
       0.447907            -0.00030114281                         0           
       0.448586           -0.000301162246                         0           
       0.449266              0.0449477868              0.0225119285           
       0.449945              0.0446982104              0.0317487471           
       0.450624              0.0541953262              0.0235703193           
       0.451303           -0.000301227506                         0           
       0.451982              0.0851653316              0.0490010977           
       0.452661           -0.000301255411                         0           
       0.453341               0.018577685              0.0186874194           
       0.454020              0.0321178067              0.0227491046           
       0.454699           -0.000301305126                         0           
       0.455378              0.0766510993              0.0536863655           
       0.456057           -0.000301345216                         0           
       0.456736              0.0422177726              0.0244002572           
       0.457416            -0.00030137698                         0           
       0.458095              0.0280823723              0.0281449682           
       0.458774           -0.000301412827                         0           
       0.459453              0.0283051425              0.0282580462           
       0.460132            -0.00030144565                         0           
       0.460811              0.0376027926              0.0376109273           
       0.461490           -0.000301480931                         0           
       0.462170           -0.000301495862                         0           
       0.462849           -0.000301516517                         0           
       0.463528           -0.000301527424                         0           
       0.464207           -0.000301546804                         0           
       0.464886           -0.000301559005                         0           
       0.465565           -0.000301584924                         0           
       0.466245           -0.000301609966                         0           
       0.466924           -0.000301615884                         0           
       0.467603           -0.000301639111                         0           
       0.468282           -0.000301651471                         0           
       0.468961           -0.000301673956                         0           
       0.469640           -0.000301688247                         0           
       0.470320                       nan                       nan           
       0.470999           -0.000301727321                         0           
       0.471678           -0.000301742172                         0           
       0.472357           -0.000301753704                         0           
       0.473036           -0.000301775205                         0           
       0.473715           -0.000301791673                         0           
       0.474395              0.0376096872              0.0376358918           
       0.475074                       nan                       nan           
       0.475753           -0.000301844588                         0           
       0.476432           -0.000301866838                         0           
       0.477111              0.0375335641              0.0376025161           
       0.477790                       nan                       nan           
       0.478470           -0.000301922454                         0           
       0.479149           -0.000301936509                         0           
       0.479828           -0.000301956551                         0           
       0.480507           -0.000301971342                         0           
       0.481186            -0.00030199145                         0           
       0.481865           -0.000302006841                         0           
       0.482545           -0.000302024948                         0           
       0.483224           -0.000302040286                         0           
       0.483903                       nan                       nan           
       0.484582                       nan                       nan           
       0.485261           -0.000302098592                         0           
