################################################################################
# EDF_DataBlockID                     0.Image.Psd
# EDF_BinarySize                      4366944
# EDF_HeaderSize                      2560
# ByteOrder                           LowByteFirst
# DataType                            FloatValue
# Dim_1                               1028
# Dim_2                               1062
# Image                               0
# HeaderID                            EH:000000:000000:000000
# Size                                4366944
# Center_1                            607.5320
# Center_2                            651.4720
# Comment                             Xenocs_Cell_Window - front_window_open_only
# DDummy                              0.6
# Date                                2025-10-18T14:22:33
# Delta                               0
# Dummy                               -1.5
# ExposureTime                        360
# Gamma                               0
# Intensity1                          9.15378e-10
# PSize_1                             7.5e-05
# PSize_2                             7.5e-05
# Pressure                            0.033433
# SampleDistance                      0.450002
# SampleEnvKind                       large
# SampleEnvPN                         ElectroChemical cell
# SampleEnvSN                         1141
# Thickness                           0
# Wavelength                          1.541891e-10
# Wavelength                          1.54189e-10
# aux                                 0
# aux_dial                            0.002375
# beamx                               588.429
# beamx_dial                          588.429
# beamz                               657.855
# beamz_dial                          657.855
# det0x                               -0.000396875
# det0x_dial                          6.36905
# det0xvd                             -0.0005
# det0xvd_dial                        -0.0005
# det0y                               450.002
# det0y_dial                          481.635
# det0z                               0
# det0z_dial                          1.2295
# det0zvd                             0
# det0zvd_dial                        0
# mag                                 1.818
# mag_dial                            1.818
# om                                  0.2499
# om_dial                             -0.610199
# phi                                 -0.0120535
# phi_dial                            0
# ry                                  0.599993
# ry_dial                             0.599993
# s1bot                               0.8
# s1bot_dial                          -1.66094
# s1hl                                0.8
# s1hl_dial                           -0.608437
# s1hr                                0.8
# s1hr_dial                           0.970938
# s1top                               0.8
# s1top_dial                          -0.461562
# s2bot                               0.45
# s2bot_dial                          1.36109
# s2hl                                0.45
# s2hl_dial                           -0.83375
# s2hr                                0.45
# s2hr_dial                           -0.118594
# s2top                               0.45
# s2top_dial                          1.44734
# w2theta                             32
# w2theta_dial                        32
# waxsch                              19.2605
# waxsch_dial                         -32.7238
# waxsh                               137.085
# waxsh_dial                          -43.5335
# waxsth                              26.0607
# waxsth_dial                         -19.4068
# waxsz                               67.0407
# waxsz_dial                          -23.7962
# wind                                65.9854
# wind_dial                           66.0041
# wpsi                                124
# wpsi_dial                           124
# wstod                               115
# wstod_dial                          115
# x                                   0
# x_dial                              1.00969
# z                                   0
# z_dial                              13.3172
# CountCutoff                         15302352
# DetectorModel                       Dectris EIGER2 Si 1M, S/N E-02-0362
# ThresholdSetting                    4023.88989258
# Saturation                          0
# FlatField                           Corrected
# BackgroundReductionExtra            0.02
# BackgroundCorrectionConstant        0.0026712
# Detector                            0
# Monitor                             0
# Pil_Roi0                            0
# SumForIntensity1                    3.29536e+08
# TransmittedFlux                     915378
# det                                 0
# mon                                 0
# pilai0                              3.29536e+08
# pilai1                              711528
# pilct0                              5.69588e+08
# pilct1                              711528
# pilroi0                             0
# pilroi1                             0
# sec                                 1
# title                               20251017__0_00184.edf
# usaxs0                              0
# Operation                           Azimuthal average I(q)
# Error_model                         ErrorModel.poisson
# Geometrical_correction              True
# Transmission_correction             True
# Thickness_correction                False
# Binning mode                        Uniform
# Binning factor                      1.0
# Psi                                 0.0
# Omega                               0.2499
# MaskInvalidPixels                   True
# DetectorEdge                        3
# MaskFiles                           ['SAXS_correted.edf']
################################################################################
    q(A⁻¹)                Intensity(a.u.)            Sigma_I(a.u.)            
       0.000340                354123.704                113.558219           
       0.001019                352557.917                69.3860169           
       0.001698                348451.042                48.7767256           
       0.002377                330987.115                 42.519911           
       0.003056                299057.201                34.1585942           
       0.003735                260942.636                28.1399444           
       0.004415                204796.066                24.9293882           
       0.005094                152585.309                18.6353662           
       0.005773                101144.476                 14.046865           
       0.006452                60702.0887                10.5130492           
       0.007131                32948.6463                7.49948571           
       0.007810                16280.8552                 5.1912209           
       0.008490                 8442.7919                3.31364888           
       0.009169                3260.59302                2.03517801           
       0.009848                1296.63747                1.23415981           
       0.010527                369.869125               0.662725953           
       0.011206                127.122546                0.36719505           
       0.011885                51.3811711               0.220931443           
       0.012564                25.6137827               0.156671216           
       0.013244                17.3100489               0.122509285           
       0.013923                12.5047231               0.105818745           
       0.014602                9.51614255              0.0849679411           
       0.015281                7.68811103               0.078586263           
       0.015960                6.17632958              0.0696729979           
       0.016639                 5.0650532              0.0589930081           
       0.017319                4.08400491               0.052158941           
       0.017998                3.47124245              0.0466848427           
       0.018677                3.02485271              0.0448888753           
       0.019356                 2.5945088              0.0408330791           
       0.020035                2.20329021              0.0354074603           
       0.020714                1.87812964              0.0331247082           
       0.021394                1.53448893              0.0281871593           
       0.022073                1.39611806               0.028185237           
       0.022752                1.19980526              0.0246915286           
       0.023431                1.10161146              0.0231278582           
       0.024110               0.983085014              0.0228336323           
       0.024789               0.859279527              0.0199024608           
       0.025469               0.793087923              0.0195803672           
       0.026148               0.749721531              0.0180287162           
       0.026827               0.692661847               0.017468298           
       0.027506               0.622763899              0.0171251439           
       0.028185               0.547209701              0.0153721234           
       0.028864               0.535507754              0.0150007926           
       0.029544               0.460045375              0.0136186635           
       0.030223               0.453700197              0.0139697044           
       0.030902               0.396421482              0.0134899551           
       0.031581                  0.359481              0.0120385601           
       0.032260               0.328995077              0.0120148154           
       0.032939               0.330793913               0.012071906           
       0.033619                0.30123106              0.0119362454           
       0.034298               0.261096897              0.0107685703           
       0.034977               0.276479956              0.0109922729           
       0.035656               0.231464337              0.0105549389           
       0.036335               0.220497985              0.0100399354           
       0.037014               0.203509368              0.0101695448           
       0.037693                0.18388344             0.00940779661           
       0.038373               0.173102829             0.00953566466           
       0.039052               0.159417981             0.00900079798           
       0.039731               0.164853356              0.0094663699           
       0.040410               0.156042879             0.00920995744           
       0.041089               0.153230152             0.00953889323           
       0.041768               0.139587081             0.00958527271           
       0.042448               0.141217283             0.00896458782           
       0.043127               0.130589346             0.00900400468           
       0.043806               0.126823382             0.00924871679           
       0.044485               0.114905665             0.00844607363           
       0.045164               0.110676173             0.00877645011           
       0.045843               0.112885999             0.00818755152           
       0.046523               0.126934311              0.0089280994           
       0.047202               0.114793219             0.00890994446           
       0.047881               0.136709657             0.00963237231           
       0.048560               0.107820857             0.00869034394           
       0.049239              0.0833589191             0.00725608275           
       0.049918               0.105246626             0.00916208627           
       0.050598              0.0957683217             0.00821669092           
       0.051277              0.0899546559             0.00774182111           
       0.051956              0.0954304416              0.0088546676           
       0.052635              0.0972448359             0.00914718447           
       0.053314              0.0846380368             0.00807041756           
       0.053993              0.0579574548             0.00697978096           
       0.054673              0.0719121582             0.00749199449           
       0.055352              0.0964007268             0.00918009062           
       0.056031              0.0953764942             0.00909491511           
       0.056710              0.0815527575             0.00841005325           
       0.057389              0.0885452573             0.00876321825           
       0.058068              0.0648401558             0.00729901123           
       0.058748               0.063741555             0.00726429958           
       0.059427              0.0598661516             0.00641450388           
       0.060106              0.0551190521             0.00743378681           
       0.060785              0.0690700075             0.00753343583           
       0.061464              0.0504829818             0.00675235907           
       0.062143              0.0497762385             0.00632439525           
       0.062822              0.0586881656             0.00734143281           
       0.063502              0.0450836005             0.00672321214           
       0.064181              0.0501564506             0.00696476925           
       0.064860              0.0443483061             0.00703249939           
       0.065539              0.0524667883             0.00749770081           
       0.066218              0.0445615648             0.00723646394           
       0.066897              0.0642719238             0.00850969975           
       0.067577              0.0462220981              0.0074919486           
       0.068256              0.0456615719              0.0071360089           
       0.068935              0.0386859607             0.00674264112           
       0.069614              0.0519463781             0.00749745235           
       0.070293              0.0442055113             0.00736786671           
       0.070972              0.0446947683             0.00706018078           
       0.071652              0.0486384093              0.0076014791           
       0.072331              0.0430954725             0.00762566477           
       0.073010              0.0426668173             0.00793844683           
       0.073689              0.0410016582             0.00726104928           
       0.074368              0.0350335152             0.00652274963           
       0.075047              0.0298254153             0.00622967967           
       0.075727              0.0489653879             0.00880712531           
       0.076406              0.0322646575              0.0074231772           
       0.077085               0.031113918             0.00664584376           
       0.077764              0.0483714668             0.00869092278           
       0.078443              0.0491116848             0.00819162142           
       0.079122              0.0357674514              0.0073182471           
       0.079802              0.0450224447             0.00883834001           
       0.080481              0.0439924553             0.00790264597           
       0.081160              0.0444765649             0.00948854671           
       0.081839              0.0380484807             0.00812515013           
       0.082518              0.0414554042             0.00798907741           
       0.083197              0.0295261704             0.00739630782           
       0.083876              0.0298408409              0.0062316864           
       0.084556              0.0325660935             0.00790291643           
       0.085235              0.0329907881             0.00739211396           
       0.085914              0.0357226115             0.00731402755           
       0.086593              0.0318166481             0.00731508297           
       0.087272              0.0231749148             0.00581205048           
       0.087951              0.0419298979             0.00874057052           
       0.088631              0.0314140602             0.00721349651           
       0.089310              0.0311067066             0.00697005478           
       0.089989              0.0330887797             0.00676686179           
       0.090668              0.0352461947             0.00769949784           
       0.091347              0.0280323464             0.00703071104           
       0.092026               0.048281366             0.00783444426           
       0.092706              0.0278349854             0.00743848192           
       0.093385              0.0271635081              0.0068120152           
       0.094064              0.0294585025             0.00715006913           
       0.094743              0.0213802476             0.00573792419           
       0.095422              0.0198939015             0.00602094553           
       0.096101              0.0222125883             0.00742944099           
       0.096781              0.0285297045             0.00715103938           
       0.097460              0.0434024781             0.00904547217           
       0.098139              0.0315174225             0.00814074865           
       0.098818               0.023395437             0.00627338897           
       0.099497               0.019659526             0.00625174032           
       0.100176              0.0234380773             0.00627917625           
       0.100856              0.0337414876             0.00819033989           
       0.101535              0.0349401418             0.00901607198           
       0.102214              0.0275611214             0.00651517232           
       0.102893              0.0325311496             0.00728654432           
       0.103572              0.0229121545             0.00594040407           
       0.104251              0.0231678719              0.0064445555           
       0.104931              0.0271814786              0.0075605365           
       0.105610              0.0247732407              0.0068940496           
       0.106289              0.0317580856             0.00794637878           
       0.106968              0.0205610236             0.00533500626           
       0.107647              0.0362713606             0.00813083925           
       0.108326               0.021736842             0.00657428883           
       0.109005              0.0191292264             0.00514600332           
       0.109685              0.0209200423             0.00633551168           
       0.110364              0.0256761455             0.00624509664           
       0.111043              0.0277069381             0.00742260913           
       0.111722              0.0253765417             0.00616596852           
       0.112401              0.0312108667             0.00736091667           
       0.113080              0.0281022454             0.00727963047           
       0.113760              0.0205618632             0.00622691155           
       0.114439              0.0309965201             0.00646952604           
       0.115118              0.0304920413             0.00666844397           
       0.115797              0.0228574876             0.00593403096           
       0.116476              0.0171485584             0.00545646729           
       0.117155              0.0255489179             0.00660795555           
       0.117835              0.0197368761              0.0057192803           
       0.118514              0.0237782985             0.00637496436           
       0.119193              0.0172168301             0.00522435264           
       0.119872              0.0198005225             0.00600822353           
       0.120551              0.0254933237             0.00660100564           
       0.121230              0.0328899103             0.00755703141           
       0.121910              0.0280689478             0.00682078445           
       0.122589               0.028046655             0.00662045686           
       0.123268               0.014040342             0.00471806785           
       0.123947              0.0231129065             0.00562192933           
       0.124626              0.0341405392             0.00683276742           
       0.125305              0.0204232974             0.00549486252           
       0.125985              0.0252114504             0.00632247823           
       0.126664              0.0263631696             0.00661063736           
       0.127343              0.0197893101             0.00627413415           
       0.128022              0.0141232257             0.00473222718           
       0.128701              0.0238812126             0.00564479282           
       0.129380              0.0236992115             0.00636512784           
       0.130059                0.01774387             0.00564147607           
       0.130739              0.0244802842              0.0065727873           
       0.131418              0.0164467225             0.00499935514           
       0.132097              0.0223381982             0.00599533834           
       0.132776              0.0245675722             0.00658465376           
       0.133455              0.0192091451              0.0058224965           
       0.134134              0.0208685296             0.00559292694           
       0.134814              0.0166157282             0.00482803708           
       0.135493              0.0232404502             0.00645682713           
       0.136172              0.0254484251             0.00601382317           
       0.136851              0.0206049879             0.00534246401           
       0.137530              0.0235474647             0.00590104323           
       0.138209              0.0160322105             0.00486919991           
       0.138889              0.0130683173             0.00439616772           
       0.139568              0.0235002142             0.00589527567           
       0.140247              0.0183400723             0.00531690435           
       0.140926              0.0210976681             0.00530642284           
       0.141605              0.0119663162             0.00402099045           
       0.142284               0.022972267             0.00595074826           
       0.142964               0.016019483              0.0048675589           
       0.143643              0.0172446196             0.00523008448           
       0.144322              0.0314933308             0.00706797699           
       0.145001              0.0172699805             0.00523402102           
       0.145680              0.0152726434             0.00443471505           
       0.146359              0.0244076019              0.0059289501           
       0.147039              0.0220804188             0.00571496657           
       0.147718              0.0172181954              0.0054695692           
       0.148397              0.0140920341             0.00472820222           
       0.149076               0.027147803             0.00642449721           
       0.149755              0.0137648461             0.00418579556           
       0.150434              0.0123360547             0.00439222785           
       0.151114              0.0176143775             0.00490951466           
       0.151793              0.0199251456             0.00554275319           
       0.152472              0.0136741651             0.00435305953           
       0.153151               0.018022306             0.00523481237           
       0.153830              0.0212530795             0.00532684681           
       0.154509              0.0134659761              0.0042928321           
       0.155188              0.0245289492             0.00579387024           
       0.155868              0.0198223888             0.00483075503           
       0.156547                0.01329097             0.00473155666           
       0.157226              0.0139971394             0.00424616309           
       0.157905               0.022061755             0.00591679573           
       0.158584              0.0178529723             0.00479557704           
       0.159263             0.00857467228             0.00389145753           
       0.159943              0.0262613571             0.00588603935           
       0.160622              0.0178832576             0.00497871969           
       0.161301             0.00943307316             0.00389748511           
       0.161980              0.0294740594             0.00602201193           
       0.162659              0.0229892685             0.00595461963           
       0.163338              0.0141514515             0.00429522663           
       0.164018              0.0220836582             0.00571674825           
       0.164697              0.0217209204             0.00529009473           
       0.165376              0.0207355911             0.00539571664           
       0.166055              0.0156319914             0.00454161949           
       0.166734              0.0237876062             0.00547221515           
       0.167413              0.0275989096             0.00589438145           
       0.168093              0.0197478094             0.00529993467           
       0.168772              0.0139293922             0.00423659831           
       0.169451              0.0183431115             0.00531952247           
       0.170130              0.0178607265             0.00497628884           
       0.170809               0.013733254              0.0046029013           
       0.171488              0.0225598597             0.00548959672           
       0.172168              0.0102398154             0.00391983779           
       0.172847              0.0128443372              0.0045825419           
       0.173526              0.0154302151             0.00468525794           
       0.174205              0.0167529894             0.00467416039           
       0.174884              0.0193634165             0.00539052713           
       0.175563              0.0136322229             0.00414314861           
       0.176243              0.0232473254             0.00534937153           
       0.176922              0.0150941873             0.00457516883           
       0.177601              0.0153015853             0.00426869723           
       0.178280              0.0178452824             0.00497477893           
       0.178959              0.0209869862             0.00511168392           
       0.179638              0.0181150796             0.00486088317           
       0.180317               0.023473816             0.00525884404           
       0.180997              0.0165385364             0.00443812446           
       0.181676              0.0124366474             0.00417978539           
       0.182355               0.013738575             0.00400185118           
       0.183034              0.0130111972             0.00395819496           
       0.183713              0.0169541734              0.0047311151           
       0.184392              0.0266732024             0.00582984958           
       0.185072             0.00891605008              0.0034105193           
       0.185751              0.0184805059             0.00464164528           
       0.186430              0.0154913949             0.00449562003           
       0.187109              0.0163518336             0.00438965926           
       0.187788              0.0172643147             0.00463689354           
       0.188467              0.0154820573             0.00431809782           
       0.189147              0.0207611315             0.00600978683           
       0.189826               0.016964256             0.00473301159           
       0.190505              0.0181182396             0.00454816617           
       0.191184              0.0142989427               0.003999063           
       0.191863              0.0116825481             0.00392784212           
       0.192542              0.0126574152              0.0038418286           
       0.193222              0.0176604815             0.00417613041           
       0.193901              0.0188278508             0.00524576942           
       0.194580              0.0142844711             0.00414816564           
       0.195259              0.0117653902             0.00420331405           
       0.195938              0.0102056643             0.00364952404           
       0.196617              0.0179666487             0.00465236003           
       0.197297              0.0233100656             0.00565187093           
       0.197976              0.0146270201             0.00408708191           
       0.198655              0.0114537771             0.00365499659           
       0.199334              0.0140633461             0.00392668424           
       0.200013              0.0126237691             0.00383722726           
       0.200692             0.00558860401             0.00285833612           
       0.201371              0.0103768302              0.0034977476           
       0.202051              0.0142420104             0.00414255116           
       0.202730              0.0119566696             0.00381673658           
       0.203409              0.0246996405             0.00567831543           
       0.204088              0.0124568664             0.00362415669           
       0.204767              0.0144435355             0.00439495596           
       0.205446              0.0156553565              0.0043675725           
       0.206126              0.0133683999             0.00373663674           
       0.206805              0.0133804501             0.00388947288           
       0.207484              0.0170383351             0.00458210637           
       0.208163              0.0106853804             0.00360849219           
       0.208842              0.0142712456             0.00384269571           
       0.209521              0.0136247756             0.00380898607           
       0.210201              0.0213596132             0.00479254107           
       0.210880              0.0269622629             0.00619737064           
       0.211559               0.015127513             0.00407346416           
       0.212238              0.0104236476             0.00333178374           
       0.212917              0.0157754649             0.00409886837           
       0.213596              0.0124484345             0.00362357906           
       0.214276              0.0143752878             0.00435885338           
       0.214955              0.0202932887             0.00494611822           
       0.215634               0.022687882             0.00522986538           
       0.216313              0.0129025012             0.00392250156           
       0.216992             0.00683405932             0.00283938286           
       0.217671              0.0138625608             0.00420537237           
       0.218351              0.0102844577             0.00346468986           
       0.219030              0.0200252948             0.00488696284           
       0.219709              0.0179103539             0.00480830248           
       0.220388              0.0142568913              0.0041461691           
       0.221067             0.00874516931             0.00312919217           
       0.221746              0.0192632711             0.00469241158           
       0.222426              0.0145525706             0.00391855489           
       0.223105              0.0167061129             0.00448844511           
       0.223784              0.0154641795             0.00416135967           
       0.224463              0.0184713754             0.00450236125           
       0.225142             0.00890083418             0.00300746357           
       0.225821              0.0107627849             0.00327694228           
       0.226500              0.0171505253             0.00445128958           
       0.227180              0.0112998707             0.00343682069           
       0.227859             0.00942394325             0.00337144896           
       0.228538             0.00813851783             0.00275143233           
       0.229217             0.00770651756             0.00277310328           
       0.229896              0.0195079758             0.00474770181           
       0.230575              0.0138007478              0.0038538645           
       0.231255              0.0138384194             0.00402004589           
       0.231934              0.0150009521             0.00418555529           
       0.232613              0.0168177851             0.00436276915           
       0.233292              0.0151701035             0.00423177832           
       0.233971              0.0177579107             0.00446025577           
       0.234650              0.0154913081               0.004165943           
       0.235330              0.0184903709               0.004803087           
       0.236009             0.00748528586             0.00288125643           
       0.236688               0.012503414             0.00363328387           
       0.237367              0.0155056446             0.00416811875           
       0.238046              0.0202484904             0.00478767559           
       0.238725              0.0109965175             0.00334376738           
       0.239405              0.0159654598             0.00414588834           
       0.240084               0.015098459             0.00391821173           
       0.240763              0.0131980903             0.00442567352           
       0.241442              0.0152044811             0.00395039105           
       0.242121              0.0133348193             0.00405649727           
       0.242800             0.00784945548             0.00281232474           
       0.243480              0.0152030396             0.00408630627           
       0.244159              0.0148408939             0.00373258122           
       0.244838              0.0104191083             0.00333330543           
       0.245517              0.0155438332              0.0045084253           
       0.246196               0.013020132             0.00378180593           
       0.246875               0.013501377              0.0039305348           
       0.247554              0.0199787833             0.00485789555           
       0.248234              0.0204292881             0.00483506544           
       0.248913              0.0123143208             0.00392086913           
       0.249592              0.0124542846             0.00362716716           
       0.250271               0.017715162             0.00459949634           
       0.250950               0.015674271             0.00421352959           
       0.251629             0.00716281223             0.00297366216           
       0.252309              0.0122791516             0.00372949194           
       0.252988              0.0112305036             0.00358527302           
       0.253667             0.00931002244             0.00333462245           
       0.254346              0.0141745202              0.0038153495           
       0.255025              0.0215344528             0.00496488883           
       0.255704              0.0174574803             0.00425425152           
       0.256384              0.0136770061             0.00382005267           
       0.257063              0.0161284091             0.00418923229           
       0.257742              0.0158307319              0.0042571658           
       0.258421              0.0144492942             0.00363785673           
       0.259100             0.00834190727             0.00345070054           
       0.259779              0.0103970302             0.00350541918           
       0.260459             0.00868676275              0.0029329253           
       0.261138              0.0204502862              0.0048389904           
       0.261817             0.00724577081             0.00300849218           
       0.262496              0.0130835324             0.00397554279           
       0.263175              0.0231913415             0.00547665236           
       0.263854              0.0169982245             0.00441199414           
       0.264534              0.0105384124             0.00337026069           
       0.265213              0.0214074564             0.00480358864           
       0.265892              0.0137032684              0.0041614288           
       0.266571              0.0144561977             0.00420245134           
       0.267250              0.0107809569             0.00362920608           
       0.267929              0.0123600788              0.0037625861           
       0.268609             0.00704585861             0.00291786356           
       0.269288             0.00986033472             0.00332627854           
       0.269967              0.0132113945             0.00420920582           
       0.270646             0.00535241398             0.00245076741           
       0.271325              0.0118746146             0.00378823274           
       0.272004              0.0139263207             0.00374851439           
       0.272683              0.0188761053             0.00506261913           
       0.273363              0.0137098366             0.00398403868           
       0.274042              0.0131275685             0.00367347247           
       0.274721              0.0163059303             0.00439152131           
       0.275400              0.0209172686             0.00494742837           
       0.276079              0.0111795048             0.00375967645           
       0.276758              0.0123497578             0.00359699743           
       0.277438             0.00630321426             0.00287312801           
       0.278117              0.0062252281             0.00283849896           
       0.278796              0.0199583945             0.00485903495           
       0.279475              0.0112107586             0.00400228012           
       0.280154              0.0155810052             0.00494870562           
       0.280833             0.00831258053             0.00344646063           
       0.281513             0.00594956461             0.00351449198           
       0.282192             0.00907414221             0.00346840043           
       0.282871              0.0102895959             0.00393831537           
       0.283550              0.0192643597             0.00558346055           
       0.284229              0.0138420574             0.00491721152           
       0.284908              0.0203036917             0.00545824004           
       0.285588             0.00830316641             0.00344492713           
       0.286267              0.0093620363             0.00389262228           
       0.286946              0.0133092711             0.00506942304           
       0.287625              0.0109252645             0.00417462917           
       0.288304             0.00983429147             0.00374938523           
       0.288983              0.0110572316                0.00395019           
       0.289663             0.00586179746             0.00299363514           
       0.290342              0.0167287365             0.00595095894           
       0.291021              0.0200581205             0.00606644847           
       0.291700              0.0190115259             0.00576383277           
       0.292379              0.0139243085             0.00443322882           
       0.293058             0.00508762865             0.00300573164           
       0.293738              0.0187063417             0.00567283669           
       0.294417             0.00822481349             0.00373259233           
       0.295096             0.00763494063             0.00387454403           
       0.295775              0.0106068799             0.00437570946           
       0.296454              0.0144817061             0.00515539214           
       0.297133             0.00663782526              0.0033795516           
       0.297812              0.0147870537             0.00448375456           
       0.298492              0.0200789697             0.00583263901           
       0.299171              0.0136208188             0.00456452004           
       0.299850              0.0110344984             0.00453855497           
       0.300529              0.0110893066             0.00395713348           
       0.301208              0.0117556332             0.00418302645           
       0.301887              0.0194702629             0.00542020696           
       0.302567             0.00431792378             0.00314786713           
       0.303246              0.0116528088             0.00444392118           
       0.303925             0.00521355276             0.00309390873           
       0.304604              0.0181487195             0.00608486255           
       0.305283              0.0155197794             0.00520960483           
       0.305962              0.0191502352             0.00608401174           
       0.306642              0.0101611786              0.0045960288           
       0.307321             0.00759538446             0.00386577993           
       0.308000              0.0143724814             0.00482587809           
       0.308679              0.0158583084             0.00563662891           
       0.309358              0.0203180298             0.00682969467           
       0.310037             0.00352144679             0.00258664559           
       0.310717              0.0144779873             0.00515675989           
       0.311396             0.00172670118             0.00186008719           
       0.312075               0.012461161              0.0047449181           
       0.312754              0.0174659737             0.00620489268           
       0.313433               0.015085683             0.00505774513           
       0.314112               0.013848472             0.00492232647           
       0.314792              0.0139448866             0.00627803862           
       0.315471             0.00452990136             0.00329474858           
       0.316150              0.0420538242              0.0102645814           
       0.316829              0.0163385133             0.00671042727           
       0.317508              0.0128669688             0.00532641556           
       0.318187             0.00501523604             0.00362837247           
       0.318866              0.0133435687             0.00547945408           
       0.319546              0.0155675078             0.00700299447           
       0.320225              0.0135663088             0.00611529915           
       0.320904              0.0138967333             0.00570994491           
       0.321583             0.00600316369             0.00353415372           
       0.322262              0.0100746083             0.00508301808           
       0.322941             0.00557484783             0.00328420348           
       0.323621             0.00915358817             0.00463453231           
       0.324300             0.00219162798             0.00231762991           
       0.324979             0.00835557772             0.00425088598           
       0.325658              0.0103178255             0.00520540304           
       0.326337              0.0159844195             0.00655768776           
       0.327016              0.0086356171             0.00436480159           
       0.327696             0.00624998121             0.00367676131           
       0.328375             0.00624100948             0.00449995543           
       0.329054             0.00554004741             0.00401046228           
       0.329733              0.0166833782             0.00632558474           
       0.330412              0.0130446234             0.00536509933           
       0.331091             0.00690479664             0.00495736611           
       0.331771              0.0208931845             0.00740869873           
       0.332450             0.00341610352             0.00354468061           
       0.333129             0.00526288821             0.00381034254           
       0.333808              0.0105464602             0.00532785313           
       0.334487             0.00280093525             0.00293021756           
       0.335166             0.00536486838             0.00389633436           
       0.335846             0.00710711573             0.00511333511           
       0.336525             0.00924265665             0.00539872785           
       0.337204               0.001979887             0.00211182837           
       0.337883              0.0138244818             0.00526730951           
       0.338562             0.00497799951             0.00361707673           
       0.339241              0.0030800259             0.00320983811           
       0.339921              0.0163736648             0.00672225002           
       0.340600              0.0149751782             0.00569353809           
       0.341279              0.0168229699             0.00690096526           
       0.341958              0.0160883257             0.00722796453           
       0.342637             0.00570971854             0.00412777639           
       0.343316              0.0147127193             0.00662619348           
       0.343995              0.0262698119             0.00794102733           
       0.344675             0.00807530941             0.00472156547           
       0.345354           -0.000294982372                         0           
       0.346033              0.0108259835             0.00546711017           
       0.346712              0.0105407497             0.00532852797           
       0.347391              0.0020656122             0.00220317325           
       0.348070              0.0159628278             0.00655760324           
       0.348750              0.0139782202             0.00629195358           
       0.349429             0.00279523122             0.00292858765           
       0.350108             0.00395006795             0.00409662207           
       0.350787              0.0294174042              0.0102386039           
       0.351466             0.00555692612             0.00401933982           
       0.352145               0.012716061             0.00571585158           
       0.352825             0.00651198397             0.00466925716           
       0.353504             0.00290794099             0.00302981586           
       0.354183             0.00587745655              0.0042472694           
       0.354862              0.0103697539              0.0060796702           
       0.355541             0.00897773918             0.00524950966           
       0.356220              0.0124253727              0.0062634833           
       0.356900             0.00572056767             0.00413354688           
       0.357579             0.00738546293              0.0053052329           
       0.358258             0.00975445362             0.00571568215           
       0.358937             0.00951339037             0.00556111381           
       0.359616                0.01076342             0.00629735325           
       0.360295              0.0189221711             0.00849257594           
       0.360975              0.0039989345             0.00412332696           
       0.361654              0.0120653723              0.0060868453           
       0.362333              0.0145176786             0.00597205756           
       0.363012             0.00414750881             0.00428268348           
       0.363691           -0.000295330588                         0           
       0.364370              0.0149610886             0.00867124719           
       0.365050             0.00394013116             0.00409344607           
       0.365729             0.00499362934             0.00512777467           
       0.366408             0.00797486397             0.00571504633           
       0.367087              0.0022630695             0.00238491888           
       0.367766              0.0150220384             0.00756878775           
       0.368445             0.00983904511             0.00703291715           
       0.369124           -0.000295436894                         0           
       0.369804              0.0162318644             0.00815440661           
       0.370483             0.00899942466             0.00644022776           
       0.371162             0.00766218694             0.00550182111           
       0.371841            -0.00029549229                         0           
       0.372520             0.00397486965             0.00411248986           
       0.373199           -0.000295518402                         0           
       0.373879           -0.000295531591                         0           
       0.374558              0.0177297622             0.00795481142           
       0.375237             0.00794661668             0.00570661689           
       0.375916             0.00796444004             0.00571314562           
       0.376595             0.00337727435             0.00352948659           
       0.377274             0.00349253622             0.00365065293           
       0.377954             0.00797787821             0.00571835517           
       0.378633             0.00559099927             0.00570673314           
       0.379312             0.00558158704             0.00570204892           
       0.379991             0.00942048864              0.0067330552           
       0.380670              0.0108694954             0.00633278867           
       0.381349              0.0183477699              0.0106222454           
       0.382029             0.00525721578             0.00539426612           
       0.382708             0.00368663248             0.00381782962           
       0.383387              0.0131747663             0.00664823242           
       0.384066             0.00476022989             0.00489446042           
       0.384745              0.0228767954              0.0102731665           
       0.385424              0.0210806832             0.00947496711           
       0.386104             0.00792429045             0.00570072496           
       0.386783             0.00527506038             0.00540432694           
       0.387462              0.0038659446             0.00398196839           
       0.388141              0.0116144483             0.00677771063           
       0.388820           -0.000295836173                         0           
       0.389499              0.0076520041             0.00550164031           
       0.390178              0.0191008899             0.00959080564           
       0.390858              0.0108799231             0.00633806508           
       0.391537           -0.000295894668                         0           
       0.392216           -0.000295908756                         0           
       0.392895           -0.000295922915                         0           
       0.393574              0.0108665931             0.00775850504           
       0.394253              0.0288368723              0.0117860459           
       0.394933             0.00527092375             0.00540376094           
       0.395612              0.0162252491             0.00816004173           
       0.396291           -0.000295996219                         0           
       0.396970           -0.000296010155                         0           
       0.397649           -0.000296024097                         0           
       0.398328             0.00769392098             0.00551843615           
       0.399008             0.00429108745              0.0044515392           
       0.399687             0.00455582724             0.00468557395           
       0.400366             0.00416975827             0.00429970324           
       0.401045               0.012862317             0.00915797372           
       0.401724            -0.00029611128                         0           
       0.402403              0.0172751175               0.010039667           
       0.403083             0.00434906698             0.00448216672           
       0.403762              0.0209412154              0.0105147599           
       0.404441             0.00434839861             0.00448205906           
       0.405120              0.0052874045             0.00541420149           
       0.405799             0.00942509209               0.006740888           
       0.406478             0.00505223333             0.00516514872           
       0.407158           -0.000296229387                         0           
       0.407837             0.00388077183             0.00406858748           
       0.408516             0.00722481922             0.00730889019           
       0.409195              0.0103241741             0.00738435025           
       0.409874           -0.000296290902                         0           
       0.410553              0.0136894728             0.00974203873           
       0.411233             0.00769948643             0.00781077224           
       0.411912              0.0121509879             0.00865382193           
       0.412591             0.00588781159             0.00602407303           
       0.413270             0.00556449389             0.00570028586           
       0.413949             0.00771834755             0.00782112144           
       0.414628              0.0062837308             0.00640424523           
       0.415307             0.00766575095             0.00779484358           
       0.415987             0.00628412902             0.00640476727           
       0.416666              0.0191116825             0.00960293207           
       0.417345              0.0109036308              0.0110004953           
       0.418024              0.0237351168               0.013717374           
       0.418703           -0.000296488827                         0           
       0.419382              0.0157628515              0.0158098403           
       0.420062              0.0156994523                0.01115706           
       0.420741             0.00714524304             0.00727188693           
       0.421420             0.00560936616             0.00572499462           
       0.422099           -0.000296564391                         0           
       0.422778           -0.000296578811                         0           
       0.423457           -0.000296594778                         0           
       0.424137              0.0200698235              0.0100646948           
       0.424816             0.00665098277             0.00679414001           
       0.425495           -0.000296641084                         0           
       0.426174           -0.000296657197                         0           
       0.426853              0.0219765776              0.0156229967           
       0.427532           -0.000296687841                         0           
       0.428212           -0.000296704692                         0           
       0.428891           -0.000296718137                         0           
       0.429570           -0.000296734555                         0           
       0.430249              0.0200049391              0.0142139218           
       0.430928              0.0136492011              0.0137676959           
       0.431607             0.00627395056             0.00640342738           
       0.432287            -0.00029679813                         0           
       0.432966             0.00829255463             0.00841904097           
       0.433645           -0.000296828831                         0           
       0.434324           -0.000296846157                         0           
       0.435003           -0.000296860302                         0           
       0.435682           -0.000296878249                         0           
       0.436361           -0.000296894039                         0           
       0.437041              0.0183167513              0.0184208065           
       0.437720           -0.000296922939                         0           
       0.438399              0.0157606721              0.0158204915           
       0.439078              0.0372673769              0.0262774607           
       0.439757               0.010870632              0.0109934138           
       0.440436           -0.000296993332                         0           
       0.441116              0.0136617334              0.0137796192           
       0.441795           -0.000297021095                         0           
       0.442474              0.0100603932              0.0100847234           
       0.443153            -0.00029705355                         0           
       0.443832           -0.000297070348                         0           
       0.444511           -0.000297088563                         0           
       0.445191           -0.000297103979                         0           
       0.445870           -0.000297121938                         0           
       0.446549           -0.000297133928                         0           
       0.447228              0.0121259772              0.0122425792           
       0.447907           -0.000297170024                         0           
       0.448586           -0.000297189204                         0           
       0.449266               0.033210979              0.0192227551           
       0.449945              0.0447360117              0.0315519646           
       0.450624               0.043201349              0.0209049654           
       0.451303           -0.000297253603                         0           
       0.451982              0.0279174995               0.027869482           
       0.452661            -0.00029728114                         0           
       0.453341           -0.000297301597                         0           
       0.454020           -0.000297316968                         0           
       0.454699           -0.000297330199                         0           
       0.455378           -0.000297351269                         0           
       0.456057            -0.00029736976                         0           
       0.456736              0.0277440073              0.0196493229           
       0.457416              0.0369718232              0.0370418685           
       0.458095           -0.000297417587                         0           
       0.458774           -0.000297436479                         0           
       0.459453           -0.000297452641                         0           
       0.460132           -0.000297468869                         0           
       0.460811           -0.000297487115                         0           
       0.461490              0.0221172119                0.02219592           
       0.462170           -0.000297518419                         0           
       0.462849           -0.000297538801                         0           
       0.463528           -0.000297549564                         0           
       0.464207           -0.000297568688                         0           
       0.464886           -0.000297580729                         0           
       0.465565           -0.000297606306                         0           
       0.466245               0.113073512               0.112244824           
       0.466924           -0.000297636857                         0           
       0.467603           -0.000297659778                         0           
       0.468282           -0.000297671975                         0           
       0.468961           -0.000297694163                         0           
       0.469640           -0.000297708266                         0           
       0.470320                       nan                       nan           
       0.470999           -0.000297746824                         0           
       0.471678           -0.000297761479                         0           
       0.472357           -0.000297772859                         0           
       0.473036              0.0544291179              0.0550814631           
       0.473715           -0.000297810327                         0           
       0.474395           -0.000297827554                         0           
       0.475074                       nan                       nan           
       0.475753           -0.000297862545                         0           
       0.476432           -0.000297884501                         0           
       0.477111           -0.000297902523                         0           
       0.477790                       nan                       nan           
       0.478470           -0.000297939383                         0           
       0.479149           -0.000297953252                         0           
       0.479828            -0.00029797303                         0           
       0.480507           -0.000297987626                         0           
       0.481186           -0.000298007469                         0           
       0.481865           -0.000298022657                         0           
       0.482545           -0.000298040525                         0           
       0.483224           -0.000298055661                         0           
       0.483903                       nan                       nan           
       0.484582                       nan                       nan           
       0.485261           -0.000298113197                         0           
