################################################################################
# EDF_DataBlockID                     0.Image.Psd
# EDF_BinarySize                      2105344
# EDF_HeaderSize                      2560
# ByteOrder                           LowByteFirst
# DataType                            FloatValue
# Dim_1                               512
# Dim_2                               1028
# Image                               0
# HeaderID                            EH:000000:000000:000000
# Size                                2105344
# Center_1                            304.9000
# Center_2                            588.7000
# Comment                             Xenocs_Cell_Window - front_window_open_only
# DDummy                              0.6
# Date                                2025-10-20T05:26:51
# Delta                               21.910000
# Dummy                               -1.5
# ExposureTime                        360
# Gamma                               15.360000
# Intensity1                          8.81512e-10
# PSize_1                             7.5e-05
# PSize_2                             7.5e-05
# Pressure                            0.0326443
# SampleDistance                      0.115750
# SampleEnvKind                       large
# SampleEnvPN                         ElectroChemical cell
# SampleEnvSN                         1141
# Thickness                           0
# Wavelength                          1.541891e-10
# Wavelength                          1.54189e-10
# aux                                 0
# aux_dial                            0.002375
# beamx                               588.429
# beamx_dial                          588.429
# beamz                               657.855
# beamz_dial                          657.855
# det0x                               -0.000396875
# det0x_dial                          6.36905
# det0xvd                             -0.0005
# det0xvd_dial                        -0.0005
# det0y                               450.002
# det0y_dial                          481.635
# det0z                               0
# det0z_dial                          1.2295
# det0zvd                             0
# det0zvd_dial                        0
# mag                                 1.818
# mag_dial                            1.818
# om                                  0.2499
# om_dial                             -0.610199
# phi                                 -0.0120535
# phi_dial                            0
# ry                                  0.599993
# ry_dial                             0.599993
# s1bot                               0.8
# s1bot_dial                          -1.66094
# s1hl                                0.8
# s1hl_dial                           -0.608437
# s1hr                                0.8
# s1hr_dial                           0.970938
# s1top                               0.8
# s1top_dial                          -0.461562
# s2bot                               0.45
# s2bot_dial                          1.36109
# s2hl                                0.45
# s2hl_dial                           -0.83375
# s2hr                                0.45
# s2hr_dial                           -0.118594
# s2top                               0.45
# s2top_dial                          1.44734
# w2theta                             32
# w2theta_dial                        32
# waxsch                              19.2605
# waxsch_dial                         -32.7238
# waxsh                               137.085
# waxsh_dial                          -43.5335
# waxsth                              26.0607
# waxsth_dial                         -19.4068
# waxsz                               67.0407
# waxsz_dial                          -23.7962
# wind                                65.9854
# wind_dial                           66.0041
# wpsi                                124
# wpsi_dial                           124
# wstod                               115
# wstod_dial                          115
# x                                   0
# x_dial                              1.00969
# z                                   0
# z_dial                              13.3172
# CountCutoff                         6807993
# DetectorModel                       Dectris EIGER2 Si 500K, S/N E-01-0554
# ThresholdSetting                    4023.88989258
# Saturation                          0
# FlatField                           Corrected
# BackgroundReductionExtra            0.02
# BackgroundCorrectionConstant        0.0026712
# Detector                            0
# Monitor                             0
# Pil_Roi0                            0
# SumForIntensity1                    3.17344e+08
# TransmittedFlux                     881512
# det                                 0
# mon                                 0
# pilai0                              3.17344e+08
# pilai1                              683337
# pilct0                              5.48747e+08
# pilct1                              683337
# pilroi0                             0
# pilroi1                             0
# sec                                 1
# title                               20251017__1_00539.edf
# usaxs0                              0
# Operation                           Azimuthal average I(q)
# Error_model                         ErrorModel.poisson
# Geometrical_correction              True
# Transmission_correction             True
# Thickness_correction                False
# Binning mode                        Uniform
# Binning factor                      1.0
# Psi                                 0.0
# Omega                               0.2499
# MaskInvalidPixels                   True
# DetectorEdge                        3
# MaskFiles                           ['20251017__1_00233_mask.edf']
################################################################################
    q(A⁻¹)                Intensity(a.u.)            Sigma_I(a.u.)            
       0.690460           -2.30402923e-05                         0           
       0.693100             0.00319362708             0.00234650039           
       0.695741              0.0106240294             0.00361567414           
       0.698381               0.008293003             0.00298776701           
       0.701021             0.00563812196             0.00201058721           
       0.703662             0.00357011202             0.00148094504           
       0.706302             0.00562137239             0.00179471318           
       0.708942             0.00885645916             0.00200100356           
       0.711583             0.00844020329             0.00195305605           
       0.714223             0.00738933192             0.00159244728           
       0.716864             0.00594640553             0.00145774462           
       0.719504              0.0063354472             0.00139257851           
       0.722144              0.0081327638             0.00152382756           
       0.724785              0.0071380519             0.00140420172           
       0.727425             0.00676515177             0.00126799134           
       0.730065               0.007177412             0.00134385686           
       0.732706             0.00697513145             0.00119130543           
       0.735346             0.00822816807             0.00139762556           
       0.737987             0.00757690266             0.00116084186           
       0.740627             0.00594566706             0.00112651063           
       0.743267             0.00767022161             0.00110058727           
       0.745908             0.00610791803             0.00105256829           
       0.748548             0.00483798954            0.000873708078           
       0.751189             0.00748161468             0.00107626838           
       0.753829              0.0073518567             0.00107651859           
       0.756469             0.00762715953             0.00103129868           
       0.759110             0.00783256213             0.00108098226           
       0.761750             0.00608508895            0.000872003616           
       0.764390             0.00611560435            0.000938391962           
       0.767031             0.00630930461            0.000862478324           
       0.769671             0.00816118156             0.00104029885           
       0.772312             0.00733223998            0.000898558087           
       0.774952             0.00539084994            0.000825986133           
       0.777592             0.00653402202            0.000831743684           
       0.780233             0.00643593985            0.000870225996           
       0.782873             0.00594930717            0.000765099706           
       0.785513             0.00864460088            0.000981073875           
       0.788154             0.00672264446            0.000794665465           
       0.790794             0.00628587658             0.00079528994           
       0.793435             0.00710331928             0.00081201895           
       0.796075             0.00661449469            0.000787720813           
       0.798715             0.00788206513            0.000854983212           
       0.801356             0.00582994284            0.000715630586           
       0.803996             0.00722564404            0.000809432075           
       0.806637             0.00649086055            0.000725180949           
       0.809277             0.00590784748            0.000723784493           
       0.811917             0.00734110588            0.000763483965           
       0.814558             0.00671341957            0.000747955611           
       0.817198             0.00715699648            0.000736360375           
       0.819838             0.00728460489            0.000774920039           
       0.822479              0.0061329874            0.000655255571           
       0.825119             0.00519899258            0.000648100597           
       0.827760             0.00663106436            0.000678215941           
       0.830400             0.00725922325            0.000747666957           
       0.833040             0.00545396125            0.000604830071           
       0.835681             0.00578012461            0.000652050247           
       0.838321             0.00609378485            0.000626647413           
       0.840961             0.00671980232            0.000687821052           
       0.843602             0.00620606913              0.0006226416           
       0.846242             0.00699811154            0.000684524813           
       0.848883             0.00788924167            0.000707015558           
       0.851523              0.0078718429             0.00071152824           
       0.854163             0.00780402936            0.000700226201           
       0.856804             0.00665529485            0.000630094384           
       0.859444             0.00668745181            0.000636155996           
       0.862085             0.00743030908            0.000660804388           
       0.864725             0.00788361308            0.000678164023           
       0.867365             0.00744271874            0.000654209012           
       0.870006             0.00783021981            0.000680385665           
       0.872646               0.007528025            0.000638093387           
       0.875286             0.00724191094            0.000647174767           
       0.877927             0.00733100549            0.000623443174           
       0.880567             0.00625552798            0.000587150645           
       0.883208             0.00717984476            0.000610868819           
       0.885848             0.00658458149            0.000600169092           
       0.888488             0.00718953936            0.000596291421           
       0.891129             0.00786082405            0.000655418438           
       0.893769             0.00632146009             0.00055557066           
       0.896410             0.00681475242            0.000594609003           
       0.899050              0.0066730458            0.000567327406           
       0.901690             0.00624189424            0.000560146873           
       0.904331             0.00759057079            0.000596138883           
       0.906971             0.00620557951            0.000556585278           
       0.909611             0.00677634997            0.000558256295           
       0.912252             0.00667467258            0.000563652896           
       0.914892             0.00611383136            0.000525789149           
       0.917533             0.00784343384            0.000608973677           
       0.920173             0.00711088958            0.000556209721           
       0.922813             0.00623523868            0.000544285616           
       0.925454             0.00659993805            0.000531451571           
       0.928094             0.00750395643            0.000578845022           
       0.930734             0.00698034516            0.000544960693           
       0.933375             0.00780926707            0.000588698028           
       0.936015             0.00699230146            0.000532998832           
       0.938656             0.00712133437            0.000560456508           
       0.941296             0.00673301984            0.000525341699           
       0.943936             0.00687455759              0.0005403949           
       0.946577             0.00686252985            0.000519978217           
       0.949217             0.00656230485            0.000526434381           
       0.951858             0.00868401465            0.000572511047           
       0.954498             0.00778515306            0.000570283559           
       0.957138             0.00722280353            0.000527959492           
       0.959779             0.00670670955            0.000519875452           
       0.962419             0.00772962266            0.000537294888           
       0.965059             0.00719159734            0.000532979106           
       0.967700             0.00728647096            0.000519134458           
       0.970340             0.00767395593            0.000547729476           
       0.972981              0.0074682365            0.000521711852           
       0.975621             0.00734029904            0.000528053609           
       0.978261             0.00712596112            0.000496418908           
       0.980902             0.00781465066            0.000544606915           
       0.983542             0.00805779329            0.000536912165           
       0.986182             0.00732242295            0.000518566661           
       0.988823             0.00832171119            0.000534982644           
       0.991463             0.00703883558            0.000503773079           
       0.994104             0.00695923304            0.000484031814           
       0.996744             0.00749713501            0.000518681783           
       0.999384             0.00777876252            0.000510402178           
       1.002025             0.00697171403            0.000496653821           
       1.004665             0.00733092038            0.000488426314           
       1.007306             0.00694578684            0.000491353882           
       1.009946             0.00698059251            0.000473634506           
       1.012586             0.00821779964            0.000528678138           
       1.015227             0.00758718722            0.000492612075           
       1.017867             0.00785873021            0.000515716809           
       1.020507              0.0076197509            0.000488697946           
       1.023148             0.00838116333            0.000518724146           
       1.025788             0.00795307878            0.000500128914           
       1.028429             0.00766146593             0.00050160514           
       1.031069             0.00777732767            0.000486912175           
       1.033709             0.00803799783            0.000504510299           
       1.036350             0.00731351315            0.000468618137           
       1.038990             0.00716048283            0.000475136935           
       1.041630             0.00791939129            0.000490068669           
       1.044271              0.0077676376            0.000485405036           
       1.046911             0.00769472064            0.000474145041           
       1.049552              0.0077878568            0.000494196077           
       1.052192             0.00815267771            0.000482901026           
       1.054832             0.00867149462              0.0005077146           
       1.057473              0.0083219563            0.000491080017           
       1.060113             0.00781637721            0.000481082839           
       1.062754             0.00837534013              0.0004924796           
       1.065394             0.00819298179            0.000481963837           
       1.068034             0.00881397906            0.000497960422           
       1.070675             0.00833122972            0.000492646843           
       1.073315             0.00778102258             0.00046154857           
       1.075955             0.00823809327            0.000482876129           
       1.078596             0.00850699197             0.00048972369           
       1.081236              0.0073382478            0.000448094428           
       1.083877             0.00821350984            0.000488874052           
       1.086517             0.00842110127            0.000483815621           
       1.089157             0.00834493161            0.000485153697           
       1.091798             0.00813013739            0.000468723254           
       1.094438              0.0078304249            0.000467313377           
       1.097078             0.00758608771            0.000448144725           
       1.099719             0.00823855414            0.000478988559           
       1.102359             0.00898238279            0.000473796471           
       1.105000             0.00864265821             0.00048305391           
       1.107640             0.00831519197            0.000458369014           
       1.110280             0.00769910288            0.000449893121           
       1.112921             0.00800986607            0.000450579772           
       1.115561             0.00812673839              0.0004596148           
       1.118202             0.00796240317             0.00044166565           
       1.120842             0.00795829986            0.000455464116           
       1.123482             0.00878599271            0.000465138843           
       1.126123              0.0082065116            0.000452343579           
       1.128763               0.008190637            0.000449664435           
       1.131403             0.00848626355            0.000456995903           
       1.134044             0.00904762082            0.000471049768           
       1.136684             0.00915524552            0.000477404147           
       1.139325             0.00911919069              0.0004630386           
       1.141965             0.00850647213            0.000453061192           
       1.144605             0.00856904532            0.000457395472           
       1.147246             0.00791049496            0.000431145204           
       1.149886             0.00767627001            0.000427734787           
       1.152527              0.0084564584            0.000449395443           
       1.155167             0.00848229226            0.000443753203           
       1.157807             0.00848013495             0.00044400244           
       1.160448             0.00859317395            0.000453067223           
       1.163088              0.0085192044            0.000434376866           
       1.165728              0.0091631983            0.000469064346           
       1.168369             0.00834183663            0.000431570869           
       1.171009             0.00884593456            0.000448104158           
       1.173650             0.00848811293            0.000435782301           
       1.176290             0.00904306596            0.000455080343           
       1.178930             0.00879781297            0.000436248748           
       1.181571             0.00936130437            0.000464700374           
       1.184211             0.00918842166            0.000446484894           
       1.186851             0.00901586645            0.000446350608           
       1.189492             0.00870994683            0.000441148812           
       1.192132             0.00966685333            0.000457867503           
       1.194773             0.00898954285            0.000438872125           
       1.197413             0.00859588143            0.000432656012           
       1.200053             0.00936784839            0.000448824298           
       1.202694              0.0100770739            0.000461996345           
       1.205334             0.00916898308            0.000445506089           
       1.207975              0.0101153967            0.000458765377           
       1.210615             0.00866639238            0.000433616955           
       1.213255             0.00979098668            0.000448700153           
       1.215896             0.00969935128             0.00045506074           
       1.218536             0.00906058459            0.000427153271           
       1.221176             0.00990471686            0.000457268167           
       1.223817             0.00964037601            0.000441724675           
       1.226457             0.00885612791             0.00042875395           
       1.229098             0.00870510475             0.00041863361           
       1.231738             0.00962931524            0.000446496104           
       1.234378             0.00952268269            0.000435389623           
       1.237019              0.0089897931            0.000426444185           
       1.239659             0.00898577154            0.000426118112           
       1.242299             0.00874399182            0.000418197303           
       1.244940              0.0104648115            0.000452562617           
       1.247580             0.00933699628            0.000429368272           
       1.250221              0.0102251521            0.000456660211           
       1.252861             0.00932640514            0.000419880812           
       1.255501             0.00982368815             0.00044309637           
       1.258142              0.0110709339             0.00046108507           
       1.260782             0.00944818546            0.000430765868           
       1.263423              0.0101669321            0.000437997381           
       1.266063             0.00901529239             0.00042013282           
       1.268703              0.0104218449            0.000440338588           
       1.271344             0.00937278557            0.000426683834           
       1.273984              0.0101736098            0.000437598926           
       1.276624              0.0104581395            0.000440968918           
       1.279265             0.00984103488            0.000428694903           
       1.281905             0.00981806202            0.000430833547           
       1.284546             0.00996298695             0.00042926046           
       1.287186              0.0103590081            0.000438129217           
       1.289826              0.0101021671            0.000434907298           
       1.292467              0.0102582132              0.0004304314           
       1.295107             0.00964324118            0.000424686031           
       1.297747              0.0109038243            0.000439746597           
       1.300388              0.0101672538            0.000435538406           
       1.303028              0.0107490834            0.000436439189           
       1.305669              0.0103421775            0.000433629834           
       1.308309              0.0102464382            0.000425128251           
       1.310949              0.0101480004            0.000428354483           
       1.313590             0.00999301363            0.000418492533           
       1.316230              0.0105301786            0.000437325841           
       1.318871              0.0106170651            0.000429652849           
       1.321511              0.0104095735            0.000427565718           
       1.324151             0.00983220133            0.000417180979           
       1.326792              0.0102933014            0.000423393425           
       1.329432               0.010408624            0.000427979477           
       1.332072              0.0106068851            0.000424627908           
       1.334713              0.0118215731             0.00045384252           
       1.337353              0.0105299755            0.000421743936           
       1.339994              0.0106410564             0.00043000133           
       1.342634              0.0107576423            0.000422617246           
       1.345274              0.0108627162            0.000430228071           
       1.347915               0.011227022            0.000438545725           
       1.350555              0.0104186223            0.000420811619           
       1.353195              0.0108573569            0.000421362522           
       1.355836              0.0100023175            0.000412061501           
       1.358476              0.0106658992            0.000424313936           
       1.361117              0.0106254202            0.000412883906           
       1.363757              0.0104777121            0.000423591862           
       1.366397              0.0106764485             0.00041427472           
       1.369038              0.0112723181             0.00043465053           
       1.371678              0.0109459248            0.000419663059           
       1.374319               0.010702675            0.000418265004           
       1.376959              0.0108562878             0.00041545654           
       1.379599              0.0108799032             0.00042401503           
       1.382240             0.00996629628             0.00039811403           
       1.384880              0.0102918766            0.000409531821           
       1.387520              0.0100585065            0.000400128518           
       1.390161               0.010323446            0.000404262166           
       1.392801              0.0103799021            0.000407782118           
       1.395442              0.0103785319            0.000403530287           
       1.398082              0.0103210799             0.00040378893           
       1.400722              0.0113471029            0.000421471222           
       1.403363              0.0105127786            0.000409445185           
       1.406003              0.0101787154            0.000392994264           
       1.408644              0.0109106792            0.000415421232           
       1.411284               0.011099884            0.000416709799           
       1.413924              0.0109689691            0.000409135958           
       1.416565              0.0106902974            0.000403430572           
       1.419205               0.010816928             0.00040981039           
       1.421845              0.0098458618             0.00038606765           
       1.424486              0.0108461242            0.000406992969           
       1.427126               0.010535847            0.000400876177           
       1.429767               0.010943738            0.000402266481           
       1.432407              0.0108768636            0.000411138178           
       1.435047              0.0112103515            0.000404850477           
       1.437688              0.0101032284            0.000392850748           
       1.440328              0.0107388656            0.000397171437           
       1.442968               0.010425169            0.000396744617           
       1.445609              0.0107467325            0.000396191363           
       1.448249             0.00998060124            0.000384276819           
       1.450890              0.0100388433             0.00038264718           
       1.453530              0.0100607227             0.00038590134           
       1.456170              0.0105004825            0.000393357532           
       1.458811              0.0110248026            0.000399852006           
       1.461451              0.0108990163            0.000400486881           
       1.464092              0.0107676701            0.000394596584           
       1.466732                0.01041414            0.000385684499           
       1.469372              0.0107306714            0.000390298509           
       1.472013             0.00990106393            0.000381615155           
       1.474653              0.0102899003            0.000379430433           
       1.477293              0.0110797576            0.000400351114           
       1.479934              0.0104468564            0.000384679679           
       1.482574              0.0100108106            0.000375636603           
       1.485215             0.00975554969            0.000371771439           
       1.487855              0.0112074293            0.000398394588           
       1.490495              0.0104974039            0.000384738473           
       1.493136              0.0107046076            0.000383421949           
       1.495776             0.00958253275            0.000369095086           
       1.498416              0.0100189242            0.000370073946           
       1.501057              0.0104589193            0.000381365059           
       1.503697             0.00965894473            0.000362966479           
       1.506338              0.0107583759            0.000385884369           
       1.508978              0.0107786528            0.000383967308           
       1.511618             0.00999116355            0.000369488142           
       1.514259              0.0100517959            0.000371276921           
       1.516899              0.0101543813            0.000373340456           
       1.519540              0.0102740208            0.000373449391           
       1.522180             0.00970934908            0.000358507984           
       1.524820             0.00999872466            0.000371159306           
       1.527461              0.0100417034            0.000363727778           
       1.530101              0.0097342448            0.000361818824           
       1.532741              0.0100153228            0.000365266619           
       1.535382             0.00948901403            0.000356322641           
       1.538022              0.0102789019            0.000367575613           
       1.540663              0.0101743492            0.000369157666           
       1.543303             0.00969648062            0.000355899391           
       1.545943              0.0104687389            0.000371872875           
       1.548584             0.00942796814            0.000354783057           
       1.551224              0.0101525029            0.000358724563           
       1.553864              0.0101993739            0.000368944385           
       1.556505              0.0100728483            0.000361008663           
       1.559145             0.00961386038              0.0003535031           
       1.561786             0.00966273064            0.000352794918           
       1.564426             0.00966432796            0.000352505389           
       1.567066             0.00977311227            0.000351716995           
       1.569707             0.00887813478            0.000340079286           
       1.572347             0.00918551746            0.000341428387           
       1.574988             0.00961645173            0.000347963547           
       1.577628             0.00894781227             0.00034320559           
       1.580268             0.00924006832            0.000336729668           
       1.582909             0.00930789627            0.000344284602           
       1.585549             0.00908314556            0.000336924247           
       1.588189             0.00855565983            0.000330647034           
       1.590830             0.00958903456            0.000344037403           
       1.593470             0.00903916714            0.000336755422           
       1.596111             0.00902746473            0.000333629431           
       1.598751              0.0086743345            0.000330382232           
       1.601391              0.0086710286            0.000328207355           
       1.604032             0.00841462989            0.000320618482           
       1.606672             0.00867854344            0.000332160977           
       1.609312             0.00872969205            0.000323225775           
       1.611953             0.00883328183            0.000329849893           
       1.614593             0.00895069082            0.000329509418           
       1.617234             0.00877147173            0.000328042857           
       1.619874              0.0092228738            0.000332420695           
       1.622514             0.00904181038            0.000332052456           
       1.625155             0.00890555063             0.00032872598           
       1.627795             0.00864261185             0.00032056434           
       1.630436             0.00879951236            0.000326712305           
       1.633076             0.00876123806              0.0003243447           
       1.635716             0.00880974951            0.000324674237           
       1.638357             0.00880122835            0.000323138403           
       1.640997             0.00913791023            0.000331836005           
       1.643637             0.00888641473            0.000321161227           
       1.646278             0.00851557406            0.000319094483           
       1.648918             0.00882234102            0.000320603972           
       1.651559              0.0088567798            0.000325267997           
       1.654199             0.00829244771            0.000310420649           
       1.656839             0.00884769809            0.000320558598           
       1.659480              0.0087863655            0.000322259037           
       1.662120             0.00820477392            0.000307237862           
       1.664761             0.00871049048            0.000319992377           
       1.667401             0.00826576818            0.000308812692           
       1.670041             0.00867964527            0.000316811713           
       1.672682             0.00830505724            0.000306983877           
       1.675322             0.00820687548            0.000310559497           
       1.677962             0.00822772169            0.000304778128           
       1.680603             0.00846068179            0.000311805678           
       1.683243             0.00883922744             0.00031634703           
       1.685884             0.00792483351            0.000300677679           
       1.688524             0.00778056145            0.000297089963           
       1.691164             0.00867782449            0.000312946604           
       1.693805             0.00896014489            0.000320568011           
       1.696445             0.00821460946            0.000302681707           
       1.699085             0.00798594611             0.00029963071           
       1.701726             0.00842980017            0.000303840466           
       1.704366              0.0086885788            0.000315974614           
       1.707007             0.00812329939            0.000299003425           
       1.709647             0.00836016343            0.000307100273           
       1.712287             0.00860321138            0.000306326014           
       1.714928             0.00833727256            0.000304586568           
       1.717568              0.0075886384            0.000287917854           
       1.720209              0.0085545187            0.000307579955           
       1.722849             0.00799725296            0.000297869776           
       1.725489             0.00881667277            0.000307772966           
       1.728130             0.00878758881            0.000313519871           
       1.730770             0.00851449998            0.000302086594           
       1.733410             0.00842147531            0.000304375815           
       1.736051             0.00847915101            0.000300675671           
       1.738691             0.00862936435            0.000306423413           
       1.741332             0.00798599849            0.000292964809           
       1.743972             0.00831907277            0.000299122691           
       1.746612             0.00822289917             0.00029745706           
       1.749253             0.00817724482            0.000297912074           
       1.751893             0.00820433594            0.000296614877           
       1.754533             0.00828211663            0.000293927344           
       1.757174             0.00855801084            0.000304369135           
       1.759814             0.00826338338            0.000294524278           
       1.762455             0.00796614466            0.000291640567           
       1.765095             0.00843148388            0.000295824206           
       1.767735             0.00837646841            0.000299867819           
       1.770376             0.00846630672            0.000296899698           
       1.773016                0.00851643            0.000298247229           
       1.775657             0.00825787986            0.000294286789           
       1.778297             0.00858605687            0.000301545439           
       1.780937             0.00824419348            0.000294102431           
       1.783578             0.00838538208            0.000295217318           
       1.786218             0.00848814898            0.000301760539           
       1.788858             0.00881765906            0.000299920494           
       1.791499             0.00796708557            0.000290342413           
       1.794139             0.00882245625            0.000299889225           
       1.796780             0.00870672476            0.000299685955           
       1.799420             0.00869125825            0.000299038449           
       1.802060             0.00909645989            0.000302167138           
       1.804701             0.00907278455            0.000305822202           
       1.807341             0.00845699783              0.0002924085           
       1.809981             0.00873142064            0.000299088052           
       1.812622             0.00948165996            0.000309974649           
       1.815262             0.00914164986             0.00030545134           
       1.817903             0.00866531047            0.000293712807           
       1.820543             0.00845303658             0.00029367853           
       1.823183             0.00887071189            0.000296211109           
       1.825824             0.00874460948            0.000298520907           
       1.828464             0.00934099414            0.000307585991           
       1.831105             0.00878554335             0.00029945559           
       1.833745             0.00796103543            0.000284879848           
       1.836385             0.00880502494            0.000298435057           
       1.839026             0.00866110694            0.000300435428           
       1.841666             0.00859622695             0.00029542161           
       1.844306             0.00882650069            0.000303131523           
       1.846947             0.00821363843            0.000288660539           
       1.849587             0.00856167739            0.000298709986           
       1.852228             0.00903694691            0.000303624879           
       1.854868             0.00901352803            0.000308792682           
       1.857508             0.00867697411            0.000297378527           
       1.860149             0.00904902422            0.000306121285           
       1.862789             0.00843798881            0.000296913269           
       1.865429             0.00858700875            0.000300426654           
       1.868070             0.00893948769            0.000305471395           
       1.870710              0.0087068993             0.00030229232           
       1.873351             0.00846709409            0.000300003491           
       1.875991             0.00882995871            0.000308021731           
       1.878631             0.00835395393            0.000296819614           
       1.881272             0.00901070072             0.00030754405           
       1.883912             0.00922072055            0.000314756106           
       1.886553             0.00858410356            0.000300053114           
       1.889193             0.00873079332             0.00030610158           
       1.891833             0.00878853185            0.000303617168           
       1.894474             0.00903730264            0.000310321067           
       1.897114             0.00854767709            0.000299456729           
       1.899754             0.00900159289            0.000310751438           
       1.902395              0.0089758996            0.000310373785           
       1.905035             0.00898715473            0.000309351226           
       1.907676             0.00904417222            0.000310691765           
       1.910316             0.00895361697            0.000311103521           
       1.912956             0.00885184357            0.000309318058           
       1.915597             0.00921822232            0.000312363688           
       1.918237             0.00860469543            0.000306371012           
       1.920878             0.00892156633            0.000306440166           
       1.923518              0.0092240968            0.000319871124           
       1.926158             0.00874786486            0.000304346307           
       1.928799             0.00859285396            0.000305646073           
       1.931439             0.00920557239            0.000313820329           
       1.934079             0.00782833555             0.00029232524           
       1.936720             0.00826525267            0.000298604238           
       1.939360             0.00861871987            0.000307861153           
       1.942001             0.00882630083            0.000310347982           
       1.944641             0.00946769136            0.000320041383           
       1.947281             0.00814219094             0.00029822765           
       1.949922             0.00850011648            0.000305093486           
       1.952562             0.00853425408            0.000308336134           
       1.955202             0.00862453547            0.000302175007           
       1.957843             0.00847484428            0.000309056628           
       1.960483              0.0084769807            0.000304165273           
       1.963124             0.00863143829            0.000306696233           
       1.965764             0.00850695708            0.000304585498           
       1.968404              0.0082645473             0.00030558296           
       1.971045              0.0076297269             0.00028625217           
       1.973685             0.00850660255            0.000307894665           
       1.976326             0.00829678284            0.000302748047           
       1.978966             0.00795004053            0.000297756594           
       1.981606              0.0084307309            0.000303383505           
       1.984247              0.0087407348             0.00031160457           
       1.986887             0.00826898073            0.000305913502           
       1.989527             0.00803359045            0.000295246045           
       1.992168             0.00790241316            0.000299890653           
       1.994808             0.00784604607            0.000295343471           
       1.997449               0.007774766            0.000293567693           
       2.000089             0.00805594031            0.000297069374           
       2.002729             0.00783327411            0.000299647547           
       2.005370             0.00812490646            0.000299373305           
       2.008010             0.00799308763            0.000300877157           
       2.010650             0.00784845626            0.000297289715           
       2.013291             0.00830714263            0.000307594492           
       2.015931             0.00805947065            0.000300806008           
       2.018572             0.00843434336            0.000311809135           
       2.021212             0.00788120519            0.000298706209           
       2.023852             0.00800109426            0.000302550654           
       2.026493             0.00797819251            0.000300793364           
       2.029133             0.00768591888             0.00029298015           
       2.031774             0.00801777743            0.000302140296           
       2.034414             0.00784673262             0.00029711633           
       2.037054             0.00829621248            0.000309359824           
       2.039695             0.00758682177            0.000290010736           
       2.042335             0.00794193013             0.00030177083           
       2.044975             0.00802426679            0.000300906814           
       2.047616             0.00803335132            0.000302367232           
       2.050256             0.00783886558             0.00029517127           
       2.052897             0.00769134774            0.000301040154           
       2.055537              0.0080219411            0.000299059759           
       2.058177             0.00787533208            0.000298931772           
       2.060818              0.0081822047            0.000305615004           
       2.063458             0.00793888661            0.000301451228           
       2.066098             0.00798041415            0.000300897366           
       2.068739             0.00751870909            0.000295108769           
       2.071379             0.00794714091            0.000298919731           
       2.074020              0.0073474707            0.000291356606           
       2.076660             0.00725923627            0.000287638837           
       2.079300             0.00706135098             0.00028365016           
       2.081941             0.00774555159            0.000298880511           
       2.084581             0.00785808164            0.000301266796           
       2.087222             0.00730808773            0.000290730526           
       2.089862             0.00807780404             0.00030184803           
       2.092502             0.00752059033            0.000296543174           
       2.095143             0.00794035654            0.000300351848           
       2.097783              0.0079353352            0.000304825814           
       2.100423             0.00781996297            0.000296799494           
       2.103064              0.0076534374            0.000298691936           
       2.105704             0.00769947399            0.000298442813           
       2.108345             0.00709230869            0.000287748911           
       2.110985              0.0078901293            0.000299239292           
       2.113625             0.00792085888            0.000304545348           
       2.116266             0.00792561049            0.000302381918           
       2.118906             0.00726734845            0.000289342052           
       2.121546             0.00719869422             0.00028774346           
       2.124187             0.00732723204            0.000294316368           
       2.126827             0.00746736505            0.000292457791           
       2.129468             0.00787132161            0.000303397502           
       2.132108             0.00753706785             0.00029627144           
       2.134748             0.00775194267            0.000299332621           
       2.137389             0.00784866173            0.000303716874           
       2.140029             0.00730787077            0.000292355051           
       2.142670             0.00704623845            0.000287543058           
       2.145310             0.00774126136            0.000302542325           
       2.147950             0.00778760895            0.000304619722           
       2.150591             0.00762002179            0.000298560816           
       2.153231             0.00781066752            0.000306741481           
       2.155871             0.00775660378            0.000301263368           
       2.158512             0.00765719216             0.00030472023           
       2.161152             0.00772688879            0.000298457466           
       2.163793             0.00761914182             0.00030119159           
       2.166433             0.00740880622            0.000291854764           
       2.169073             0.00813117904            0.000312890687           
       2.171714             0.00742911043            0.000292989068           
       2.174354             0.00791893112            0.000307116074           
       2.176995             0.00712183602             0.00028883358           
       2.179635             0.00733340326            0.000298639175           
       2.182275             0.00755154102            0.000297032493           
       2.184916             0.00798857222             0.00031196355           
       2.187556             0.00750094765            0.000297425838           
       2.190196              0.0071466538            0.000294879855           
       2.192837             0.00759487183            0.000300657441           
       2.195477             0.00712603094            0.000294038902           
       2.198118             0.00725960114            0.000291302719           
       2.200758             0.00785013455            0.000307623254           
       2.203398             0.00783349857            0.000302201075           
       2.206039             0.00793428296            0.000308787614           
       2.208679             0.00810414397            0.000309020557           
       2.211319             0.00744299573            0.000297541191           
       2.213960             0.00698754291             0.00028522864           
       2.216600             0.00775933008            0.000307650039           
       2.219241             0.00763482992              0.0003007352           
       2.221881             0.00732965642            0.000296199462           
       2.224521             0.00752796124             0.00029913841           
       2.227162             0.00761632652            0.000305615002           
       2.229802             0.00768197166            0.000301947031           
       2.232443             0.00755871251            0.000300692333           
       2.235083             0.00704288189            0.000288510512           
       2.237723             0.00730943763            0.000296171956           
       2.240364             0.00747125435            0.000297909312           
       2.243004             0.00756418713            0.000300661982           
       2.245644             0.00742733585            0.000297241788           
       2.248285             0.00696862369            0.000289785723           
       2.250925              0.0073811242            0.000296844583           
       2.253566             0.00692924899            0.000288317894           
       2.256206             0.00747442227            0.000298548205           
       2.258846             0.00718019022            0.000292615614           
       2.261487             0.00715762512            0.000292660842           
       2.264127             0.00713318127            0.000294925037           
       2.266767             0.00748264017            0.000297180705           
       2.269408             0.00688341135            0.000288418214           
       2.272048             0.00687694099            0.000286509298           
       2.274689              0.0074007454            0.000298389282           
       2.277329             0.00698633606            0.000289529454           
       2.279969             0.00734244387            0.000297716337           
       2.282610             0.00711058461            0.000290120861           
       2.285250             0.00744895146            0.000301613728           
       2.287891              0.0072419426            0.000294392204           
       2.290531             0.00754140614            0.000301898748           
       2.293171             0.00738148434            0.000298665864           
       2.295812             0.00726088896            0.000294643894           
       2.298452             0.00742102881            0.000299783188           
       2.301092             0.00692580354            0.000291447478           
       2.303733             0.00685646306            0.000284249088           
       2.306373             0.00702768295            0.000294815103           
       2.309014             0.00749382625            0.000298569088           
       2.311654             0.00702457868            0.000291813512           
       2.314294             0.00707624609            0.000292245317           
       2.316935             0.00755811001            0.000303225538           
       2.319575             0.00708126042             0.00029240523           
       2.322215             0.00657160336            0.000285700136           
       2.324856             0.00725880781            0.000292726461           
       2.327496             0.00718023004            0.000298272892           
       2.330137             0.00755852364            0.000300385415           
       2.332777             0.00663504787            0.000284515909           
       2.335417             0.00650218888            0.000280807419           
       2.338058             0.00738075727            0.000300375121           
       2.340698             0.00697736252            0.000289175808           
       2.343339             0.00744226364            0.000304353492           
       2.345979             0.00762023823            0.000301825675           
       2.348619             0.00693055375            0.000293278974           
       2.351260             0.00712145119            0.000290971056           
       2.353900             0.00705168587            0.000295675537           
       2.356540             0.00709202819            0.000292441989           
       2.359181             0.00693448199             0.00029304241           
       2.361821             0.00743087108            0.000299653431           
       2.364462             0.00747378967            0.000305540044           
       2.367102             0.00711912678            0.000289579043           
       2.369742             0.00683609284            0.000293933509           
       2.372383             0.00698157851            0.000288385663           
       2.375023             0.00649772292            0.000285461629           
       2.377663             0.00778026696            0.000305728495           
       2.380304             0.00737304915            0.000301748586           
       2.382944             0.00714704164            0.000294181989           
       2.385585             0.00759693644            0.000306167129           
       2.388225             0.00657786762            0.000283605854           
       2.390865             0.00667919438            0.000286513672           
       2.393506             0.00733835497            0.000298934894           
       2.396146             0.00707284463            0.000294449895           
       2.398787             0.00676727213            0.000288270947           
       2.401427             0.00709549091            0.000293386561           
       2.404067             0.00717896776             0.00029961156           
       2.406708             0.00740735904            0.000300514901           
       2.409348             0.00755401056             0.00030575809           
       2.411988             0.00734055436            0.000300444559           
       2.414629             0.00724208724            0.000299399075           
       2.417269             0.00632715482            0.000277306964           
       2.419910              0.0071902421            0.000299344201           
       2.422550             0.00681684935            0.000287043616           
       2.425190              0.0066457547            0.000292341907           
       2.427831             0.00715236101            0.000291873934           
       2.430471             0.00670016641            0.000290754489           
       2.433112             0.00654819625            0.000280655748           
       2.435752             0.00660025602            0.000288902492           
       2.438392             0.00726097901            0.000297924876           
       2.441033             0.00725464874             0.00029915959           
       2.443673             0.00702813744            0.000295238535           
       2.446313              0.0075747762            0.000304872138           
       2.448954             0.00798457422            0.000315756924           
       2.451594             0.00773434238            0.000308905049           
       2.454235             0.00761007731            0.000305460038           
       2.456875             0.00788892549            0.000312581369           
       2.459515             0.00765375185            0.000308361726           
       2.462156             0.00751564396            0.000303991787           
       2.464796             0.00790206908              0.0003172072           
       2.467436             0.00776294924            0.000307809989           
       2.470077             0.00787068578             0.00031421249           
       2.472717             0.00772523039            0.000307400415           
       2.475358             0.00735499434            0.000303342022           
       2.477998             0.00778487245            0.000310415888           
       2.480638             0.00717102663            0.000298650203           
       2.483279             0.00707048843            0.000297823238           
       2.485919             0.00742497649            0.000303060832           
       2.488560             0.00733511228            0.000302470727           
       2.491200             0.00659273908             0.00028636311           
       2.493840             0.00696495179            0.000292733332           
       2.496481             0.00737810512            0.000305230497           
       2.499121             0.00671877181            0.000287394982           
       2.501761             0.00758444713            0.000310533779           
       2.504402              0.0062595914            0.000276704518           
       2.507042             0.00687957783            0.000294906404           
       2.509683             0.00684212186            0.000291424143           
       2.512323             0.00730247021            0.000302247157           
       2.514963              0.0139152143            0.000418056656           
       2.517604              0.0171476626            0.000462262957           
       2.520244             0.00958958342            0.000345765329           
       2.522884             0.00723140439            0.000299600025           
       2.525525             0.00793639504            0.000316442576           
       2.528165              0.0175829768            0.000468858152           
       2.530806              0.0337377204            0.000647023186           
       2.533446              0.0171121229            0.000464896568           
       2.536086             0.00935189511            0.000340795544           
       2.538727             0.00873517883            0.000331478461           
       2.541367             0.00893301406            0.000334252604           
       2.544008             0.00695400203            0.000295162339           
       2.546648             0.00667056445            0.000289412777           
       2.549288             0.00639573175            0.000283428841           
       2.551929             0.00720644665            0.000301850355           
       2.554569             0.00688328553            0.000292308921           
       2.557209             0.00682887007            0.000294440862           
       2.559850             0.00721366584            0.000299142909           
       2.562490             0.00703416988            0.000297548559           
       2.565131             0.00703186497             0.00029801742           
       2.567771             0.00695784147            0.000294873512           
       2.570411             0.00707867067            0.000301042182           
       2.573052             0.00678029147            0.000291189951           
       2.575692             0.00712748383            0.000299344211           
       2.578332             0.00699301872            0.000295631197           
       2.580973              0.0071263193            0.000300855271           
       2.583613             0.00710495285            0.000297666383           
       2.586254             0.00651717931            0.000287610208           
       2.588894             0.00673472966            0.000290811566           
       2.591534             0.00740367786            0.000305473433           
       2.594175             0.00645953915            0.000286988269           
       2.596815             0.00682641764             0.00029228266           
       2.599456             0.00646431036            0.000286752061           
       2.602096              0.0070421058            0.000298173082           
       2.604736             0.00724615022            0.000303255262           
       2.607377             0.00662479522             0.00028885303           
       2.610017             0.00660161842            0.000288246569           
       2.612657             0.00686558407            0.000296029321           
       2.615298             0.00636789355             0.00028230906           
       2.617938             0.00699440398             0.00029845923           
       2.620579             0.00701178781            0.000296388861           
       2.623219             0.00714173295            0.000303907371           
       2.625859             0.00700548755            0.000295921638           
       2.628500              0.0070626755            0.000301875743           
       2.631140             0.00721765853            0.000299788412           
       2.633780             0.00742379146            0.000307944284           
       2.636421             0.00734331851            0.000303483732           
       2.639061             0.00704116076            0.000300727514           
       2.641702             0.00722283787            0.000301326527           
       2.644342             0.00781715246            0.000316049966           
       2.646982             0.00630841283            0.000283676035           
       2.649623             0.00683731867            0.000297099053           
       2.652263             0.00698303049             0.00029785898           
       2.654904             0.00745120399            0.000309352541           
       2.657544              0.0070135706            0.000298018839           
       2.660184             0.00691353916            0.000296264423           
       2.662825             0.00699417518            0.000298701404           
       2.665465             0.00732501449            0.000306249749           
       2.668105             0.00692638481            0.000297917991           
       2.670746              0.0068678641            0.000294146648           
       2.673386             0.00681238799            0.000296506735           
       2.676027             0.00744801598            0.000307395454           
       2.678667             0.00721451473            0.000304111346           
       2.681307              0.0074232242            0.000306053104           
       2.683948             0.00752769067            0.000311259922           
       2.686588               0.007262989            0.000302932778           
       2.689229             0.00759680383            0.000312596682           
       2.691869             0.00719495019             0.00030117998           
       2.694509             0.00799265695            0.000321790461           
       2.697150              0.0075644877             0.00030805618           
       2.699790             0.00692250814            0.000300815878           
       2.702430             0.00718843885            0.000300662153           
       2.705071             0.00709423249            0.000302773317           
       2.707711             0.00721618756            0.000302336594           
       2.710352             0.00705444618            0.000300630612           
       2.712992             0.00629494156             0.00028490975           
       2.715632             0.00679031271            0.000294224549           
       2.718273             0.00709228355            0.000301693843           
       2.720913             0.00657819997            0.000291039151           
       2.723553             0.00672733898            0.000293297114           
       2.726194             0.00670596888            0.000294243171           
       2.728834             0.00685634906            0.000294879275           
       2.731475             0.00707713817            0.000302207856           
       2.734115             0.00741719122            0.000307539611           
       2.736755             0.00712749858            0.000303466901           
       2.739396             0.00743750255            0.000308356912           
       2.742036             0.00717848859            0.000305007738           
       2.744677             0.00711718805            0.000304146671           
       2.747317             0.00793311279            0.000319547651           
       2.749957             0.00710921073             0.00030469389           
       2.752598             0.00727538931             0.00030916266           
       2.755238             0.00744961817            0.000312701631           
       2.757878             0.00774349326            0.000317902035           
       2.760519             0.00720100257            0.000303327252           
       2.763159             0.00724579821             0.00030921662           
       2.765800             0.00745377491             0.00030831026           
       2.768440             0.00706803453            0.000304181626           
       2.771080             0.00678798761            0.000295582587           
       2.773721             0.00673322281            0.000297999327           
       2.776361             0.00707166128             0.00030211676           
       2.779001             0.00659412535            0.000294804422           
       2.781642             0.00713595331            0.000304584528           
       2.784282             0.00682138583            0.000297899399           
       2.786923             0.00620804536            0.000282029915           
       2.789563             0.00685234809            0.000296899174           
       2.792203             0.00692250523            0.000300314742           
       2.794844             0.00657486383            0.000291345128           
       2.797484             0.00646617834            0.000289334157           
       2.800125             0.00681384371            0.000296626783           
       2.802765             0.00681318624            0.000302111097           
       2.805405              0.0067557522            0.000296492471           
       2.808046               0.006940509            0.000305127395           
       2.810686             0.00717829112            0.000307003709           
       2.813326             0.00653636946            0.000296579814           
       2.815967             0.00672291357             0.00029888661           
       2.818607             0.00621761142             0.00029030819           
       2.821248             0.00676253961            0.000298987605           
       2.823888             0.00664286625            0.000301103203           
       2.826528             0.00704301729            0.000308189719           
       2.829169             0.00657439708            0.000296445685           
       2.831809             0.00662295798            0.000297799189           
       2.834449             0.00711877376            0.000303356025           
       2.837090             0.00670823897            0.000296251145           
       2.839730             0.00716444552            0.000303984843           
       2.842371             0.00678507155            0.000297888188           
       2.845011             0.00676071759            0.000296689913           
       2.847651             0.00645376608             0.00029040884           
       2.850292             0.00645799366            0.000288853339           
       2.852932             0.00672712631            0.000295339454           
       2.855573             0.00684451141            0.000300521451           
       2.858213             0.00701555433            0.000300839462           
       2.860853             0.00681230437            0.000298668471           
       2.863494             0.00721207589            0.000308046991           
       2.866134             0.00663687644            0.000299652612           
       2.868774             0.00702572765            0.000303586501           
       2.871415             0.00712553529            0.000308761274           
       2.874055             0.00674693685            0.000301934921           
       2.876696             0.00686649506            0.000301855583           
       2.879336             0.00733002657            0.000313948036           
       2.881976             0.00645610481            0.000294396537           
       2.884617              0.0065133126            0.000294055341           
       2.887257             0.00665819069            0.000295234764           
       2.889897             0.00644028363            0.000293691573           
       2.892538             0.00664616582            0.000296280397           
       2.895178             0.00687084656            0.000298174777           
       2.897819             0.00673304434            0.000298205323           
       2.900459             0.00677706678            0.000296701542           
       2.903099             0.00706500944             0.00030452084           
       2.905740             0.00646372922            0.000288023015           
       2.908380              0.0066740002            0.000296571878           
       2.911021             0.00640471092            0.000291079376           
       2.913661             0.00729382206            0.000307208644           
       2.916301             0.00705530841             0.00030644219           
       2.918942             0.00658880433            0.000291670183           
       2.921582             0.00745954249            0.000313601099           
       2.924222              0.0071797708             0.00030587956           
       2.926863              0.0071097185            0.000305192189           
       2.929503             0.00710864421            0.000308556795           
       2.932144             0.00726553327            0.000306826989           
       2.934784              0.0069671567            0.000301737538           
       2.937424             0.00704114242            0.000303896465           
       2.940065             0.00733655089            0.000310458369           
       2.942705             0.00738704907            0.000312471577           
       2.945346             0.00702309208            0.000302877116           
       2.947986             0.00839235383            0.000332246376           
       2.950626             0.00908416214            0.000346732133           
       2.953267             0.00939969188            0.000348955541           
       2.955907             0.00851518673            0.000336522824           
       2.958547             0.00782787362            0.000319347254           
       2.961188             0.00739515173            0.000313104769           
       2.963828             0.00609765609            0.000282702357           
       2.966469             0.00726809801            0.000308721238           
       2.969109             0.00717124019            0.000308225602           
       2.971749             0.00822027376            0.000329029953           
       2.974390             0.00917275728            0.000348523706           
       2.977030             0.00869884701            0.000338755149           
       2.979670             0.00708123663            0.000303669086           
       2.982311             0.00700478666            0.000304205097           
       2.984951             0.00727810968            0.000310885026           
       2.987592             0.00723926452            0.000309007773           
       2.990232             0.00771819497            0.000319880392           
       2.992872             0.00841187155            0.000331333161           
       2.995513              0.0109307577            0.000380664008           
       2.998153              0.0173520497            0.000482708513           
       3.000794              0.0263119416            0.000585760312           
       3.003434              0.0216674799            0.000537190729           
       3.006074              0.0164510439            0.000469589567           
       3.008715              0.0138011141            0.000433384403           
       3.011355              0.0166534726            0.000481018526           
       3.013995              0.0157028036            0.000464803079           
       3.016636              0.0300466296            0.000644157109           
       3.019276               0.197539408             0.00169113101           
       3.021917               0.359056157              0.0022413144           
       3.024557               0.137076735             0.00139590825           
       3.027197              0.0839153228             0.00111051461           
       3.029838               0.187210901             0.00165077342           
       3.032478               0.111181253              0.0012797498           
       3.035118              0.0897976265             0.00115603628           
       3.037759              0.0700762695             0.00102303088           
       3.040399              0.0673280014             0.00101424387           
       3.043040              0.0649051625             0.00100549964           
       3.045680              0.0542708053            0.000905283905           
       3.048320              0.0732632742             0.00106870668           
       3.050961              0.0499586488            0.000891361506           
       3.053601              0.0789747054             0.00111575202           
       3.056242              0.0818096993             0.00114289624           
       3.058882              0.0923668366             0.00123246709           
       3.061522               0.256473511             0.00203947833           
       3.064163              0.0737752656             0.00109582893           
       3.066803              0.0248969982            0.000648901356           
       3.069443              0.0231746202            0.000621883945           
       3.072084              0.0581612219            0.000993959457           
       3.074724              0.0689824483             0.00108887532           
       3.077365              0.0144440792            0.000497900701           
       3.080005             0.00928314853             0.00040358495           
       3.082645             0.00919050084            0.000403610609           
       3.085286             0.00836736442            0.000385182483           
       3.087926             0.00746919894            0.000366238203           
       3.090566             0.00677730811            0.000352456786           
       3.093207             0.00809597128            0.000381060582           
       3.095847             0.00780275149            0.000381937809           
       3.098488             0.00794901523             0.00038480193           
       3.101128             0.00767299642             0.00038012149           
       3.103768             0.00780619139            0.000385566568           
       3.106409             0.00891800365            0.000414870713           
       3.109049              0.0106594296            0.000457097697           
       3.111690                0.01504486            0.000540907193           
       3.114330              0.0214060363            0.000650944494           
       3.116970              0.0172901605            0.000593164789           
       3.119611              0.0117746961            0.000486312672           
       3.122251             0.00927732566            0.000435205481           
       3.124891             0.00781475925             0.00040136922           
       3.127532             0.00846401085            0.000425234055           
       3.130172               0.010295163            0.000459334672           
       3.132813             0.00835907902            0.000422320368           
       3.135453             0.00736467089            0.000404767229           
       3.138093             0.00622420648            0.000363280292           
       3.140734             0.00685397317            0.000388310748           
       3.143374             0.00647312952            0.000383136969           
       3.146014              0.0066282535            0.000384886272           
       3.148655             0.00695497002            0.000397362046           
       3.151295             0.00749735247            0.000415830869           
       3.153936             0.00619537701            0.000383584523           
       3.156576             0.00623652462            0.000380438298           
       3.159216             0.00580067866            0.000369904722           
       3.161857             0.00624412428            0.000388491431           
       3.164497             0.00627776709            0.000397750108           
       3.167138             0.00600736022            0.000379754646           
       3.169778             0.00590421969            0.000383278589           
       3.172418             0.00613451486            0.000392964915           
       3.175059              0.0065952968            0.000412788423           
       3.177699             0.00631891402            0.000402450794           
       3.180339              0.0060942007            0.000398762802           
       3.182980             0.00564775836            0.000389061265           
       3.185620             0.00610420937            0.000408897768           
       3.188261             0.00501167834            0.000365648815           
       3.190901              0.0055496175            0.000390701512           
       3.193541             0.00566146083             0.00039591919           
       3.196182             0.00625739184             0.00042489576           
       3.198822             0.00598786966            0.000410605721           
       3.201463             0.00598109204            0.000415680098           
       3.204103             0.00613498575             0.00042659991           
       3.206743             0.00603184149             0.00042657492           
       3.209384             0.00562403214            0.000410066165           
       3.212024             0.00559079719            0.000410305159           
       3.214664             0.00531812015            0.000407801743           
       3.217305             0.00612150422            0.000447728741           
       3.219945             0.00644408923            0.000455532969           
       3.222586             0.00562962388            0.000428183172           
       3.225226             0.00476372831            0.000402752975           
       3.227866              0.0052872051            0.000427587706           
       3.230507             0.00717334403            0.000503993151           
       3.233147             0.00638485274            0.000468454668           
       3.235787             0.00614477804            0.000459688103           
       3.238428             0.00582803303              0.0004555902           
       3.241068             0.00589328476            0.000467423417           
       3.243709             0.00634341528            0.000482254277           
       3.246349             0.00610382385            0.000470412433           
       3.248989             0.00621448845            0.000485506895           
       3.251630             0.00573288713            0.000468378079           
       3.254270             0.00538025404            0.000467691895           
       3.256911             0.00533411368            0.000454014057           
       3.259551             0.00593059384            0.000489304821           
       3.262191             0.00578595005            0.000487747352           
       3.264832             0.00539491695            0.000475396487           
       3.267472             0.00585955136            0.000502471511           
       3.270112             0.00516195796            0.000472956353           
       3.272753              0.0067464872            0.000547340087           
       3.275393             0.00490483895            0.000469094651           
       3.278034             0.00616315296            0.000536546911           
       3.280674             0.00570615948            0.000517769889           
       3.283314             0.00640747497            0.000551697967           
       3.285955             0.00524632544            0.000508589352           
       3.288595              0.0047024231            0.000486876368           
       3.291235             0.00592169077            0.000549571772           
       3.293876             0.00535565497            0.000525740923           
       3.296516             0.00607178355            0.000571205722           
       3.299157             0.00422924199            0.000483927914           
       3.301797              0.0053952836            0.000546815811           
       3.304437             0.00491092617            0.000531472679           
       3.307078              0.0054522585            0.000565439422           
       3.309718             0.00547139624            0.000572085145           
       3.312359             0.00535851689            0.000577592592           
       3.314999             0.00513638119            0.000571426224           
       3.317639             0.00437103623            0.000532813504           
       3.320280             0.00548098548            0.000605352746           
       3.322920             0.00665820247            0.000677185109           
       3.325560             0.00518966388            0.000609403125           
       3.328201             0.00551104337            0.000630643571           
       3.330841              0.0068593296            0.000720682356           
       3.333482             0.00507284556             0.00062763685           
       3.336122             0.00601777115             0.00069845517           
       3.338762             0.00755279744            0.000789639341           
       3.341403             0.00535823342            0.000671268125           
       3.344043             0.00575835304            0.000722439837           
       3.346683             0.00679261589            0.000792599357           
       3.349324             0.00434815777            0.000643960496           
       3.351964             0.00522849423            0.000728848157           
       3.354605             0.00462757016            0.000693450553           
       3.357245             0.00638750628            0.000843349908           
       3.359885             0.00531024495            0.000769228702           
       3.362526             0.00547478769            0.000820991677           
       3.365166             0.00546310491            0.000809989924           
       3.367807             0.00528777631            0.000853038826           
       3.370447             0.00368249114            0.000712149975           
       3.373087             0.00560903775            0.000927601031           
       3.375728             0.00510731214             0.00087845156           
       3.378368             0.00556704123            0.000991034307           
       3.381008              0.0065179432             0.00106298795           
       3.383649             0.00499743356             0.00100731466           
       3.386289             0.00582554465             0.00108802526           
       3.388930              0.0057766255             0.00118989278           
       3.391570             0.00605705199             0.00121894312           
       3.394210             0.00332187437            0.000967225432           
       3.396851             0.00613913823             0.00142433744           
       3.399491             0.00370879371             0.00112716358           
       3.402131             0.00373738418             0.00133937529           
       3.404772             0.00603784227             0.00170312052           
       3.407412             0.00429426421             0.00178228266           
       3.410053             0.00998320367             0.00282965806           
       3.412693             0.00152302925             0.00156368814           
       3.415333           -2.57515217e-05                         0           
