################################################################################
# EDF_DataBlockID                     0.Image.Psd
# EDF_BinarySize                      2105344
# EDF_HeaderSize                      2560
# ByteOrder                           LowByteFirst
# DataType                            FloatValue
# Dim_1                               512
# Dim_2                               1028
# Image                               0
# HeaderID                            EH:000000:000000:000000
# Size                                2105344
# Center_1                            304.9000
# Center_2                            588.7000
# Comment                             Xenocs_Cell_Window - front_window_open_only
# DDummy                              0.6
# Date                                2025-10-19T19:52:00
# Delta                               21.910000
# Dummy                               -1.5
# ExposureTime                        360
# Gamma                               15.360000
# Intensity1                          8.89707e-10
# PSize_1                             7.5e-05
# PSize_2                             7.5e-05
# Pressure                            0.0327406
# SampleDistance                      0.115750
# SampleEnvKind                       large
# SampleEnvPN                         ElectroChemical cell
# SampleEnvSN                         1141
# Thickness                           0
# Wavelength                          1.541891e-10
# Wavelength                          1.54189e-10
# aux                                 0
# aux_dial                            0.002375
# beamx                               588.429
# beamx_dial                          588.429
# beamz                               657.855
# beamz_dial                          657.855
# det0x                               -0.000396875
# det0x_dial                          6.36905
# det0xvd                             -0.0005
# det0xvd_dial                        -0.0005
# det0y                               450.002
# det0y_dial                          481.635
# det0z                               0
# det0z_dial                          1.2295
# det0zvd                             0
# det0zvd_dial                        0
# mag                                 1.818
# mag_dial                            1.818
# om                                  0.2499
# om_dial                             -0.610199
# phi                                 -0.0120535
# phi_dial                            0
# ry                                  0.599993
# ry_dial                             0.599993
# s1bot                               0.8
# s1bot_dial                          -1.66094
# s1hl                                0.8
# s1hl_dial                           -0.608437
# s1hr                                0.8
# s1hr_dial                           0.970938
# s1top                               0.8
# s1top_dial                          -0.461562
# s2bot                               0.45
# s2bot_dial                          1.36109
# s2hl                                0.45
# s2hl_dial                           -0.83375
# s2hr                                0.45
# s2hr_dial                           -0.118594
# s2top                               0.45
# s2top_dial                          1.44734
# w2theta                             32
# w2theta_dial                        32
# waxsch                              19.2605
# waxsch_dial                         -32.7238
# waxsh                               137.085
# waxsh_dial                          -43.5335
# waxsth                              26.0607
# waxsth_dial                         -19.4068
# waxsz                               67.0407
# waxsz_dial                          -23.7962
# wind                                65.9854
# wind_dial                           66.0041
# wpsi                                124
# wpsi_dial                           124
# wstod                               115
# wstod_dial                          115
# x                                   0
# x_dial                              1.00969
# z                                   0
# z_dial                              13.3172
# CountCutoff                         6807993
# DetectorModel                       Dectris EIGER2 Si 500K, S/N E-01-0554
# ThresholdSetting                    4023.88989258
# Saturation                          0
# FlatField                           Corrected
# BackgroundReductionExtra            0.02
# BackgroundCorrectionConstant        0.0026712
# Detector                            0
# Monitor                             0
# Pil_Roi0                            0
# SumForIntensity1                    3.20294e+08
# TransmittedFlux                     889707
# det                                 0
# mon                                 0
# pilai0                              3.20294e+08
# pilai1                              686625
# pilct0                              5.53957e+08
# pilct1                              686625
# pilroi0                             0
# pilroi1                             0
# sec                                 1
# title                               20251017__1_00452.edf
# usaxs0                              0
# Operation                           Azimuthal average I(q)
# Error_model                         ErrorModel.poisson
# Geometrical_correction              True
# Transmission_correction             True
# Thickness_correction                False
# Binning mode                        Uniform
# Binning factor                      1.0
# Psi                                 0.0
# Omega                               0.2499
# MaskInvalidPixels                   True
# DetectorEdge                        3
# MaskFiles                           ['20251017__1_00233_mask.edf']
################################################################################
    q(A⁻¹)                Intensity(a.u.)            Sigma_I(a.u.)            
       0.690460             0.00775153859             0.00813908062           
       0.693100             0.00633964233             0.00329080022           
       0.695741              0.0034777229             0.00205912517           
       0.698381             0.00305320957             0.00180451183           
       0.701021             0.00755196274             0.00231620083           
       0.703662              0.0100173102             0.00246924505           
       0.706302             0.00666965928             0.00194588114           
       0.708942             0.00830211409             0.00192842503           
       0.711583              0.0066168999             0.00172129833           
       0.714223             0.00733524766             0.00157928488           
       0.716864             0.00656970858             0.00152516857           
       0.719504             0.00596046027             0.00134450233           
       0.722144             0.00721757435             0.00142890379           
       0.724785             0.00648735265             0.00133249017           
       0.727425             0.00604018295             0.00119259552           
       0.730065             0.00615353627             0.00123857431           
       0.732706             0.00654892327             0.00114900649           
       0.735346              0.0069572664             0.00127923162           
       0.737987             0.00661933459             0.00108000305           
       0.740627             0.00776237721             0.00128121786           
       0.743267             0.00633114412            0.000995295958           
       0.745908             0.00535508667            0.000981019286           
       0.748548             0.00541809557            0.000920339008           
       0.751189             0.00824059179             0.00112432722           
       0.753829             0.00756068281             0.00108666114           
       0.756469             0.00603316989            0.000912990874           
       0.759110             0.00717430545             0.00102978648           
       0.761750             0.00675079883            0.000914224834           
       0.764390             0.00678283309             0.00098369568           
       0.767031             0.00694784265            0.000900892641           
       0.769671               0.006000822            0.000887927654           
       0.772312             0.00649142217            0.000841566345           
       0.774952             0.00682623635            0.000925178232           
       0.777592             0.00678642234            0.000843743163           
       0.780233              0.0066928005            0.000883325189           
       0.782873             0.00718296844            0.000836811093           
       0.785513              0.0055888263            0.000785199753           
       0.788154             0.00870597993            0.000900147561           
       0.790794             0.00789699085            0.000887286741           
       0.793435             0.00833028297            0.000875298097           
       0.796075             0.00708101462            0.000811264255           
       0.798715             0.00601848312            0.000743655358           
       0.801356              0.0070585189            0.000783797993           
       0.803996             0.00580189051             0.00072196726           
       0.806637             0.00614501968            0.000702340151           
       0.809277             0.00533100665             0.00068436826           
       0.811917             0.00712188385            0.000748526586           
       0.814558             0.00803988912            0.000814740996           
       0.817198             0.00806107654            0.000777879168           
       0.819838             0.00760047936            0.000787888922           
       0.822479             0.00767835096            0.000729792298           
       0.825119             0.00675327024            0.000735242322           
       0.827760             0.00677916186             0.00068258224           
       0.830400             0.00857671944            0.000808936298           
       0.833040              0.0060747459            0.000635377776           
       0.835681             0.00644354353            0.000685275898           
       0.838321             0.00699540127            0.000668307937           
       0.840961             0.00785540221            0.000740239131           
       0.843602             0.00609267287            0.000614079176           
       0.846242             0.00626649973            0.000644765644           
       0.848883             0.00716850037            0.000670835608           
       0.851523             0.00608312875            0.000622598468           
       0.854163              0.0062503762            0.000623767293           
       0.856804             0.00829827582            0.000700336082           
       0.859444             0.00722073322            0.000657982818           
       0.862085             0.00766453297            0.000668040722           
       0.864725             0.00781842074            0.000672236711           
       0.867365             0.00656582874            0.000611626234           
       0.870006             0.00693520508             0.00063736534           
       0.872646             0.00660673286            0.000595014708           
       0.875286             0.00778115889            0.000667740532           
       0.877927             0.00663192513            0.000590235762           
       0.880567             0.00700714908            0.000618555747           
       0.883208             0.00614200243            0.000562387984           
       0.885848             0.00689883465            0.000611488109           
       0.888488              0.0074021214            0.000602249906           
       0.891129             0.00747808719            0.000636312551           
       0.893769              0.0067955364            0.000573367516           
       0.896410             0.00742842256            0.000617938637           
       0.899050             0.00722429437            0.000587570575           
       0.901690             0.00792676379            0.000628322023           
       0.904331             0.00695974388            0.000568195083           
       0.906971             0.00714643874            0.000594533034           
       0.909611             0.00734609621            0.000578568296           
       0.912252             0.00679774619            0.000566199971           
       0.914892              0.0074779138            0.000578809605           
       0.917533             0.00618643527            0.000538339503           
       0.920173             0.00721369141            0.000557629829           
       0.922813             0.00833205975             0.00062627794           
       0.925454             0.00665579223            0.000531232033           
       0.928094             0.00698707963            0.000555975441           
       0.930734             0.00683741974            0.000536862984           
       0.933375             0.00756629163            0.000576792483           
       0.936015             0.00772726355            0.000557724417           
       0.938656             0.00709457427            0.000556820234           
       0.941296             0.00719850163            0.000540690317           
       0.943936             0.00715118799             0.00054861613           
       0.946577             0.00795966334            0.000557417998           
       0.949217             0.00704449776            0.000542914789           
       0.951858             0.00734644588            0.000524146692           
       0.954498             0.00659679286            0.000522533704           
       0.957138             0.00749771114            0.000535429955           
       0.959779             0.00792073237            0.000562364428           
       0.962419             0.00759234056             0.00053004411           
       0.965059             0.00725519945            0.000532859596           
       0.967700             0.00736868275             0.00051964503           
       0.970340             0.00678938536            0.000512816869           
       0.972981             0.00653606535            0.000485814503           
       0.975621             0.00780696419            0.000542066842           
       0.978261             0.00805909017            0.000525484861           
       0.980902             0.00772902378            0.000539114856           
       0.983542              0.0075791731            0.000518318496           
       0.986182             0.00815670316            0.000544784981           
       0.988823             0.00716040247            0.000493961045           
       0.991463             0.00794038222            0.000532593498           
       0.994104             0.00771238553            0.000507198773           
       0.996744             0.00755874768            0.000518404621           
       0.999384             0.00867231558            0.000536432905           
       1.002025             0.00858545568            0.000548600608           
       1.004665             0.00723014864            0.000482818637           
       1.007306             0.00798437386            0.000524378297           
       1.009946             0.00691928403              0.0004693733           
       1.012586             0.00812740498            0.000523335431           
       1.015227             0.00774007251            0.000495253756           
       1.017867             0.00714350689            0.000489419695           
       1.020507             0.00758189728            0.000485232281           
       1.023148             0.00834958899             0.00051535616           
       1.025788             0.00752739994            0.000484314451           
       1.028429             0.00760945032            0.000497591891           
       1.031069             0.00738478794            0.000472275113           
       1.033709             0.00809236437            0.000503876865           
       1.036350             0.00789893904            0.000484764783           
       1.038990             0.00765933082            0.000489140544           
       1.041630             0.00757752175            0.000477161333           
       1.044271             0.00730448046            0.000468538277           
       1.046911             0.00756166409            0.000467858027           
       1.049552             0.00873416106             0.00052094458           
       1.052192             0.00869952667            0.000496531052           
       1.054832             0.00795692598            0.000484100958           
       1.057473             0.00721063382            0.000455005743           
       1.060113             0.00813356575            0.000488481603           
       1.062754             0.00755172775             0.00046547975           
       1.065394             0.00819744875            0.000479869805           
       1.068034             0.00862581843            0.000490342555           
       1.070675             0.00748114396             0.00046468191           
       1.073315             0.00751071476            0.000451367533           
       1.075955             0.00824716803            0.000480911781           
       1.078596             0.00817874383            0.000477966012           
       1.081236             0.00824006474            0.000472638701           
       1.083877             0.00783897302            0.000475393009           
       1.086517             0.00773600387            0.000461577246           
       1.089157             0.00851722812            0.000487874034           
       1.091798               0.008402433             0.00047430827           
       1.094438             0.00881984847            0.000493669982           
       1.097078             0.00824998906            0.000465186022           
       1.099719             0.00913637307            0.000502084903           
       1.102359             0.00818257565            0.000450123479           
       1.105000             0.00785418936            0.000458366878           
       1.107640             0.00872573196            0.000467380572           
       1.110280             0.00848131842            0.000470014857           
       1.112921             0.00806441254             0.00045002438           
       1.115561             0.00812832271            0.000457537763           
       1.118202             0.00808372066            0.000442963356           
       1.120842             0.00757514869            0.000442313514           
       1.123482             0.00837273314            0.000451971889           
       1.126123             0.00834570927            0.000454058043           
       1.128763             0.00865595973            0.000460127218           
       1.131403             0.00857171538             0.00045717085           
       1.134044             0.00845458745            0.000453248545           
       1.136684             0.00823743703            0.000450752199           
       1.139325             0.00821179579            0.000437369736           
       1.141965             0.00874763008            0.000457317622           
       1.144605             0.00834297819            0.000449238332           
       1.147246             0.00871539616            0.000450459663           
       1.149886             0.00888048146            0.000457939723           
       1.152527             0.00884784049            0.000457555372           
       1.155167             0.00796165906            0.000427934483           
       1.157807             0.00807272094            0.000431205762           
       1.160448             0.00840344745             0.00044596954           
       1.163088             0.00892888727            0.000442645903           
       1.165728             0.00932221189             0.00047093284           
       1.168369             0.00870397213            0.000438804061           
       1.171009             0.00866481357            0.000441445745           
       1.173650             0.00854877468            0.000435317934           
       1.176290              0.0083045313            0.000434088621           
       1.178930             0.00907747484            0.000441082643           
       1.181571             0.00984250594            0.000474294723           
       1.184211             0.00843923286            0.000425920367           
       1.186851             0.00906333374            0.000445458235           
       1.189492              0.0091241625            0.000449432504           
       1.192132             0.00912300761            0.000442748282           
       1.194773               0.008863739            0.000433778761           
       1.197413             0.00897497123            0.000440052688           
       1.200053             0.00827226114             0.00041981617           
       1.202694             0.00986366757            0.000454968305           
       1.205334             0.00912199171             0.00044231178           
       1.207975              0.0091918943            0.000435303638           
       1.210615             0.00918479938            0.000444337052           
       1.213255             0.00923128946            0.000433675395           
       1.215896             0.00915179537            0.000439988966           
       1.218536             0.00889371937            0.000421248093           
       1.221176              0.0095279765            0.000446417165           
       1.223817             0.00923045265            0.000430236036           
       1.226457             0.00907362622            0.000431983588           
       1.229098             0.00890472963            0.000421451954           
       1.231738             0.00959576009            0.000443659997           
       1.234378             0.00919090741              0.0004257633           
       1.237019             0.00914618668            0.000428152013           
       1.239659              0.0096636171            0.000439858284           
       1.242299              0.0088443967            0.000418649979           
       1.244940              0.0102837473            0.000446559445           
       1.247580             0.00972500552             0.00043617613           
       1.250221             0.00974553107            0.000443763573           
       1.252861             0.00987657723            0.000430093355           
       1.255501              0.0106808571            0.000459890641           
       1.258142              0.0098053899            0.000431928613           
       1.260782             0.00979372324            0.000436547599           
       1.263423             0.00995564177            0.000431421508           
       1.266063              0.0095849271            0.000431202945           
       1.268703              0.0102840531            0.000435398783           
       1.271344               0.010182424            0.000442678109           
       1.273984             0.00925348217            0.000415414752           
       1.276624             0.00989663399            0.000426987468           
       1.279265              0.0107538733            0.000446067932           
       1.281905             0.00972995318            0.000426916178           
       1.284546             0.00986035954            0.000425072581           
       1.287186             0.00949614422            0.000417548944           
       1.289826              0.0100426247            0.000431622075           
       1.292467              0.0101374577            0.000425915281           
       1.295107             0.00985853687            0.000427418489           
       1.297747              0.0100042496            0.000419272072           
       1.300388             0.00998488134            0.000429622175           
       1.303028              0.0102747502            0.000424731305           
       1.305669              0.0101283548            0.000427142932           
       1.308309              0.0110651929            0.000439747733           
       1.310949              0.0103387083            0.000430364886           
       1.313590              0.0101599811            0.000420026347           
       1.316230              0.0098579358            0.000421183041           
       1.318871              0.0102477892            0.000420166244           
       1.321511              0.0106351532            0.000430178689           
       1.324151              0.0106500719            0.000432181326           
       1.326792             0.00982894741            0.000411823268           
       1.329432              0.0105135216            0.000428145122           
       1.332072              0.0105800743            0.000422133259           
       1.334713              0.0100937568            0.000417430882           
       1.337353              0.0103741545            0.000416679499           
       1.339994              0.0103002217            0.000421105896           
       1.342634              0.0112545259            0.000430271796           
       1.345274              0.0109576767            0.000430109842           
       1.347915              0.0110923695            0.000433895722           
       1.350555              0.0110865344            0.000432086891           
       1.353195              0.0107755397             0.00041783419           
       1.355836               0.010041013            0.000410951998           
       1.358476              0.0112469603            0.000433707318           
       1.361117              0.0112844699            0.000423531865           
       1.363757              0.0106330475            0.000424750467           
       1.366397              0.0102774969            0.000404584569           
       1.369038              0.0104185626             0.00041593753           
       1.371678              0.0113330178            0.000425047932           
       1.374319             0.00968002064            0.000395944316           
       1.376959              0.0108630537            0.000413667592           
       1.379599              0.0108566647            0.000421606754           
       1.382240              0.0106814311            0.000410247476           
       1.384880              0.0100525087            0.000402873041           
       1.387520              0.0103146861              0.0004033215           
       1.390161              0.0107560843            0.000410741384           
       1.392801              0.0101553083            0.000401484437           
       1.395442              0.0101063053            0.000396364721           
       1.398082              0.0108212146            0.000411547961           
       1.400722             0.00968092653            0.000387502494           
       1.403363              0.0109120875             0.00041522313           
       1.406003              0.0108200192            0.000403314978           
       1.408644              0.0102844635            0.000401461799           
       1.411284              0.0106025476            0.000405387374           
       1.413924              0.0111256607            0.000410145791           
       1.416565              0.0110042205            0.000407421707           
       1.419205              0.0114186703            0.000419111302           
       1.421845              0.0108404396            0.000403227925           
       1.424486              0.0111770374            0.000411247795           
       1.427126              0.0109874208            0.000407487236           
       1.429767              0.0100040531            0.000382833213           
       1.432407              0.0113691488            0.000418398917           
       1.435047              0.0104513231            0.000389100051           
       1.437688              0.0103830517            0.000396415491           
       1.440328              0.0116852409            0.000412390121           
       1.442968              0.0105525563             0.00039731864           
       1.445609              0.0110380844            0.000399672485           
       1.448249              0.0104717918            0.000391802267           
       1.450890              0.0105565764            0.000390578953           
       1.453530              0.0102967315            0.000388599288           
       1.456170              0.0111836915            0.000404078778           
       1.458811              0.0102813401            0.000384352174           
       1.461451             0.00971806116             0.00037642206           
       1.464092              0.0105750138            0.000389245439           
       1.466732             0.00985434311            0.000373443521           
       1.469372               0.011029695            0.000393872634           
       1.472013             0.00991459219            0.000380112997           
       1.474653              0.0103539096            0.000378851816           
       1.477293              0.0103122953            0.000384453831           
       1.479934              0.0103348297            0.000380845391           
       1.482574              0.0112975564            0.000397206322           
       1.485215              0.0105454803             0.00038474585           
       1.487855               0.010256036            0.000379350625           
       1.490495              0.0103176943             0.00037967028           
       1.493136               0.010367731            0.000375598687           
       1.495776              0.0106979736            0.000388185651           
       1.498416              0.0104363686            0.000375961419           
       1.501057             0.00990152241            0.000369350841           
       1.503697              0.0102817185            0.000372756429           
       1.506338              0.0103325847            0.000376425406           
       1.508978              0.0106262127            0.000379482602           
       1.511618              0.0108850029            0.000383881654           
       1.514259              0.0102730345            0.000373607949           
       1.516899              0.0105808495            0.000379340489           
       1.519540              0.0103018119            0.000372227926           
       1.522180              0.0100758907            0.000363526529           
       1.524820              0.0107998162            0.000383960761           
       1.527461              0.0109497224            0.000378063667           
       1.530101              0.0101240043            0.000367288049           
       1.532741              0.0100457836            0.000364132992           
       1.535382              0.0100005808            0.000364112926           
       1.538022              0.0100967824            0.000362623077           
       1.540663              0.0106268702            0.000375536255           
       1.543303              0.0103097827            0.000365288116           
       1.545943              0.0109042483            0.000377777244           
       1.548584              0.0097868469            0.000359803866           
       1.551224              0.0103716758            0.000360902286           
       1.553864             0.00976374693            0.000359313071           
       1.556505               0.010573444            0.000368163156           
       1.559145              0.0106095129            0.000369643144           
       1.561786              0.0102117659            0.000361005169           
       1.564426              0.0102502606            0.000361358268           
       1.567066             0.00968218544            0.000348461033           
       1.569707             0.00976019173            0.000354927049           
       1.572347             0.00967862717            0.000348855282           
       1.574988             0.00956374108            0.000345406763           
       1.577628             0.00943948646            0.000350881697           
       1.580268             0.00911039698            0.000332815123           
       1.582909              0.0093499853            0.000343469285           
       1.585549             0.00931653983            0.000339650347           
       1.588189              0.0102295608            0.000359879395           
       1.590830             0.00932396604            0.000337682979           
       1.593470              0.0094408774            0.000342568305           
       1.596111             0.00946780995            0.000340092325           
       1.598751             0.00973435028            0.000348371562           
       1.601391             0.00969628421            0.000345466769           
       1.604032             0.00913560009            0.000332529512           
       1.606672             0.00886208339             0.00033410557           
       1.609312              0.0091567916            0.000329510152           
       1.611953             0.00887176222            0.000329041641           
       1.614593             0.00950818179            0.000338048414           
       1.617234             0.00859579024             0.00032324206           
       1.619874             0.00882675797            0.000323702564           
       1.622514             0.00887274402             0.00032741501           
       1.625155              0.0090036004            0.000329004893           
       1.627795             0.00948239501             0.00033422762           
       1.630436             0.00841124452            0.000317948608           
       1.633076             0.00856996334            0.000319303852           
       1.635716             0.00905256659            0.000327598967           
       1.638357             0.00862545896             0.00031841876           
       1.640997             0.00890907373            0.000326142165           
       1.643637             0.00911657037            0.000323792045           
       1.646278             0.00846657007            0.000316706294           
       1.648918             0.00850895012            0.000313404753           
       1.651559             0.00854417835            0.000318001505           
       1.654199             0.00903622777            0.000322547312           
       1.656839             0.00887377679            0.000319548765           
       1.659480             0.00856804984             0.00031676127           
       1.662120             0.00856817602            0.000312518856           
       1.664761             0.00847038555            0.000314094642           
       1.667401             0.00854894683             0.00031260826           
       1.670041             0.00848067484            0.000311713821           
       1.672682             0.00883482435            0.000315161981           
       1.675322             0.00887972987             0.00032154842           
       1.677962             0.00788628183            0.000297009785           
       1.680603             0.00830127184              0.0003074286           
       1.683243             0.00883477282            0.000314807385           
       1.685884             0.00869798803            0.000313549512           
       1.688524             0.00821532566            0.000303868382           
       1.691164             0.00852109697            0.000308676222           
       1.693805             0.00887722682            0.000317608367           
       1.696445             0.00843507148            0.000305300636           
       1.699085              0.0084263786             0.00030636153           
       1.701726             0.00890301529            0.000310810831           
       1.704366             0.00815684439            0.000304740039           
       1.707007             0.00841187667            0.000302863539           
       1.709647             0.00853539602            0.000308869672           
       1.712287             0.00836929609            0.000300738244           
       1.714928             0.00849973993            0.000306120333           
       1.717568             0.00840407751            0.000301593726           
       1.720209             0.00846727546            0.000304594947           
       1.722849             0.00871916199             0.00030958792           
       1.725489             0.00835973213               0.000298308           
       1.728130             0.00816224828            0.000300763908           
       1.730770             0.00875798701            0.000304961235           
       1.733410             0.00844968019             0.00030347771           
       1.736051             0.00887912796            0.000306265355           
       1.738691             0.00848623673            0.000302468898           
       1.741332             0.00794544538            0.000290871103           
       1.743972             0.00872511737             0.00030492157           
       1.746612             0.00810011191            0.000293865038           
       1.749253             0.00776766955            0.000289015135           
       1.751893             0.00857493162            0.000301840252           
       1.754533             0.00824604072            0.000291932649           
       1.757174             0.00822976395            0.000297097156           
       1.759814             0.00844081039            0.000296295347           
       1.762455             0.00838887505            0.000297897126           
       1.765095             0.00831251308             0.00029237382           
       1.767735             0.00832542234            0.000297572732           
       1.770376             0.00817775617            0.000290449375           
       1.773016             0.00819891516            0.000291283868           
       1.775657             0.00852255174            0.000297585605           
       1.778297             0.00776940179            0.000285522465           
       1.780937             0.00814998913            0.000291067457           
       1.783578             0.00856134829            0.000296921808           
       1.786218             0.00867140128            0.000303592615           
       1.788858             0.00811267639             0.00028635329           
       1.791499             0.00861098574            0.000300453859           
       1.794139             0.00850273048            0.000293046084           
       1.796780             0.00819780365            0.000289453196           
       1.799420             0.00840360314            0.000292690807           
       1.802060             0.00944315456            0.000306450396           
       1.804701             0.00888482126            0.000301240715           
       1.807341             0.00892202289            0.000298953857           
       1.809981             0.00861127479            0.000295652083           
       1.812622             0.00928496263            0.000305326626           
       1.815262             0.00914591636            0.000304112286           
       1.817903             0.00822511426            0.000284834375           
       1.820543             0.00870861462            0.000296709171           
       1.823183             0.00871343543             0.00029221831           
       1.825824             0.00893123667            0.000300296971           
       1.828464             0.00829643729            0.000288540267           
       1.831105             0.00831194194            0.000289927875           
       1.833745             0.00853998671            0.000293694733           
       1.836385             0.00885521211            0.000297902836           
       1.839026             0.00847239294            0.000295772709           
       1.841666              0.0081726515            0.000286721609           
       1.844306             0.00882867115            0.000301769333           
       1.846947             0.00841956133            0.000290907535           
       1.849587             0.00881709202            0.000301733555           
       1.852228             0.00809447112            0.000286029837           
       1.854868             0.00848857576            0.000298282392           
       1.857508             0.00862148042            0.000295057724           
       1.860149             0.00855647133            0.000296299291           
       1.862789             0.00785694887            0.000285185676           
       1.865429             0.00822605165            0.000292687271           
       1.868070             0.00823432756            0.000291822594           
       1.870710             0.00860908847            0.000299202039           
       1.873351             0.00826792165            0.000295085522           
       1.875991             0.00837262786            0.000298554434           
       1.878631             0.00843631565            0.000296902312           
       1.881272             0.00839353427            0.000295454828           
       1.883912             0.00870020505            0.000304331627           
       1.886553             0.00806838077            0.000289557266           
       1.889193             0.00790752168            0.000289967633           
       1.891833             0.00855707091            0.000298209405           
       1.894474             0.00802730954             0.00029111693           
       1.897114             0.00848091666             0.00029690809           
       1.899754             0.00916384949            0.000312092296           
       1.902395             0.00767774163            0.000285728392           
       1.905035             0.00777902808            0.000286479804           
       1.907676             0.00835622637            0.000297263125           
       1.910316             0.00777884371            0.000288638197           
       1.912956             0.00809871331            0.000294501176           
       1.915597             0.00861435575            0.000300565386           
       1.918237             0.00821432925            0.000297959051           
       1.920878             0.00838643075             0.00029573609           
       1.923518             0.00815537989            0.000299382092           
       1.926158             0.00874854419            0.000302953175           
       1.928799              0.0079313836            0.000292290831           
       1.931439             0.00851496011            0.000300426055           
       1.934079             0.00818827052            0.000297589977           
       1.936720             0.00717801044            0.000276987744           
       1.939360             0.00849134504            0.000304167188           
       1.942001             0.00827682365             0.00029914519           
       1.944641             0.00774795717            0.000288182967           
       1.947281              0.0076905769            0.000288501008           
       1.949922             0.00837730395            0.000301483288           
       1.952562             0.00826876966            0.000302101371           
       1.955202             0.00776299557            0.000285361884           
       1.957843             0.00834254877            0.000305219436           
       1.960483             0.00768180336            0.000288211453           
       1.963124             0.00768981117            0.000288147798           
       1.965764             0.00831708632            0.000299777005           
       1.968404             0.00812796984            0.000301648556           
       1.971045             0.00762832818            0.000284904682           
       1.973685             0.00786705371            0.000294727569           
       1.976326             0.00809958216            0.000297747694           
       1.978966             0.00781912603            0.000293931705           
       1.981606             0.00768312321            0.000288282885           
       1.984247             0.00787549519            0.000294414634           
       1.986887             0.00822291024            0.000303651927           
       1.989527             0.00791725814            0.000291747577           
       1.992168             0.00766357455            0.000293960765           
       1.994808             0.00798368337            0.000296547461           
       1.997449             0.00820465501            0.000300182499           
       2.000089              0.0079345967            0.000293462627           
       2.002729             0.00750240253            0.000291897152           
       2.005370             0.00777409891            0.000291487227           
       2.008010             0.00801836327            0.000299961422           
       2.010650             0.00832343455            0.000304740137           
       2.013291             0.00781524003            0.000296971308           
       2.015931             0.00747765688            0.000288407549           
       2.018572             0.00782775183            0.000299000786           
       2.021212             0.00794667868            0.000298559827           
       2.023852              0.0073861428            0.000289349584           
       2.026493             0.00743607719            0.000289053712           
       2.029133             0.00781351728              0.0002940385           
       2.031774             0.00708446231            0.000282699936           
       2.034414             0.00721764525            0.000283641957           
       2.037054             0.00770532932              0.0002967633           
       2.039695             0.00761447321            0.000289197595           
       2.042335             0.00791325431            0.000299835049           
       2.044975             0.00723309967            0.000284368953           
       2.047616             0.00781925161            0.000296933741           
       2.050256             0.00782205666            0.000293493552           
       2.052897             0.00755167984            0.000296917366           
       2.055537             0.00748955552            0.000287631785           
       2.058177             0.00763151299            0.000292909579           
       2.060818             0.00770777684            0.000295253244           
       2.063458             0.00765000853            0.000294549865           
       2.066098             0.00722248267            0.000284930891           
       2.068739             0.00801818749            0.000303346639           
       2.071379             0.00688885762            0.000277021413           
       2.074020             0.00762846484            0.000295505197           
       2.076660             0.00753127072            0.000291626374           
       2.079300             0.00738693803            0.000288776583           
       2.081941             0.00754889039             0.00029369976           
       2.084581             0.00744320778            0.000291852678           
       2.087222             0.00742679614            0.000291729347           
       2.089862             0.00811217922            0.000301093284           
       2.092502              0.0073305948            0.000291421899           
       2.095143             0.00714870754            0.000283670832           
       2.097783             0.00751365229            0.000295246842           
       2.100423             0.00773061577             0.00029373687           
       2.103064             0.00726473778             0.00028966486           
       2.105704             0.00745717453            0.000292353543           
       2.108345             0.00752900797            0.000295106899           
       2.110985             0.00802701032            0.000300430541           
       2.113625             0.00736863967            0.000292381644           
       2.116266             0.00716244563            0.000286128247           
       2.118906             0.00790747594            0.000300422956           
       2.121546             0.00702576336            0.000282954085           
       2.124187             0.00708596254            0.000288094176           
       2.126827             0.00798876197            0.000301099375           
       2.129468             0.00701818692            0.000285161735           
       2.132108             0.00737067551            0.000291630426           
       2.134748              0.0074055415            0.000291217717           
       2.137389             0.00725014063            0.000290559408           
       2.140029             0.00746690464            0.000294154898           
       2.142670             0.00743204716            0.000293947018           
       2.145310               0.007553605             0.00029747332           
       2.147950             0.00772242645            0.000301941946           
       2.150591             0.00673901338            0.000279475326           
       2.153231             0.00696268873            0.000288275367           
       2.155871             0.00770422918            0.000298858581           
       2.158512             0.00728220927            0.000295793552           
       2.161152             0.00702735183            0.000283313047           
       2.163793             0.00793151306            0.000305885186           
       2.166433             0.00755868361            0.000293431249           
       2.169073             0.00736995527            0.000296509704           
       2.171714             0.00731532845            0.000289394675           
       2.174354               0.007428264            0.000296076229           
       2.176995             0.00747315681            0.000294506142           
       2.179635             0.00810035314            0.000312418383           
       2.182275             0.00699391508            0.000284535825           
       2.184916             0.00659467261            0.000282134699           
       2.187556             0.00678261066            0.000281520277           
       2.190196             0.00754239991            0.000301535966           
       2.192837             0.00690260838            0.000285304722           
       2.195477             0.00665587932            0.000282861781           
       2.198118             0.00711875164            0.000287131401           
       2.200758             0.00720702432             0.00029339264           
       2.203398             0.00727677888            0.000289920096           
       2.206039             0.00712819344            0.000291330785           
       2.208679             0.00773213533             0.00030045133           
       2.211319             0.00694334633             0.00028605414           
       2.213960             0.00736762847            0.000291531412           
       2.216600             0.00702990813             0.00029148103           
       2.219241             0.00696681181            0.000285951403           
       2.221881             0.00691553737            0.000286382208           
       2.224521             0.00762500917            0.000299670706           
       2.227162             0.00714449475            0.000294630881           
       2.229802             0.00756595513            0.000298275034           
       2.232443             0.00749265223            0.000297993533           
       2.235083             0.00734143116            0.000293202328           
       2.237723             0.00671210802            0.000282502328           
       2.240364             0.00710933878            0.000289262765           
       2.243004             0.00711582415             0.00029026896           
       2.245644             0.00730736302            0.000293470387           
       2.248285             0.00748246794            0.000298893535           
       2.250925              0.0068967498            0.000285614807           
       2.253566             0.00705635508            0.000289607188           
       2.256206             0.00729664414            0.000293614732           
       2.258846             0.00708033463            0.000289232455           
       2.261487              0.0072230065            0.000292637351           
       2.264127             0.00713357619            0.000293571759           
       2.266767             0.00720246592            0.000290218033           
       2.269408             0.00690093224            0.000287451986           
       2.272048             0.00755631555            0.000298941855           
       2.274689             0.00706104937             0.00029011536           
       2.277329             0.00676381013            0.000283566113           
       2.279969             0.00753477952            0.000300198304           
       2.282610             0.00722533776            0.000291102538           
       2.285250             0.00711656848            0.000293446856           
       2.287891             0.00690178917             0.00028606862           
       2.290531             0.00749559784            0.000299591092           
       2.293171             0.00675066732             0.00028430055           
       2.295812             0.00688757484            0.000285644801           
       2.298452             0.00751043413            0.000300191469           
       2.301092             0.00724270892            0.000296665021           
       2.303733             0.00715925574            0.000289116953           
       2.306373             0.00698621784            0.000292587198           
       2.309014             0.00778826363            0.000302973026           
       2.311654             0.00714632033            0.000292972668           
       2.314294             0.00750207993            0.000299521189           
       2.316935             0.00741511062            0.000298956912           
       2.319575             0.00766843878            0.000302882333           
       2.322215             0.00702346634            0.000293995809           
       2.324856             0.00682191243            0.000282470445           
       2.327496             0.00677098369            0.000288310925           
       2.330137             0.00721262957            0.000292077282           
       2.332777             0.00732289504            0.000297520257           
       2.335417             0.00685243253            0.000286940454           
       2.338058             0.00734960725             0.00029835696           
       2.340698             0.00694244477            0.000287119799           
       2.343339              0.0071284932            0.000296493546           
       2.345979             0.00687423221            0.000285347858           
       2.348619             0.00669418841            0.000286903956           
       2.351260             0.00729981938            0.000293232571           
       2.353900             0.00732219421            0.000299902542           
       2.356540             0.00720364594            0.000293373777           
       2.359181             0.00761981417             0.00030576394           
       2.361821             0.00687216418            0.000286838052           
       2.364462             0.00709443199            0.000296310558           
       2.367102             0.00740398327            0.000293952454           
       2.369742             0.00760742871            0.000308641755           
       2.372383              0.0068271492            0.000283861936           
       2.375023             0.00742073852            0.000303655619           
       2.377663             0.00726799059            0.000294128059           
       2.380304             0.00730859947             0.00029904006           
       2.382944             0.00728388679            0.000295614088           
       2.385585             0.00721484186            0.000296991031           
       2.388225             0.00740500202                0.00029952           
       2.390865              0.0073569968            0.000299312052           
       2.393506             0.00717445215            0.000294213256           
       2.396146             0.00711683165            0.000294000657           
       2.398787             0.00752721227            0.000302622871           
       2.401427             0.00654873077            0.000280555102           
       2.404067             0.00706414954            0.000295834021           
       2.406708             0.00713170677            0.000293509162           
       2.409348             0.00684066412            0.000289620239           
       2.411988              0.0070425427            0.000292924211           
       2.414629             0.00723194195            0.000297808202           
       2.417269             0.00708972727            0.000292187694           
       2.419910             0.00708785121             0.00029583326           
       2.422550             0.00681107712              0.0002855976           
       2.425190             0.00665224669            0.000291134521           
       2.427831             0.00680852111            0.000283457272           
       2.430471             0.00651114217            0.000285300698           
       2.433112             0.00738124845            0.000296598275           
       2.435752             0.00706247772            0.000297467862           
       2.438392             0.00778438504            0.000307052009           
       2.441033             0.00635024243            0.000278599606           
       2.443673             0.00704807007            0.000294292121           
       2.446313              0.0069878623            0.000291471176           
       2.448954             0.00740709236            0.000302720263           
       2.451594             0.00724333373            0.000297559054           
       2.454235             0.00795594835            0.000310882629           
       2.456875             0.00714453728            0.000296095512           
       2.459515             0.00774734361            0.000308809249           
       2.462156             0.00775952148            0.000307458732           
       2.464796             0.00728585371            0.000303182032           
       2.467436             0.00825458396             0.00031594213           
       2.470077             0.00795829651            0.000314497955           
       2.472717             0.00774945488             0.00030646079           
       2.475358             0.00722439768             0.00029924909           
       2.477998             0.00738597254             0.00030096268           
       2.480638             0.00786110037            0.000311246466           
       2.483279             0.00760993888             0.00030754953           
       2.485919             0.00715983942             0.00029622692           
       2.488560             0.00708920999            0.000295984861           
       2.491200             0.00725652391            0.000299046726           
       2.493840             0.00730863456            0.000298484548           
       2.496481             0.00735721687            0.000303391141           
       2.499121             0.00700797692            0.000292160284           
       2.501761             0.00693505318            0.000295571389           
       2.504402             0.00709805463            0.000293294242           
       2.507042             0.00729892003            0.000302359225           
       2.509683              0.0069533521            0.000292427254           
       2.512323             0.00735848036            0.000302003521           
       2.514963              0.0150005338             0.00043205015           
       2.517604               0.029451709            0.000603021072           
       2.520244              0.0182612273            0.000474938269           
       2.522884              0.0083641378            0.000320724193           
       2.525525             0.00766161676            0.000309481074           
       2.528165              0.0192267021            0.000488020741           
       2.530806               0.033333349              0.0006401652           
       2.533446               0.017231757            0.000464365328           
       2.536086              0.0186462476            0.000478994392           
       2.538727              0.0102375656            0.000357197469           
       2.541367             0.00973697531            0.000347358904           
       2.544008             0.00731682313            0.000301366813           
       2.546648             0.00779674581            0.000311446681           
       2.549288               0.007090138            0.000297041326           
       2.551929             0.00697463038            0.000295584946           
       2.554569             0.00725156477             0.00029864184           
       2.557209             0.00633425637            0.000282268285           
       2.559850             0.00710809961             0.00029557525           
       2.562490             0.00715153511            0.000298635666           
       2.565131             0.00708701262            0.000297802681           
       2.567771             0.00731454676            0.000300942011           
       2.570411             0.00705794759            0.000299213597           
       2.573052             0.00681014424            0.000290483165           
       2.575692             0.00699701296            0.000295222663           
       2.578332             0.00663509512            0.000286636903           
       2.580973             0.00700266817            0.000296857053           
       2.583613             0.00707490865            0.000295665206           
       2.586254             0.00734498346            0.000303920841           
       2.588894             0.00665430203            0.000287735506           
       2.591534             0.00758421655              0.0003077483           
       2.594175              0.0071221623            0.000299957635           
       2.596815             0.00720314363            0.000298853448           
       2.599456             0.00717368956            0.000300681943           
       2.602096             0.00702125717            0.000296357015           
       2.604736             0.00664138475             0.00028898454           
       2.607377             0.00689881915            0.000293405796           
       2.610017             0.00673210177            0.000289737618           
       2.612657             0.00688154067             0.00029500504           
       2.615298             0.00727627298            0.000300380698           
       2.617938             0.00672574427            0.000291320095           
       2.620579             0.00688224551            0.000292282751           
       2.623219             0.00689734988            0.000297283749           
       2.625859             0.00697424393            0.000293898058           
       2.628500             0.00729626911            0.000305410963           
       2.631140             0.00752486714            0.000304688951           
       2.633780             0.00656860775            0.000288327814           
       2.636421             0.00732798216            0.000301767209           
       2.639061             0.00705433902            0.000299619316           
       2.641702             0.00771391753            0.000309964201           
       2.644342             0.00689831012            0.000295524455           
       2.646982             0.00700453495            0.000297538287           
       2.649623             0.00751208872            0.000309976893           
       2.652263             0.00660262215              0.0002882953           
       2.654904             0.00685501453            0.000295348835           
       2.657544             0.00742404842            0.000305200429           
       2.660184             0.00678203693            0.000292078759           
       2.662825             0.00736163372            0.000305032929           
       2.665465              0.0074582222            0.000307595351           
       2.668105             0.00740400338            0.000306596602           
       2.670746             0.00698251886            0.000295222686           
       2.673386             0.00669468538            0.000292577263           
       2.676027             0.00744480725            0.000305910568           
       2.678667             0.00770001245            0.000312727005           
       2.681307             0.00737148109            0.000303576736           
       2.683948             0.00761458379            0.000311606147           
       2.686588             0.00761393822            0.000308733573           
       2.689229              0.0077430552            0.000314134544           
       2.691869             0.00739836211            0.000303997916           
       2.694509             0.00768771186            0.000314135297           
       2.697150              0.0072168177            0.000299504701           
       2.699790             0.00694836142            0.000299985891           
       2.702430             0.00691502534            0.000293527618           
       2.705071             0.00697135909            0.000298754343           
       2.707711             0.00676681158            0.000291420073           
       2.710352             0.00687288656            0.000295366976           
       2.712992             0.00733759507            0.000306181497           
       2.715632             0.00734803304            0.000304656311           
       2.718273             0.00674809225            0.000292923704           
       2.720913             0.00711509873            0.000301286002           
       2.723553             0.00617346413            0.000279666991           
       2.726194             0.00714303755             0.00030227881           
       2.728834              0.0070961405            0.000298606669           
       2.731475             0.00677245464            0.000294266332           
       2.734115             0.00657757281            0.000288273529           
       2.736755             0.00646906331            0.000287775668           
       2.739396             0.00698449964            0.000297439323           
       2.742036             0.00722518308            0.000304585615           
       2.744677             0.00728885212            0.000306371969           
       2.747317             0.00728032002            0.000304705056           
       2.749957             0.00771382676            0.000315921079           
       2.752598             0.00699789798            0.000301809795           
       2.755238             0.00752034638            0.000312732252           
       2.757878             0.00739511839            0.000309234558           
       2.760519             0.00726991313             0.00030336828           
       2.763159             0.00771458501            0.000317589844           
       2.765800             0.00760022446            0.000309887216           
       2.768440             0.00699973103            0.000301310962           
       2.771080             0.00688247655            0.000296258832           
       2.773721             0.00716954964            0.000306083796           
       2.776361             0.00654221779            0.000289245894           
       2.779001             0.00697707015            0.000301844002           
       2.781642             0.00621854931            0.000283019911           
       2.784282             0.00705566234            0.000301573256           
       2.786923             0.00734366429            0.000305326679           
       2.789563             0.00670244714            0.000292278312           
       2.792203             0.00668098111              0.0002936674           
       2.794844              0.0072952708            0.000305475017           
       2.797484             0.00697977398            0.000299217616           
       2.800125              0.0063872919            0.000285866504           
       2.802765             0.00678272977            0.000300043633           
       2.805405             0.00724989967            0.000305726738           
       2.808046             0.00706916037            0.000306520883           
       2.810686             0.00696444045            0.000301000221           
       2.813326             0.00660937953            0.000296854918           
       2.815967             0.00666498608            0.000296222423           
       2.818607              0.0070301932            0.000307271118           
       2.821248             0.00620535447            0.000285083565           
       2.823888              0.0070871343            0.000309573348           
       2.826528             0.00656625687            0.000296202224           
       2.829169             0.00677019902            0.000299439091           
       2.831809             0.00634943079            0.000290238832           
       2.834449             0.00688777664            0.000297016221           
       2.837090             0.00704057309            0.000302099768           
       2.839730             0.00635839703            0.000285052641           
       2.842371             0.00658932924            0.000292204756           
       2.845011             0.00679395609             0.00029604543           
       2.847651             0.00660080035            0.000292342618           
       2.850292              0.0062542339            0.000282947757           
       2.852932             0.00742451132             0.00030883835           
       2.855573             0.00670363283            0.000296039711           
       2.858213             0.00654771142            0.000289293838           
       2.860853             0.00683707815            0.000297829861           
       2.863494             0.00669783805            0.000295491341           
       2.866134             0.00714638107            0.000309506588           
       2.868774             0.00724180774            0.000306796858           
       2.871415             0.00689935868            0.000302418983           
       2.874055             0.00667719028            0.000298983698           
       2.876696             0.00693819269            0.000302026775           
       2.879336               0.006500882            0.000294294231           
       2.881976             0.00695190063             0.00030408136           
       2.884617             0.00601925682            0.000281378012           
       2.887257             0.00677061316            0.000296342535           
       2.889897             0.00681795469            0.000300785332           
       2.892538             0.00706323902            0.000304025417           
       2.895178             0.00647736506            0.000288174518           
       2.897819             0.00643174391            0.000290111294           
       2.900459             0.00682748495            0.000296428466           
       2.903099             0.00714910318            0.000304913771           
       2.905740             0.00665381833            0.000290878549           
       2.908380             0.00701592397             0.00030267037           
       2.911021             0.00669629243             0.00029625759           
       2.913661             0.00675142974             0.00029420113           
       2.916301             0.00618707579            0.000285643197           
       2.918942             0.00703706063            0.000300037118           
       2.921582             0.00711808266            0.000304925402           
       2.924222             0.00697794173            0.000300157671           
       2.926863             0.00669761078            0.000294847721           
       2.929503             0.00713058409            0.000307606062           
       2.932144             0.00789835429            0.000318433482           
       2.934784             0.00636237957            0.000287013253           
       2.937424             0.00726995325            0.000307369311           
       2.940065              0.0068311219            0.000298190657           
       2.942705             0.00698291248            0.000302401497           
       2.945346             0.00769558268            0.000315583032           
       2.947986             0.00834482923            0.000329774976           
       2.950626              0.0088527472            0.000340707187           
       2.953267              0.0100384791            0.000358953225           
       2.955907             0.00950632668            0.000353927587           
       2.958547              0.0086626537            0.000334393149           
       2.961188             0.00704162608            0.000304118772           
       2.963828              0.0066340783            0.000293514036           
       2.966469             0.00648742404            0.000290323956           
       2.969109             0.00631710078            0.000287952656           
       2.971749              0.0079580419            0.000322244873           
       2.974390             0.00979660248            0.000358517803           
       2.977030              0.0089308074            0.000341657557           
       2.979670             0.00802782413            0.000321836699           
       2.982311             0.00729027456            0.000308909727           
       2.984951              0.0073653895            0.000311299897           
       2.987592             0.00730912411            0.000309061892           
       2.990232             0.00763481661             0.00031667929           
       2.992872             0.00819679956            0.000325560237           
       2.995513             0.00907673057             0.00034528047           
       2.998153              0.0115977904            0.000392814766           
       3.000794              0.0215085551            0.000527156691           
       3.003434              0.0342417189            0.000672191005           
       3.006074              0.0240743691             0.00056544423           
       3.008715              0.0170856001            0.000479978666           
       3.011355              0.0179116946            0.000496556131           
       3.013995              0.0166864594            0.000476928313           
       3.016636              0.0275181311            0.000613612222           
       3.019276               0.155744548             0.00149467722           
       3.021917               0.436253047             0.00245912972           
       3.024557               0.155140781             0.00147818434           
       3.027197              0.0772721812             0.00106073241           
       3.029838               0.120617055              0.0013189152           
       3.032478              0.0922419661             0.00116028365           
       3.035118                0.05942599            0.000936090547           
       3.037759               0.090701435             0.00115851309           
       3.040399              0.0709471791             0.00103634106           
       3.043040              0.0587702189            0.000952382841           
       3.045680              0.0539085646            0.000898092688           
       3.048320              0.0684649933             0.00102834835           
       3.050961               0.046202154             0.00085323813           
       3.053601              0.0736955617             0.00107283998           
       3.056242              0.0937448971                0.00121778           
       3.058882               0.079178963             0.00113582863           
       3.061522                0.25282431             0.00201556989           
       3.064163              0.0854547592             0.00117394056           
       3.066803               0.023028092            0.000621190458           
       3.069443              0.0244755703            0.000636150764           
       3.072084              0.0571313286            0.000980572437           
       3.074724              0.0710434524               0.001099921           
       3.077365              0.0136908504            0.000482507013           
       3.080005              0.0089458783            0.000394356875           
       3.082645             0.00942566925            0.000406855033           
       3.085286             0.00857771445            0.000388193794           
       3.087926             0.00781154646            0.000372808454           
       3.090566             0.00728199525            0.000363657934           
       3.093207             0.00717323461            0.000357032438           
       3.095847             0.00803113751            0.000385698462           
       3.098488             0.00762780529            0.000375207048           
       3.101128              0.0074933278            0.000373910707           
       3.103768             0.00804685325            0.000389657844           
       3.106409             0.00872205666            0.000408393685           
       3.109049             0.00939041596            0.000427046411           
       3.111690              0.0111864775            0.000464265027           
       3.114330              0.0179033796            0.000592562207           
       3.116970              0.0200401833            0.000635648909           
       3.119611               0.014266681            0.000532835091           
       3.122251              0.0101676134            0.000453506042           
       3.124891             0.00858884756            0.000418836306           
       3.127532             0.00766546768            0.000402809654           
       3.130172             0.00933409577            0.000435350805           
       3.132813             0.00835092052            0.000420165702           
       3.135453             0.00738321998            0.000403405845           
       3.138093             0.00645026277            0.000368111306           
       3.140734             0.00635082894            0.000372060898           
       3.143374             0.00636622914            0.000378206209           
       3.146014             0.00607425853            0.000366749992           
       3.148655             0.00637648718            0.000378721628           
       3.151295             0.00743949561            0.000412311186           
       3.153936             0.00706719973            0.000407794627           
       3.156576             0.00603196431             0.00037241992           
       3.159216             0.00647074815            0.000388882437           
       3.161857             0.00631919725              0.0003890158           
       3.164497              0.0059684055            0.000386035708           
       3.167138             0.00669257393            0.000398977549           
       3.169778             0.00589693813             0.00038127401           
       3.172418             0.00577485155             0.00037951128           
       3.175059             0.00607916318            0.000394478055           
       3.177699             0.00573373752            0.000381593598           
       3.180339             0.00584416502            0.000388694243           
       3.182980             0.00583144583            0.000393512629           
       3.185620             0.00596998975            0.000402510703           
       3.188261             0.00564526746            0.000386282868           
       3.190901              0.0060399354            0.000405714308           
       3.193541             0.00564338841            0.000393462077           
       3.196182             0.00576651676            0.000406006617           
       3.198822             0.00520450617            0.000381038801           
       3.201463             0.00603435583            0.000415599539           
       3.204103             0.00558132382            0.000405016952           
       3.206743             0.00519608068            0.000394093173           
       3.209384              0.0055008418            0.000403678136           
       3.212024             0.00598676395             0.00042262656           
       3.214664             0.00597508507            0.000430261673           
       3.217305             0.00599944687            0.000441196556           
       3.219945             0.00584053162            0.000431673951           
       3.222586             0.00557889107            0.000424281853           
       3.225226             0.00549739912            0.000430659974           
       3.227866             0.00609331353            0.000456908781           
       3.230507             0.00599243863            0.000458517814           
       3.233147             0.00616969788             0.00045836842           
       3.235787             0.00534840909            0.000426887152           
       3.238428             0.00451341095            0.000399076745           
       3.241068             0.00611362531            0.000473883702           
       3.243709             0.00556193912            0.000449488145           
       3.246349             0.00579488658            0.000456237392           
       3.248989             0.00570466324            0.000463018482           
       3.251630             0.00511590623            0.000440414657           
       3.254270             0.00589312678            0.000487216465           
       3.256911             0.00608168812            0.000482548366           
       3.259551             0.00655404656            0.000512006855           
       3.262191              0.0059052952            0.000490477395           
       3.264832             0.00489124425             0.00045057166           
       3.267472             0.00479235477            0.000452318501           
       3.270112             0.00562809032            0.000491569549           
       3.272753             0.00563200461            0.000497783524           
       3.275393             0.00547701748            0.000493413217           
       3.278034             0.00642438087            0.000545271095           
       3.280674             0.00588134579            0.000523231408           
       3.283314             0.00565757985            0.000516016847           
       3.285955             0.00494810379            0.000491642774           
       3.288595             0.00490032697            0.000494721728           
       3.291235             0.00500256399            0.000502792154           
       3.293876             0.00654909582            0.000578691057           
       3.296516             0.00602219946            0.000566242662           
       3.299157             0.00483905877            0.000515252924           
       3.301797             0.00467791982            0.000506816707           
       3.304437             0.00605209892            0.000587276822           
       3.307078             0.00448464713            0.000510449301           
       3.309718             0.00588397741            0.000590524194           
       3.312359             0.00637120036            0.000626903298           
       3.314999             0.00635836798            0.000632841548           
       3.317639             0.00595515611            0.000619042129           
       3.320280             0.00506154085            0.000579043479           
       3.322920             0.00555538491            0.000615710541           
       3.325560             0.00540246143            0.000618901463           
       3.328201             0.00731685148            0.000723302205           
       3.330841             0.00522271427            0.000625953104           
       3.333482             0.00494311632            0.000616699561           
       3.336122             0.00517821667            0.000644913432           
       3.338762             0.00623625365            0.000714212348           
       3.341403             0.00504960914            0.000648641458           
       3.344043             0.00498553541            0.000669112365           
       3.346683              0.0051602146              0.0006876377           
       3.349324             0.00542399692            0.000715907491           
       3.351964             0.00437938649            0.000663966229           
       3.354605             0.00418000226            0.000656021181           
       3.357245             0.00579174338             0.00079935077           
       3.359885             0.00481103887            0.000728799803           
       3.362526             0.00397849903              0.0006966351           
       3.365166             0.00494476333            0.000767049183           
       3.367807             0.00442192747            0.000776477149           
       3.370447             0.00541342139            0.000859462902           
       3.373087             0.00629590112            0.000978220143           
       3.375728             0.00621226069            0.000964355283           
       3.378368             0.00672766437              0.0010844243           
       3.381008             0.00386815877            0.000815109233           
       3.383649             0.00675246392             0.00116550297           
       3.386289             0.00514866686             0.00101814285           
       3.388930             0.00665255824             0.00127102964           
       3.391570             0.00503562083             0.00110629235           
       3.394210             0.00459768463              0.0011326515           
       3.396851             0.00482585725             0.00125700507           
       3.399491             0.00698459385             0.00153968471           
       3.402131             0.00742043079             0.00187855355           
       3.404772             0.00413332306             0.00140263537           
       3.407412             0.00563746833              0.0020326606           
       3.410053             0.00375379763             0.00172713001           
       3.412693             0.00453031751               0.002684423           
       3.415333              0.0021719417             0.00227736654           
