################################################################################
# EDF_DataBlockID                     0.Image.Psd
# EDF_BinarySize                      2105344
# EDF_HeaderSize                      2560
# ByteOrder                           LowByteFirst
# DataType                            FloatValue
# Dim_1                               512
# Dim_2                               1028
# Image                               0
# HeaderID                            EH:000000:000000:000000
# Size                                2105344
# Center_1                            304.9000
# Center_2                            588.7000
# Comment                             Xenocs_Cell_Window - front_window_open_only
# DDummy                              0.6
# Date                                2025-10-19T09:24:58
# Delta                               21.910000
# Dummy                               -1.5
# ExposureTime                        360
# Gamma                               15.360000
# Intensity1                          8.96075e-10
# PSize_1                             7.5e-05
# PSize_2                             7.5e-05
# Pressure                            0.0330563
# SampleDistance                      0.115750
# SampleEnvKind                       large
# SampleEnvPN                         ElectroChemical cell
# SampleEnvSN                         1141
# Thickness                           0
# Wavelength                          1.541891e-10
# Wavelength                          1.54189e-10
# aux                                 0
# aux_dial                            0.002375
# beamx                               588.429
# beamx_dial                          588.429
# beamz                               657.855
# beamz_dial                          657.855
# det0x                               -0.000396875
# det0x_dial                          6.36905
# det0xvd                             -0.0005
# det0xvd_dial                        -0.0005
# det0y                               450.002
# det0y_dial                          481.635
# det0z                               0
# det0z_dial                          1.2295
# det0zvd                             0
# det0zvd_dial                        0
# mag                                 1.818
# mag_dial                            1.818
# om                                  0.2499
# om_dial                             -0.610199
# phi                                 -0.0120535
# phi_dial                            0
# ry                                  0.599993
# ry_dial                             0.599993
# s1bot                               0.8
# s1bot_dial                          -1.66094
# s1hl                                0.8
# s1hl_dial                           -0.608437
# s1hr                                0.8
# s1hr_dial                           0.970938
# s1top                               0.8
# s1top_dial                          -0.461562
# s2bot                               0.45
# s2bot_dial                          1.36109
# s2hl                                0.45
# s2hl_dial                           -0.83375
# s2hr                                0.45
# s2hr_dial                           -0.118594
# s2top                               0.45
# s2top_dial                          1.44734
# w2theta                             32
# w2theta_dial                        32
# waxsch                              19.2605
# waxsch_dial                         -32.7238
# waxsh                               137.085
# waxsh_dial                          -43.5335
# waxsth                              26.0607
# waxsth_dial                         -19.4068
# waxsz                               67.0407
# waxsz_dial                          -23.7962
# wind                                65.9854
# wind_dial                           66.0041
# wpsi                                124
# wpsi_dial                           124
# wstod                               115
# wstod_dial                          115
# x                                   0
# x_dial                              1.00969
# z                                   0
# z_dial                              13.3172
# CountCutoff                         6807993
# DetectorModel                       Dectris EIGER2 Si 500K, S/N E-01-0554
# ThresholdSetting                    4023.88989258
# Saturation                          0
# FlatField                           Corrected
# BackgroundReductionExtra            0.02
# BackgroundCorrectionConstant        0.0026712
# Detector                            0
# Monitor                             0
# Pil_Roi0                            0
# SumForIntensity1                    3.22587e+08
# TransmittedFlux                     896075
# det                                 0
# mon                                 0
# pilai0                              3.22587e+08
# pilai1                              698455
# pilct0                              5.5837e+08
# pilct1                              698455
# pilroi0                             0
# pilroi1                             0
# sec                                 1
# title                               20251017__1_00357.edf
# usaxs0                              0
# Operation                           Azimuthal average I(q)
# Error_model                         ErrorModel.poisson
# Geometrical_correction              True
# Transmission_correction             True
# Thickness_correction                False
# Binning mode                        Uniform
# Binning factor                      1.0
# Psi                                 0.0
# Omega                               0.2499
# MaskInvalidPixels                   True
# DetectorEdge                        3
# MaskFiles                           ['20251017__1_00233_mask.edf']
################################################################################
    q(A⁻¹)                Intensity(a.u.)            Sigma_I(a.u.)            
       0.690460               0.015415569              0.0114370099           
       0.693100             0.00155814286             0.00162563896           
       0.695741             0.00344154458              0.0020410953           
       0.698381             0.00819948892             0.00294663363           
       0.701021             0.00958504201             0.00260012739           
       0.703662             0.00815583425             0.00222010825           
       0.706302             0.00770959311             0.00208464225           
       0.708942             0.00822285781             0.00191236649           
       0.711583             0.00345232635             0.00123889959           
       0.714223             0.00796056129             0.00163936726           
       0.716864             0.00621624013             0.00147829126           
       0.719504             0.00800213017             0.00155230048           
       0.722144             0.00496623133             0.00118106051           
       0.724785             0.00617941124             0.00129585119           
       0.727425             0.00693305752             0.00127315667           
       0.730065             0.00583552303             0.00120185176           
       0.732706             0.00768964128             0.00124062891           
       0.735346             0.00482252906             0.00106125224           
       0.737987             0.00552466774            0.000983155517           
       0.740627              0.0070675742             0.00121818185           
       0.743267             0.00906896259             0.00118697417           
       0.745908             0.00532219507            0.000974520571           
       0.748548             0.00617347503            0.000978905279           
       0.751189             0.00815106703              0.0011142229           
       0.753829              0.0047487385            0.000858131963           
       0.756469              0.0062391652            0.000925141632           
       0.759110              0.0064132979             0.00097017322           
       0.761750             0.00696288001            0.000925169293           
       0.764390             0.00491641898            0.000834508886           
       0.767031              0.0082960147            0.000980921225           
       0.769671              0.0056819881              0.0008609416           
       0.772312             0.00591223974            0.000800287022           
       0.774952             0.00651103825            0.000900349633           
       0.777592             0.00580502891            0.000777576886           
       0.780233             0.00643078822            0.000862780065           
       0.782873             0.00711723631            0.000830008358           
       0.785513             0.00598532326            0.000809682918           
       0.788154             0.00623786385            0.000759231376           
       0.790794             0.00893729303            0.000940562147           
       0.793435             0.00606848801            0.000744419395           
       0.796075             0.00642088911            0.000769774469           
       0.798715             0.00723218877            0.000812296138           
       0.801356             0.00590243693            0.000714190974           
       0.803996             0.00806801371            0.000848334983           
       0.806637             0.00678978087            0.000735639533           
       0.809277             0.00660209353            0.000758887513           
       0.811917             0.00582834387            0.000674735707           
       0.814558             0.00628098762            0.000717562662           
       0.817198             0.00679641655             0.00071171634           
       0.819838             0.00685377074            0.000745522255           
       0.822479             0.00637273868             0.00066249053           
       0.825119             0.00614914837            0.000699088636           
       0.827760             0.00686401113            0.000684395736           
       0.830400             0.00714626823            0.000735774448           
       0.833040             0.00602350769            0.000630440377           
       0.835681              0.0064622855            0.000683828926           
       0.838321               0.007125933            0.000672113307           
       0.840961             0.00721797143            0.000707044468           
       0.843602             0.00813765527            0.000707166058           
       0.846242             0.00517317524            0.000583739785           
       0.848883             0.00725283347            0.000672368142           
       0.851523             0.00626881357            0.000629779535           
       0.854163              0.0070660138            0.000660857897           
       0.856804             0.00753478091            0.000664965643           
       0.859444             0.00687257504            0.000639639053           
       0.862085             0.00758663476            0.000662271399           
       0.864725             0.00659825467            0.000615359014           
       0.867365             0.00607780695            0.000586362386           
       0.870006             0.00722879291            0.000648399996           
       0.872646              0.0070407847             0.00061206308           
       0.875286             0.00655529453            0.000610707178           
       0.877927              0.0072122072            0.000613325658           
       0.880567             0.00608143232            0.000574198997           
       0.883208             0.00741674324            0.000615799011           
       0.885848             0.00701631088            0.000614477356           
       0.888488             0.00658413158            0.000565977561           
       0.891129             0.00688909062             0.00060856574           
       0.893769             0.00612130578            0.000542243773           
       0.896410             0.00616040181             0.00056072884           
       0.899050             0.00736332719            0.000591086029           
       0.901690             0.00767282542            0.000615975311           
       0.904331             0.00676588041            0.000558231481           
       0.906971             0.00680097122            0.000577920294           
       0.909611              0.0062996188              0.0005338691           
       0.912252             0.00744541202             0.00059044991           
       0.914892             0.00649324377            0.000537437145           
       0.917533             0.00735411381            0.000584860793           
       0.920173             0.00689713906            0.000543316672           
       0.922813             0.00728492042            0.000583518536           
       0.925454             0.00829348624            0.000590886767           
       0.928094             0.00793855441            0.000590513455           
       0.930734             0.00786402159             0.00057370814           
       0.933375             0.00720384417            0.000560804554           
       0.936015             0.00730909494             0.00054049281           
       0.938656             0.00720612798            0.000559183241           
       0.941296             0.00702076324             0.00053207276           
       0.943936             0.00748784687            0.000559383015           
       0.946577             0.00767435794            0.000545388513           
       0.949217             0.00686554772            0.000534066789           
       0.951858             0.00646333618            0.000489884732           
       0.954498             0.00678854457            0.000528186801           
       0.957138             0.00744045034             0.00053148284           
       0.959779             0.00710665247            0.000530785481           
       0.962419             0.00709448096            0.000510547095           
       0.965059             0.00898819925             0.00059098408           
       0.967700             0.00755202632            0.000524197468           
       0.970340             0.00674711651            0.000509398312           
       0.972981             0.00738819681            0.000514674716           
       0.975621             0.00755104256            0.000531210354           
       0.978261             0.00701586997            0.000488550307           
       0.980902              0.0078358195            0.000540894434           
       0.983542             0.00722202038            0.000504157778           
       0.986182             0.00680239178             0.00049573541           
       0.988823             0.00818981996            0.000526395883           
       0.991463             0.00730925033            0.000509170105           
       0.994104             0.00708562421            0.000484422392           
       0.996744             0.00734144621            0.000509080045           
       0.999384              0.0073922307            0.000493499767           
       1.002025             0.00832402264             0.00053826056           
       1.004665             0.00817062944            0.000511433879           
       1.007306             0.00666413667            0.000477361674           
       1.009946             0.00775768411            0.000495227976           
       1.012586             0.00783978579            0.000512162303           
       1.015227              0.0078669101            0.000497517865           
       1.017867             0.00712614886            0.000487084687           
       1.020507             0.00740765688            0.000477917011           
       1.023148              0.0074227458            0.000484181889           
       1.025788             0.00820367339            0.000503802637           
       1.028429             0.00785025699            0.000503604859           
       1.031069             0.00741263731            0.000471480511           
       1.033709             0.00738716513            0.000479707967           
       1.036350             0.00774833264            0.000478412075           
       1.038990             0.00745299843            0.000480789624           
       1.041630             0.00819596322            0.000494484829           
       1.044271             0.00784278775            0.000483767808           
       1.046911             0.00897859609            0.000507996752           
       1.049552             0.00784177139            0.000491857544           
       1.052192             0.00833191841            0.000484197373           
       1.054832             0.00772784974            0.000475383322           
       1.057473             0.00806379961            0.000479458856           
       1.060113             0.00899914323            0.000511987816           
       1.062754             0.00760422545            0.000465432221           
       1.065394             0.00744334801            0.000455637599           
       1.068034             0.00789198066            0.000467351627           
       1.070675             0.00794362016            0.000477125159           
       1.073315             0.00835436145            0.000474348615           
       1.075955             0.00780424392            0.000466154344           
       1.078596             0.00824990307            0.000478332025           
       1.081236             0.00836761773            0.000474587403           
       1.083877             0.00804425841              0.0004798633           
       1.086517             0.00784272461            0.000463095817           
       1.089157             0.00827196223            0.000479086749           
       1.091798             0.00794361736            0.000459535058           
       1.094438             0.00913290463            0.000500566687           
       1.097078             0.00826551688            0.000463966155           
       1.099719             0.00925379349             0.00050350232           
       1.102359             0.00833735923            0.000452743509           
       1.105000             0.00902472207            0.000489588023           
       1.107640             0.00802919632            0.000446742308           
       1.110280             0.00824561558            0.000461788132           
       1.112921             0.00834656952            0.000456199711           
       1.115561             0.00781345566            0.000446991613           
       1.118202               0.007689267            0.000430482941           
       1.120842             0.00933655442            0.000489304565           
       1.123482               0.009370788            0.000476449833           
       1.126123             0.00806013903             0.00044463366           
       1.128763             0.00810071702            0.000443540584           
       1.131403             0.00791384895            0.000437713419           
       1.134044             0.00811147438            0.000442375873           
       1.136684             0.00847133824            0.000455479814           
       1.139325              0.0089693716            0.000455472321           
       1.141965             0.00904008951            0.000463244659           
       1.144605             0.00904686334            0.000466140234           
       1.147246             0.00985092563            0.000477201922           
       1.149886             0.00903093906            0.000460158915           
       1.152527             0.00812573471            0.000436925769           
       1.155167             0.00848937079            0.000440316105           
       1.157807             0.00922995451            0.000459436706           
       1.160448             0.00819856665            0.000438931493           
       1.163088             0.00847818886            0.000429794294           
       1.165728              0.0089548754            0.000459918192           
       1.168369             0.00816459728            0.000423477753           
       1.171009             0.00917415795            0.000452618346           
       1.173650             0.00926154352            0.000451489478           
       1.176290             0.00852174638            0.000438163769           
       1.178930             0.00914205698            0.000441073257           
       1.181571             0.00857364989            0.000441092472           
       1.184211             0.00839481875            0.000423286003           
       1.186851             0.00914487794            0.000445864901           
       1.189492             0.00862205426             0.00043533609           
       1.192132             0.00958524604            0.000452210687           
       1.194773             0.00926972179            0.000442022603           
       1.197413             0.00858941069            0.000428964303           
       1.200053             0.00949767755            0.000448236355           
       1.202694              0.0103524864            0.000464446386           
       1.205334             0.00921967765            0.000443090931           
       1.207975             0.00914997469             0.00043276393           
       1.210615             0.00894765976            0.000437002323           
       1.213255             0.00956062091            0.000439772401           
       1.215896             0.00987997644            0.000455530975           
       1.218536             0.00937108777            0.000430866336           
       1.221176             0.00968398922            0.000448455153           
       1.223817             0.00958304244            0.000436815774           
       1.226457             0.00906598032            0.000430264499           
       1.229098             0.00903402567            0.000422989597           
       1.231738             0.00921060665             0.00043311779           
       1.234378             0.00906763267            0.000421392993           
       1.237019             0.00985552953            0.000442862864           
       1.239659             0.00888799723            0.000420335623           
       1.242299             0.00937192521            0.000429420425           
       1.244940             0.00930314101            0.000423223435           
       1.247580             0.00969677794            0.000433992291           
       1.250221             0.00974185156            0.000442100465           
       1.252861             0.00996806695            0.000430542766           
       1.255501             0.00963009594            0.000435129121           
       1.258142              0.0101527208            0.000437947535           
       1.260782             0.00925495138            0.000422859492           
       1.263423             0.00961799869            0.000422533203           
       1.266063             0.00965879552             0.00043132052           
       1.268703             0.00981285439            0.000423793269           
       1.271344             0.00995133827            0.000436068309           
       1.273984              0.0100696566            0.000431805302           
       1.276624              0.0106644224            0.000441663354           
       1.279265              0.0107222276            0.000443825631           
       1.281905              0.0101896593            0.000435329795           
       1.284546             0.00970099431            0.000420122716           
       1.287186             0.00947822371            0.000415669864           
       1.289826             0.00976559558            0.000424112158           
       1.292467             0.00951454855            0.000411153613           
       1.295107              0.0100357456            0.000429707782           
       1.297747              0.0102343437            0.000422556705           
       1.300388              0.0106140502            0.000441374386           
       1.303028              0.0103115013            0.000423975644           
       1.305669              0.0107288052            0.000438057152           
       1.308309              0.0112291943            0.000441417693           
       1.310949              0.0100846169            0.000423530522           
       1.313590              0.0103476205            0.000422378354           
       1.316230              0.0107989917            0.000439259142           
       1.318871              0.0107882995            0.000429569944           
       1.321511              0.0103523311            0.000422909477           
       1.324151             0.00987751186            0.000414729407           
       1.326792             0.00979227233            0.000409591032           
       1.329432              0.0104852328             0.00042604675           
       1.332072             0.00980763718            0.000404984808           
       1.334713             0.00983038496             0.00041048259           
       1.337353              0.0111296714            0.000430049328           
       1.339994              0.0102823186            0.000419242099           
       1.342634              0.0110594131            0.000425007545           
       1.345274              0.0114637754            0.000438364418           
       1.347915              0.0105931325            0.000422509745           
       1.350555              0.0101705099            0.000412378366           
       1.353195              0.0107085267            0.000415050217           
       1.355836              0.0110338178            0.000429256183           
       1.358476              0.0108937366            0.000425323057           
       1.361117              0.0108059236             0.00041297882           
       1.363757              0.0108845931            0.000428215526           
       1.366397              0.0104447294            0.000406411097           
       1.369038              0.0108339358            0.000422638112           
       1.371678              0.0107897294            0.000413258431           
       1.374319              0.0106332682            0.000413504918           
       1.376959              0.0102883016            0.000401142524           
       1.379599              0.0106954476            0.000416975129           
       1.382240              0.0106025933            0.000407275769           
       1.384880              0.0107564668            0.000415257152           
       1.387520              0.0107681728            0.000410625293           
       1.390161             0.00946140224            0.000383857863           
       1.392801              0.0103418867             0.00040371359           
       1.395442              0.0109861411             0.00041178706           
       1.398082              0.0100928325            0.000396041143           
       1.400722              0.0103496618            0.000399236687           
       1.403363              0.0102822973            0.000401628035           
       1.406003              0.0108782346            0.000402959008           
       1.408644              0.0110812539                0.00041524           
       1.411284              0.0106723281            0.000405271449           
       1.413924              0.0108653403            0.000403876277           
       1.416565              0.0109875431            0.000405663695           
       1.419205              0.0106995704            0.000404255652           
       1.421845              0.0101838794            0.000389435108           
       1.424486              0.0101950992            0.000391369774           
       1.427126              0.0112866278            0.000411528157           
       1.429767              0.0105686126            0.000392086533           
       1.432407              0.0110008395            0.000410100985           
       1.435047               0.010952627            0.000396904592           
       1.437688              0.0101156628            0.000389885069           
       1.440328             0.00976199155            0.000375586483           
       1.442968               0.010544429            0.000395751856           
       1.445609              0.0104962133            0.000388351549           
       1.448249              0.0100416246            0.000382304807           
       1.450890              0.0100967932            0.000380618894           
       1.453530              0.0103442909            0.000388109251           
       1.456170             0.00975730205            0.000376088151           
       1.458811              0.0107334236            0.000391313595           
       1.461451             0.00976354509            0.000375958878           
       1.464092              0.0104455484            0.000385478365           
       1.466732             0.00996468023            0.000374191653           
       1.469372             0.00996083689            0.000372969478           
       1.472013              0.0105757217            0.000391184485           
       1.474653             0.00976087694            0.000366532873           
       1.477293              0.0110479953            0.000396514969           
       1.479934              0.0115415852            0.000401033911           
       1.482574              0.0106910436            0.000385021753           
       1.485215               0.010681161            0.000385834729           
       1.487855              0.0106045585            0.000384369266           
       1.490495              0.0103996482            0.000379818331           
       1.493136              0.0099797931            0.000367192918           
       1.495776              0.0105060798            0.000383319036           
       1.498416               0.010247608            0.000371219817           
       1.501057              0.0109786973            0.000387538481           
       1.503697              0.0103477306            0.000372620006           
       1.506338              0.0105398376            0.000378828569           
       1.508978             0.00974859385            0.000362180388           
       1.511618             0.00992620808            0.000365280167           
       1.514259              0.0105423142            0.000377125618           
       1.516899              0.0102308658            0.000371686209           
       1.519540               0.010398223            0.000372634475           
       1.522180             0.00985955428            0.000358322723           
       1.524820              0.0105029957            0.000377299803           
       1.527461               0.010168835            0.000363036516           
       1.530101              0.0105516954            0.000373631155           
       1.532741              0.0103934028            0.000369061144           
       1.535382              0.0100429995            0.000363585477           
       1.538022              0.0103084122            0.000365099426           
       1.540663             0.00961446253            0.000355928703           
       1.543303               0.010440446             0.00036628711           
       1.545943              0.0102459564            0.000364892976           
       1.548584              0.0105397868            0.000372058872           
       1.551224             0.00950325429            0.000344233128           
       1.553864              0.0101279655            0.000364650815           
       1.556505             0.00999012113            0.000356589695           
       1.559145              0.0100250915            0.000358039076           
       1.561786              0.0103882821            0.000362815795           
       1.564426              0.0101875636            0.000358969072           
       1.567066             0.00885481483            0.000332053901           
       1.569707             0.00961895446            0.000351095434           
       1.572347              0.0098497525            0.000350673062           
       1.574988             0.00943971129            0.000341938192           
       1.577628               0.010056356            0.000360876144           
       1.580268             0.00996161169            0.000346777195           
       1.582909              0.0098937012            0.000352057143           
       1.585549             0.00973076647            0.000345883296           
       1.588189             0.00956623553            0.000346777048           
       1.590830             0.00977928843            0.000344598815           
       1.593470             0.00941080328            0.000340804774           
       1.596111             0.00909078259            0.000332065704           
       1.598751             0.00896942191            0.000333213632           
       1.601391             0.00857076887            0.000323641962           
       1.604032             0.00881879621            0.000325549949           
       1.606672             0.00863211116             0.00032856828           
       1.609312             0.00860866869            0.000318358504           
       1.611953             0.00922997642            0.000334424075           
       1.614593             0.00852208617            0.000318899948           
       1.617234             0.00899065011            0.000329406249           
       1.619874             0.00938825298            0.000332651316           
       1.622514             0.00927280453            0.000333523535           
       1.625155             0.00901067104            0.000327962464           
       1.627795             0.00879285481            0.000320700465           
       1.630436             0.00877207606            0.000323540995           
       1.633076             0.00948692394             0.00033475626           
       1.635716              0.0088454227            0.000322676456           
       1.638357              0.0089412457            0.000323041173           
       1.640997             0.00877484744            0.000322523812           
       1.643637             0.00886533825            0.000318162807           
       1.646278              0.0091670288            0.000328373848           
       1.648918               0.008769256            0.000317029946           
       1.651559             0.00848703509            0.000315808158           
       1.654199              0.0087433133            0.000316147088           
       1.656839             0.00790142004            0.000300460089           
       1.659480             0.00838089565            0.000312167455           
       1.662120             0.00861120503            0.000312187366           
       1.664761              0.0092288987            0.000326689519           
       1.667401             0.00829254999            0.000306788809           
       1.670041             0.00891709864            0.000318495985           
       1.672682             0.00804975024            0.000299762559           
       1.675322             0.00841816244            0.000311965435           
       1.677962             0.00875516025            0.000311830064           
       1.680603             0.00811285425            0.000302837819           
       1.683243             0.00888365097            0.000314553329           
       1.685884             0.00835013264            0.000306122137           
       1.688524             0.00857866932            0.000309410045           
       1.691164             0.00905104009            0.000316997612           
       1.693805             0.00882495309            0.000315544636           
       1.696445              0.0076441814            0.000289601056           
       1.699085             0.00894479982            0.000314521532           
       1.701726             0.00798910052            0.000293378208           
       1.704366             0.00822325086            0.000304888837           
       1.707007             0.00862636134            0.000305608684           
       1.709647             0.00863599103            0.000309578537           
       1.712287             0.00844252756            0.000300975927           
       1.714928              0.0083424679            0.000302195473           
       1.717568             0.00821448901            0.000297111101           
       1.720209             0.00868687537             0.00030742131           
       1.722849             0.00859142327            0.000306217858           
       1.725489              0.0080943578            0.000292490148           
       1.728130             0.00822332912            0.000300812569           
       1.730770             0.00818281032            0.000293727801           
       1.733410             0.00803311103            0.000294849144           
       1.736051             0.00827117534            0.000294542285           
       1.738691             0.00783112842            0.000289525386           
       1.741332             0.00840008235            0.000298012547           
       1.743972             0.00873175883            0.000303951785           
       1.746612             0.00860023973            0.000301723413           
       1.749253             0.00908722395            0.000311488598           
       1.751893             0.00844018208            0.000298393291           
       1.754533             0.00819850311            0.000290053784           
       1.757174             0.00822172845            0.000295895045           
       1.759814             0.00877128403            0.000300964776           
       1.762455             0.00837925434            0.000296666468           
       1.765095             0.00832362832            0.000291527799           
       1.767735             0.00834693625            0.000296896355           
       1.770376             0.00821804611            0.000290127554           
       1.773016             0.00876056093            0.000300023669           
       1.775657             0.00845031457            0.000295266963           
       1.778297             0.00833329145            0.000294649767           
       1.780937             0.00890195009            0.000303116123           
       1.783578             0.00893727084            0.000302290707           
       1.786218             0.00842778445            0.000298232243           
       1.788858             0.00842752711            0.000290818148           
       1.791499             0.00808241554            0.000290050262           
       1.794139             0.00829534253            0.000288419886           
       1.796780             0.00895943128             0.00030152348           
       1.799420             0.00843189966            0.000292139548           
       1.802060             0.00883447166            0.000295354269           
       1.804701             0.00896045927            0.000301443401           
       1.807341             0.00892782242              0.0002979865           
       1.809981             0.00870558222            0.000296208457           
       1.812622             0.00878474777            0.000295931074           
       1.815262             0.00891580079            0.000299193294           
       1.817903             0.00873723521            0.000292522831           
       1.820543             0.00838559332            0.000290117987           
       1.823183             0.00877437099            0.000292194499           
       1.825824             0.00828759057            0.000288244229           
       1.828464             0.00880957073            0.000296271113           
       1.831105             0.00827168912            0.000288195468           
       1.833745             0.00801879604            0.000283578609           
       1.836385             0.00843547569            0.000289721861           
       1.839026             0.00836593464            0.000292862396           
       1.841666             0.00857990617            0.000292732895           
       1.844306             0.00826499503            0.000290937736           
       1.846947             0.00846164687            0.000290595584           
       1.849587             0.00829846755            0.000291683052           
       1.852228             0.00867356274            0.000295030683           
       1.854868             0.00889172701            0.000304196762           
       1.857508             0.00844038898            0.000290903281           
       1.860149             0.00847944868            0.000293912728           
       1.862789             0.00856216981             0.00029664975           
       1.865429             0.00840418918            0.000294786338           
       1.868070             0.00891344836            0.000302537381           
       1.870710             0.00881541844            0.000301688497           
       1.873351             0.00848936414            0.000297946735           
       1.875991             0.00858768612             0.00030128814           
       1.878631             0.00826538868            0.000292833078           
       1.881272             0.00856842107            0.000297454388           
       1.883912              0.0079587211            0.000290038273           
       1.886553             0.00806881706            0.000288534356           
       1.889193             0.00818504347            0.000293961968           
       1.891833             0.00798311652            0.000287009537           
       1.894474             0.00836547951            0.000296127814           
       1.897114             0.00829659647            0.000292618609           
       1.899754             0.00868190869            0.000302693437           
       1.902395             0.00827743975             0.00029562148           
       1.905035             0.00810008234            0.000291291212           
       1.907676             0.00808391696            0.000291338706           
       1.910316             0.00805378024            0.000292649301           
       1.912956              0.0081048254             0.00029356358           
       1.915597             0.00875771589            0.000301977311           
       1.918237             0.00782190547            0.000289719772           
       1.920878             0.00861296874            0.000298636924           
       1.923518             0.00819103143            0.000298967749           
       1.926158             0.00767320126            0.000282713946           
       1.928799             0.00816432633            0.000295496415           
       1.931439             0.00846804379            0.000298530808           
       1.934079             0.00805664076            0.000294137592           
       1.936720              0.0080255254            0.000291841178           
       1.939360             0.00793826462             0.00029304764           
       1.942001             0.00832252278            0.000298902119           
       1.944641             0.00867251998            0.000303807633           
       1.947281             0.00822147005            0.000297230888           
       1.949922             0.00826274425            0.000298348999           
       1.952562             0.00823258744            0.000300366676           
       1.955202             0.00791774729            0.000287166276           
       1.957843             0.00767390558            0.000291690549           
       1.960483             0.00794501147            0.000292064135           
       1.963124             0.00828680813            0.000298059132           
       1.965764             0.00836435967            0.000299557629           
       1.968404             0.00795428249            0.000297345957           
       1.971045             0.00782784421            0.000287579094           
       1.973685             0.00778570993             0.00029215622           
       1.976326             0.00820888511            0.000298683004           
       1.978966             0.00847120303            0.000304853507           
       1.981606              0.0084289638            0.000300876577           
       1.984247             0.00763191118            0.000288794178           
       1.986887              0.0078277869            0.000295212054           
       1.989527             0.00777753189            0.000288132388           
       1.992168             0.00778663568            0.000295256812           
       1.994808             0.00782711411            0.000292580053           
       1.997449             0.00755906018            0.000287104785           
       2.000089             0.00738485029            0.000282106143           
       2.002729              0.0080136002            0.000300604055           
       2.005370             0.00768664634            0.000288811359           
       2.008010             0.00770628061            0.000293019331           
       2.010650             0.00773937915            0.000292807879           
       2.013291             0.00793840428            0.000298236821           
       2.015931             0.00753262624            0.000288435286           
       2.018572             0.00738664076            0.000289420053           
       2.021212             0.00725499014             0.00028425511           
       2.023852              0.0073872971            0.000288342141           
       2.026493              0.0080688775            0.000300029868           
       2.029133             0.00773691143            0.000291552014           
       2.031774             0.00748232288            0.000289495494           
       2.034414             0.00738222422            0.000285836474           
       2.037054             0.00797858853            0.000300904683           
       2.039695             0.00799019437            0.000295192107           
       2.042335              0.0077096283            0.000294898715           
       2.044975              0.0083381489            0.000304232846           
       2.047616             0.00772420963            0.000294073103           
       2.050256              0.0076110332            0.000288477016           
       2.052897             0.00789503265            0.000302511649           
       2.055537              0.0078734937            0.000293862331           
       2.058177              0.0075124893            0.000289581962           
       2.060818              0.0071371449            0.000283102492           
       2.063458             0.00737820191             0.00028824014           
       2.066098             0.00763343346             0.00029188217           
       2.068739             0.00770898602            0.000296381463           
       2.071379             0.00767069139            0.000291278423           
       2.074020               0.007544557            0.000292829444           
       2.076660               0.007524598            0.000290459539           
       2.079300             0.00771961835            0.000294156861           
       2.081941             0.00798410854             0.00030097233           
       2.084581             0.00749245233            0.000291774228           
       2.087222             0.00714404034             0.00028510356           
       2.089862             0.00722739248            0.000283187737           
       2.092502             0.00786540525            0.000300790733           
       2.095143             0.00734188499             0.00028645475           
       2.097783             0.00724067079            0.000288802161           
       2.100423              0.0076655748            0.000291457412           
       2.103064             0.00783246132             0.00029969969           
       2.105704             0.00738729636            0.000289944778           
       2.108345             0.00783404918            0.000299954205           
       2.110985             0.00717440751            0.000283016342           
       2.113625             0.00759881405              0.0002958562           
       2.116266             0.00740001566            0.000289799551           
       2.118906             0.00766398702            0.000294708647           
       2.121546             0.00796614307            0.000300223431           
       2.124187             0.00761529672            0.000297597852           
       2.126827             0.00773663854            0.000295255224           
       2.129468             0.00723671178             0.00028853649           
       2.132108             0.00784900426            0.000299873295           
       2.134748             0.00757705356            0.000293522153           
       2.137389             0.00775890927             0.00029951142           
       2.140029             0.00750776237            0.000293908648           
       2.142670             0.00772740352            0.000298664049           
       2.145310              0.0070706747            0.000286782494           
       2.147950             0.00690191105             0.00028443469           
       2.150591             0.00723329845            0.000288512629           
       2.153231             0.00752614986            0.000298646066           
       2.155871             0.00703659402            0.000284599219           
       2.158512             0.00745621176            0.000298241149           
       2.161152             0.00779217734            0.000297270261           
       2.163793             0.00748776761              0.0002961474           
       2.166433             0.00735325856            0.000288386231           
       2.169073             0.00739485383            0.000295952904           
       2.171714             0.00723054711            0.000286688666           
       2.174354             0.00699133563            0.000286214265           
       2.176995               0.007444624            0.000292897063           
       2.179635             0.00748338935            0.000299216196           
       2.182275             0.00749933278            0.000293588753           
       2.184916             0.00763228392            0.000302439467           
       2.187556             0.00737743833            0.000292560275           
       2.190196             0.00735757925            0.000296758481           
       2.192837             0.00680164608            0.000282202386           
       2.195477             0.00784483006            0.000305995222           
       2.198118             0.00747680616            0.000293216329           
       2.200758             0.00741248611            0.000296486205           
       2.203398             0.00696278142            0.000282586516           
       2.206039             0.00746315187             0.00029703601           
       2.208679             0.00762308506            0.000297263176           
       2.211319             0.00704438223            0.000287102254           
       2.213960             0.00756564233            0.000294371475           
       2.216600             0.00682048847            0.000286084635           
       2.219241             0.00703219183            0.000286267384           
       2.221881             0.00760566202            0.000299262915           
       2.224521             0.00702506298            0.000286616072           
       2.227162             0.00730270053            0.000296814813           
       2.229802             0.00729286495            0.000291800098           
       2.232443             0.00697442613            0.000286480202           
       2.235083             0.00717491595             0.00028882633           
       2.237723             0.00713480892             0.00029022516           
       2.240364             0.00721960756            0.000290459809           
       2.243004             0.00746825942            0.000296311846           
       2.245644             0.00674971051            0.000281046279           
       2.248285             0.00749097912             0.00029799893           
       2.250925             0.00745352016            0.000295862908           
       2.253566              0.0072597595            0.000292705959           
       2.256206             0.00706174943            0.000287821833           
       2.258846             0.00768681195            0.000300292568           
       2.261487             0.00659779807            0.000278690129           
       2.264127             0.00755968481            0.000301136772           
       2.266767             0.00733646579            0.000291862677           
       2.269408             0.00690426525            0.000286497931           
       2.272048             0.00707939221            0.000288324131           
       2.274689             0.00706039594            0.000289069286           
       2.277329             0.00755335331            0.000298593156           
       2.279969             0.00725814512            0.000293587193           
       2.282610             0.00732467132            0.000292053428           
       2.285250             0.00722710047            0.000294664294           
       2.287891             0.00688921319            0.000284790509           
       2.290531             0.00708304409            0.000290193081           
       2.293171             0.00733675294            0.000295330035           
       2.295812             0.00729155983             0.00029285639           
       2.298452             0.00693313176            0.000287396765           
       2.301092             0.00780564542            0.000306882102           
       2.303733             0.00750069066            0.000294877456           
       2.306373             0.00760928464            0.000304268852           
       2.309014             0.00659660225            0.000277840221           
       2.311654             0.00702900851             0.00028952377           
       2.314294             0.00734887641            0.000295391846           
       2.316935             0.00746111845            0.000298815467           
       2.319575             0.00697715608            0.000287879677           
       2.322215             0.00729239059            0.000298505042           
       2.324856             0.00737326614            0.000292618125           
       2.327496             0.00710073462             0.00029419696           
       2.330137             0.00661044361            0.000278623402           
       2.332777             0.00723211443            0.000294617882           
       2.335417              0.0074631524            0.000298388359           
       2.338058             0.00700563343            0.000290254616           
       2.340698              0.0071148885            0.000289629168           
       2.343339             0.00712411245            0.000295347351           
       2.345979              0.0077328763            0.000301567386           
       2.348619             0.00678675315            0.000287852444           
       2.351260             0.00754022733            0.000296961189           
       2.353900             0.00747566135            0.000301950434           
       2.356540             0.00712910384             0.00029081306           
       2.359181             0.00731432148            0.000298505558           
       2.361821              0.0066552806            0.000281270711           
       2.364462             0.00730430696            0.000299591262           
       2.367102              0.0068337557            0.000281400862           
       2.369742              0.0071034674             0.00029718183           
       2.372383             0.00687555457            0.000283852454           
       2.375023             0.00711121046             0.00029619713           
       2.377663             0.00716194959            0.000290935175           
       2.380304             0.00674762557            0.000286311703           
       2.382944              0.0067169129            0.000282865327           
       2.385585             0.00729000256            0.000297471313           
       2.388225             0.00683371353            0.000286710069           
       2.390865             0.00745915118            0.000300310107           
       2.393506             0.00692933976              0.0002881145           
       2.396146              0.0069841231            0.000290209898           
       2.398787             0.00726030488            0.000296151146           
       2.401427             0.00653707624            0.000279307566           
       2.404067             0.00689919158            0.000291318859           
       2.406708             0.00780116698            0.000305883488           
       2.409348             0.00732014092             0.00029853195           
       2.411988             0.00678221335            0.000286435981           
       2.414629             0.00722362977            0.000296577535           
       2.417269             0.00743339542            0.000298120676           
       2.419910             0.00677832329            0.000288271804           
       2.422550             0.00691079633            0.000286656653           
       2.425190             0.00706299898            0.000298920312           
       2.427831             0.00736578474            0.000293779876           
       2.430471             0.00728928404            0.000300793193           
       2.433112              0.0065114243            0.000277583105           
       2.435752             0.00731222652            0.000301604383           
       2.438392             0.00711026375            0.000292411176           
       2.441033             0.00695047494            0.000290431628           
       2.443673             0.00722378372            0.000296877456           
       2.446313             0.00741076384            0.000299093004           
       2.448954             0.00670535484            0.000286998627           
       2.451594             0.00706524239            0.000292832165           
       2.454235             0.00688404005            0.000288153232           
       2.456875             0.00703571016            0.000292785837           
       2.459515             0.00732463389            0.000299197647           
       2.462156             0.00784242895            0.000307996642           
       2.464796             0.00771380944            0.000310848669           
       2.467436             0.00718056653            0.000293623375           
       2.470077             0.00796318136            0.000313474627           
       2.472717             0.00808221471            0.000311857257           
       2.475358             0.00806029067            0.000314962386           
       2.477998             0.00766166214            0.000305436984           
       2.480638             0.00734764763            0.000299839083           
       2.483279              0.0071676111            0.000297415106           
       2.485919             0.00758478944            0.000303805736           
       2.488560             0.00800884831            0.000313477904           
       2.491200             0.00716901659            0.000296180084           
       2.493840             0.00693932285            0.000289810155           
       2.496481             0.00704753986            0.000295880408           
       2.499121              0.0072116826            0.000295321096           
       2.501761             0.00755126303            0.000307325514           
       2.504402             0.00721987712            0.000294747476           
       2.507042             0.00732951658            0.000301913762           
       2.509683              0.0071836074             0.00029617156           
       2.512323             0.00671572061            0.000287485253           
       2.514963              0.0152304272            0.000433798622           
       2.517604              0.0320511137            0.000626830506           
       2.520244              0.0243389823            0.000546354739           
       2.522884               0.008290891            0.000318180132           
       2.525525             0.00929358941            0.000339638526           
       2.528165              0.0167755843            0.000454230228           
       2.530806               0.017530841            0.000462599635           
       2.533446              0.0108655734            0.000367428343           
       2.536086              0.0105437589            0.000358908514           
       2.538727             0.00939160525            0.000340903345           
       2.541367              0.0104368274            0.000358345516           
       2.544008             0.00774382445             0.00030893223           
       2.546648             0.00732733522             0.00030085094           
       2.549288              0.0069054165             0.00029210285           
       2.551929             0.00703485096            0.000295801578           
       2.554569             0.00732293289            0.000299039555           
       2.557209             0.00729261579            0.000301791676           
       2.559850             0.00695385197            0.000291309976           
       2.562490             0.00722360706            0.000299068323           
       2.565131             0.00717270594            0.000298531276           
       2.567771             0.00735857139            0.000300771849           
       2.570411             0.00683609561             0.00029342526           
       2.573052             0.00736022648            0.000300912151           
       2.575692             0.00705055099            0.000295295077           
       2.578332             0.00731542613            0.000299902209           
       2.580973              0.0073906285            0.000303883841           
       2.583613             0.00725470839            0.000298332869           
       2.586254             0.00732760928            0.000302480615           
       2.588894             0.00736440615            0.000301621566           
       2.591534             0.00709965253            0.000296694961           
       2.594175             0.00674757246            0.000290923692           
       2.596815             0.00648260265            0.000282503126           
       2.599456             0.00686213095            0.000293033237           
       2.602096             0.00680747711            0.000290771736           
       2.604736             0.00656217842            0.000286233611           
       2.607377             0.00697407786            0.000293951735           
       2.610017             0.00688109586            0.000291883588           
       2.612657               0.006537174            0.000286505485           
       2.615298             0.00684051386            0.000290210564           
       2.617938             0.00691192256            0.000294273411           
       2.620579             0.00734111259            0.000300794833           
       2.623219             0.00687341748            0.000295711167           
       2.625859              0.0070132038            0.000293668728           
       2.628500             0.00767166562            0.000312054433           
       2.631140             0.00672291001            0.000286970503           
       2.633780             0.00676078022            0.000291473857           
       2.636421             0.00712944577            0.000296591741           
       2.639061             0.00739306024            0.000305636411           
       2.641702             0.00769284597            0.000308438715           
       2.644342              0.0070236638            0.000297135983           
       2.646982             0.00713425827            0.000299211956           
       2.649623             0.00747420546            0.000308093692           
       2.652263             0.00711872138            0.000298285169           
       2.654904              0.0067977692            0.000293066112           
       2.657544             0.00755443533            0.000306772955           
       2.660184             0.00713453435            0.000298506669           
       2.662825              0.0073802966            0.000304332164           
       2.665465             0.00740024952            0.000305306895           
       2.668105             0.00725601322             0.00030243663           
       2.670746              0.0068899801            0.000292215989           
       2.673386              0.0065915027            0.000289280412           
       2.676027              0.0072309576            0.000300411797           
       2.678667             0.00741904436            0.000305875702           
       2.681307             0.00749975563            0.000305116708           
       2.683948             0.00774782689            0.000313201771           
       2.686588             0.00762866873            0.000307932045           
       2.689229             0.00760036313            0.000310118742           
       2.691869              0.0072904336            0.000300698192           
       2.694509             0.00724930663            0.000303960918           
       2.697150             0.00703654862            0.000294687657           
       2.699790             0.00751521821            0.000310872102           
       2.702430             0.00667025602            0.000287259669           
       2.705071             0.00703639601            0.000299076274           
       2.707711             0.00693044679             0.00029387278           
       2.710352             0.00719362599            0.000301104745           
       2.712992             0.00614518139            0.000279203429           
       2.715632             0.00704217902            0.000297186777           
       2.718273             0.00735292851            0.000304681095           
       2.720913             0.00702524517            0.000298311884           
       2.723553             0.00680564752            0.000292592233           
       2.726194             0.00685383353            0.000295042335           
       2.728834              0.0065955537            0.000286856935           
       2.731475             0.00728982524            0.000304212745           
       2.734115             0.00705069887            0.000297398888           
       2.736755             0.00730908056            0.000304800776           
       2.739396             0.00721196949             0.00030116812           
       2.742036             0.00678800786            0.000294176145           
       2.744677             0.00762992763            0.000312342434           
       2.747317             0.00748155823            0.000307788068           
       2.749957             0.00730498777            0.000306340723           
       2.752598             0.00681766686            0.000296837482           
       2.755238             0.00714098497            0.000303657584           
       2.757878             0.00754631451            0.000311267825           
       2.760519             0.00716812182            0.000300164668           
       2.763159             0.00723457267             0.00030645597           
       2.765800             0.00710635493              0.0002985831           
       2.768440             0.00688076118            0.000297676001           
       2.771080             0.00751523399            0.000308476094           
       2.773721             0.00741296529            0.000310128521           
       2.776361             0.00679877576            0.000293813256           
       2.779001             0.00715675123            0.000304617808           
       2.781642             0.00716662815            0.000302747948           
       2.784282             0.00650156558            0.000288459089           
       2.786923             0.00671253641            0.000290872724           
       2.789563             0.00668783173            0.000290920204           
       2.792203             0.00700068477            0.000299541638           
       2.794844              0.0071803322            0.000301980278           
       2.797484              0.0061908016            0.000280796212           
       2.800125             0.00636311643            0.000284309353           
       2.802765             0.00626949509            0.000287441694           
       2.805405             0.00711089697            0.000301703911           
       2.808046             0.00720973586            0.000308451688           
       2.810686             0.00631338775            0.000285565839           
       2.813326             0.00659110573            0.000295389032           
       2.815967             0.00692141998            0.000300792658           
       2.818607             0.00672829843            0.000299531193           
       2.821248             0.00736833198            0.000309545717           
       2.823888             0.00624563609            0.000289579553           
       2.826528             0.00685264949            0.000301515722           
       2.829169             0.00660401383            0.000294688432           
       2.831809             0.00654092147            0.000293534338           
       2.834449             0.00665044336            0.000290815308           
       2.837090             0.00624150172            0.000283427676           
       2.839730              0.0068913571            0.000295702467           
       2.842371              0.0065089687            0.000289383718           
       2.845011             0.00629682837            0.000283994053           
       2.847651             0.00677209957            0.000295057612           
       2.850292             0.00688650249            0.000295848842           
       2.852932             0.00652595772            0.000288516555           
       2.855573              0.0070055762            0.000301556098           
       2.858213             0.00710227231            0.000300223304           
       2.860853             0.00673483785            0.000294542428           
       2.863494             0.00684863238            0.000297735547           
       2.866134              0.0070449428            0.000306208238           
       2.868774             0.00721969757            0.000305237747           
       2.871415              0.0076454518            0.000317217828           
       2.874055             0.00689833033            0.000302812605           
       2.876696             0.00688266692            0.000299745013           
       2.879336             0.00700730828            0.000304454601           
       2.881976             0.00687022916            0.000301213864           
       2.884617             0.00673362931            0.000296547759           
       2.887257             0.00683572337            0.000296704104           
       2.889897             0.00634567202            0.000289147694           
       2.892538             0.00678157849             0.00029684153           
       2.895178             0.00680095778            0.000294233929           
       2.897819             0.00613336818            0.000282293648           
       2.900459             0.00676775372            0.000294078401           
       2.903099             0.00642253321            0.000287975644           
       2.905740             0.00684283904            0.000293931216           
       2.908380             0.00674633777            0.000295741883           
       2.911021             0.00728596513            0.000307926558           
       2.913661             0.00679059918            0.000294003047           
       2.916301             0.00643260902            0.000290219151           
       2.918942             0.00666244449            0.000290902507           
       2.921582             0.00657653321            0.000292053169           
       2.924222             0.00692525369            0.000297957927           
       2.926863             0.00649545391            0.000289330287           
       2.929503             0.00693271645            0.000302228474           
       2.932144             0.00728312288            0.000304691657           
       2.934784             0.00736056375            0.000307608992           
       2.937424             0.00715482759             0.00030384046           
       2.940065             0.00666055675            0.000293396281           
       2.942705             0.00709620702            0.000303759661           
       2.945346             0.00704207873             0.00030081165           
       2.947986             0.00816902828            0.000325121353           
       2.950626             0.00812395035            0.000325219979           
       2.953267              0.0102744114            0.000361854269           
       2.955907             0.00926346227            0.000348133679           
       2.958547              0.0088004065            0.000335841672           
       2.961188             0.00730164907            0.000308580551           
       2.963828             0.00693820836            0.000299098042           
       2.966469             0.00666116663             0.00029313873           
       2.969109             0.00719579077            0.000306233552           
       2.971749             0.00766113184             0.00031505088           
       2.974390             0.00875290509            0.000337676172           
       2.977030             0.00935483576            0.000348429627           
       2.979670             0.00875208528            0.000334844935           
       2.982311             0.00719258886             0.00030574093           
       2.984951             0.00695172763            0.000301355287           
       2.987592             0.00755951388             0.00031319228           
       2.990232             0.00742838146            0.000311256751           
       2.992872             0.00835515535            0.000327519971           
       2.995513             0.00893416767            0.000341338806           
       2.998153              0.0100714278            0.000364751446           
       3.000794              0.0190021454            0.000493726851           
       3.003434              0.0385106946              0.0007103247           
       3.006074              0.0305764584            0.000634975887           
       3.008715              0.0185036028             0.00049772137           
       3.011355              0.0201252884              0.0005244721           
       3.013995              0.0174899063            0.000486537224           
       3.016636              0.0285026463            0.000622269405           
       3.019276               0.142021694             0.00142222942           
       3.021917               0.421186981             0.00240769236           
       3.024557               0.149528081             0.00144603336           
       3.027197              0.0852093139             0.00110991344           
       3.029838              0.0978192415             0.00118352103           
       3.032478              0.0862044663             0.00111767646           
       3.035118              0.0522151371            0.000874337653           
       3.037759              0.0935017815             0.00117207427           
       3.040399              0.0799038879             0.00109589872           
       3.043040              0.0525403566            0.000897285685           
       3.045680              0.0570927518            0.000920945834           
       3.048320              0.0733995393              0.0010609721           
       3.050961               0.140053895              0.0014802602           
       3.053601               0.122128733             0.00137617776           
       3.056242              0.0558845342            0.000936897669           
       3.058882               0.162936303             0.00162355931           
       3.061522               0.270096448             0.00207586547           
       3.064163              0.0428509919            0.000828342115           
       3.066803              0.0183812521            0.000553012143           
       3.069443              0.0304137617            0.000706610417           
       3.072084              0.0955754662             0.00126376713           
       3.074724              0.0491975307            0.000912057964           
       3.077365              0.0115337991            0.000441291876           
       3.080005             0.00851890685            0.000383460983           
       3.082645             0.00871527404            0.000389830165           
       3.085286             0.00824827341             0.00037931118           
       3.087926             0.00835860253            0.000384269046           
       3.090566             0.00715706097            0.000359241543           
       3.093207             0.00785255453             0.00037222622           
       3.095847              0.0076051601            0.000373994211           
       3.098488             0.00750695334            0.000370897896           
       3.101128             0.00757047927            0.000374492864           
       3.103768             0.00826513402            0.000393501739           
       3.106409             0.00881903597            0.000409196063           
       3.109049             0.00961949722            0.000430685422           
       3.111690              0.0125225635            0.000489460035           
       3.114330              0.0153994472            0.000547608687           
       3.116970              0.0162664261            0.000570642163           
       3.119611               0.015081909            0.000545897148           
       3.122251              0.0106748076            0.000463025509           
       3.124891             0.00953339286             0.00043969542           
       3.127532             0.00734179524             0.00039281042           
       3.130172             0.00927582051            0.000432444838           
       3.132813             0.00886189452            0.000431288655           
       3.135453             0.00737390821            0.000401716314           
       3.138093             0.00743155881            0.000393714795           
       3.140734             0.00642592393            0.000372921941           
       3.143374             0.00645768618            0.000379557268           
       3.146014             0.00673458687            0.000384795761           
       3.148655             0.00592025441            0.000363622603           
       3.151295             0.00609585176            0.000371896331           
       3.153936             0.00680600821            0.000398763477           
       3.156576             0.00703761561            0.000400836826           
       3.159216             0.00656049903            0.000390176261           
       3.161857             0.00651710502            0.000393654271           
       3.164497             0.00656766803            0.000403510869           
       3.167138             0.00584579217            0.000371556513           
       3.169778              0.0067197111            0.000405555728           
       3.172418             0.00583657453            0.000380175931           
       3.175059             0.00578690422            0.000383508874           
       3.177699             0.00593420503            0.000386825213           
       3.180339             0.00556606985            0.000377983222           
       3.182980             0.00653090255            0.000414962142           
       3.185620             0.00600495164            0.000402250618           
       3.188261              0.0060836065            0.000399572017           
       3.190901             0.00594114201             0.00040095023           
       3.193541              0.0054889932            0.000386661186           
       3.196182             0.00638063779            0.000425558924           
       3.198822             0.00549154178            0.000390011944           
       3.201463             0.00648530435            0.000429315041           
       3.204103             0.00551213496             0.00040106599           
       3.206743             0.00540296623             0.00040043167           
       3.209384             0.00566603564            0.000408236305           
       3.212024             0.00583554666             0.00041576968           
       3.214664             0.00565013777             0.00041690918           
       3.217305             0.00528257513             0.00041252538           
       3.219945             0.00588764706             0.00043186883           
       3.222586              0.0053735303            0.000414917441           
       3.225226             0.00531680023            0.000422019356           
       3.227866             0.00642467951            0.000467498045           
       3.230507             0.00560329832            0.000441801933           
       3.233147             0.00530170528            0.000423391226           
       3.235787             0.00587939526            0.000445983126           
       3.238428              0.0058850227            0.000454076866           
       3.241068             0.00598958263            0.000467381983           
       3.243709             0.00588176064            0.000460585354           
       3.246349             0.00570768134            0.000451179739           
       3.248989             0.00570789542            0.000461501001           
       3.251630             0.00551806691            0.000455769523           
       3.254270             0.00556734435             0.00047187224           
       3.256911             0.00570888172            0.000465860215           
       3.259551             0.00601226894            0.000488642838           
       3.262191             0.00669532094            0.000520397515           
       3.264832             0.00556889035            0.000479059937           
       3.267472              0.0062811748            0.000515990415           
       3.270112             0.00555462331            0.000486612288           
       3.272753             0.00550267376            0.000490283438           
       3.275393             0.00504362491            0.000471803794           
       3.278034             0.00570956203            0.000512211774           
       3.280674             0.00630356126            0.000539758835           
       3.283314             0.00639790244             0.00054678761           
       3.285955             0.00660911594            0.000566178363           
       3.288595             0.00550792745            0.000522629456           
       3.291235             0.00583313016            0.000540996334           
       3.293876             0.00574967053            0.000540292454           
       3.296516             0.00607731829            0.000566803253           
       3.299157             0.00578219033            0.000561225676           
       3.301797             0.00481678433            0.000512453495           
       3.304437             0.00584187429            0.000574933055           
       3.307078             0.00605648482             0.00059108524           
       3.309718             0.00531544094            0.000559272119           
       3.312359             0.00546088713            0.000578326172           
       3.314999             0.00583343415            0.000603998177           
       3.317639             0.00533559277            0.000583870176           
       3.320280             0.00605869022            0.000631263239           
       3.322920             0.00490801407            0.000576665187           
       3.325560             0.00565424238            0.000630905344           
       3.328201             0.00548403387            0.000623963315           
       3.330841             0.00532820399            0.000629992543           
       3.333482             0.00484797055            0.000608561585           
       3.336122             0.00713245188            0.000754192243           
       3.338762             0.00472666113              0.0006195752           
       3.341403             0.00601375984            0.000705342715           
       3.344043             0.00528396729            0.000686395672           
       3.346683             0.00595951881            0.000736347334           
       3.349324              0.0047333959            0.000666399908           
       3.351964             0.00585116316            0.000764736434           
       3.354605             0.00495678811            0.000711837895           
       3.357245             0.00607818486            0.000815964037           
       3.359885             0.00563976206            0.000786267868           
       3.362526             0.00690535629            0.000914513441           
       3.365166              0.0053866631            0.000797740585           
       3.367807             0.00573141814             0.00088085666           
       3.370447             0.00590259423            0.000894260414           
       3.373087             0.00535427123            0.000898895401           
       3.375728             0.00585759356            0.000933089212           
       3.378368             0.00479217522            0.000911978812           
       3.381008             0.00421953475            0.000848295716           
       3.383649             0.00591424923             0.00108688447           
       3.386289             0.00393628343            0.000887065778           
       3.388930             0.00570709057              0.0011730595           
       3.391570             0.00497289398             0.00109546706           
       3.394210             0.00298974988            0.000910113314           
       3.396851             0.00568557506              0.0013595285           
       3.399491               0.002298209            0.000880049911           
       3.402131             0.00831624362             0.00198163628           
       3.404772             0.00774077335             0.00191266367           
       3.407412             0.00780003396             0.00238244225           
       3.410053             0.00673729484             0.00230559862           
       3.412693              0.0044391219               0.002647808           
       3.415333              0.0043671277             0.00321779315           
