################################################################################
# EDF_DataBlockID                     0.Image.Psd
# EDF_BinarySize                      2105344
# EDF_HeaderSize                      2560
# ByteOrder                           LowByteFirst
# DataType                            FloatValue
# Dim_1                               512
# Dim_2                               1028
# Image                               0
# HeaderID                            EH:000000:000000:000000
# Size                                2105344
# Center_1                            304.9000
# Center_2                            588.7000
# Comment                             Xenocs_Cell_Window - front_window_open_only
# DDummy                              0.6
# Date                                2025-10-19T12:03:18
# Delta                               21.910000
# Dummy                               -1.5
# ExposureTime                        360
# Gamma                               15.360000
# Intensity1                          8.92932e-10
# PSize_1                             7.5e-05
# PSize_2                             7.5e-05
# Pressure                            0.0330181
# SampleDistance                      0.115750
# SampleEnvKind                       large
# SampleEnvPN                         ElectroChemical cell
# SampleEnvSN                         1141
# Thickness                           0
# Wavelength                          1.541891e-10
# Wavelength                          1.54189e-10
# aux                                 0
# aux_dial                            0.002375
# beamx                               588.429
# beamx_dial                          588.429
# beamz                               657.855
# beamz_dial                          657.855
# det0x                               -0.000396875
# det0x_dial                          6.36905
# det0xvd                             -0.0005
# det0xvd_dial                        -0.0005
# det0y                               450.002
# det0y_dial                          481.635
# det0z                               0
# det0z_dial                          1.2295
# det0zvd                             0
# det0zvd_dial                        0
# mag                                 1.818
# mag_dial                            1.818
# om                                  0.2499
# om_dial                             -0.610199
# phi                                 -0.0120535
# phi_dial                            0
# ry                                  0.599993
# ry_dial                             0.599993
# s1bot                               0.8
# s1bot_dial                          -1.66094
# s1hl                                0.8
# s1hl_dial                           -0.608437
# s1hr                                0.8
# s1hr_dial                           0.970938
# s1top                               0.8
# s1top_dial                          -0.461562
# s2bot                               0.45
# s2bot_dial                          1.36109
# s2hl                                0.45
# s2hl_dial                           -0.83375
# s2hr                                0.45
# s2hr_dial                           -0.118594
# s2top                               0.45
# s2top_dial                          1.44734
# w2theta                             32
# w2theta_dial                        32
# waxsch                              19.2605
# waxsch_dial                         -32.7238
# waxsh                               137.085
# waxsh_dial                          -43.5335
# waxsth                              26.0607
# waxsth_dial                         -19.4068
# waxsz                               67.0407
# waxsz_dial                          -23.7962
# wind                                65.9854
# wind_dial                           66.0041
# wpsi                                124
# wpsi_dial                           124
# wstod                               115
# wstod_dial                          115
# x                                   0
# x_dial                              1.00969
# z                                   0
# z_dial                              13.3172
# CountCutoff                         6807993
# DetectorModel                       Dectris EIGER2 Si 500K, S/N E-01-0554
# ThresholdSetting                    4023.88989258
# Saturation                          0
# FlatField                           Corrected
# BackgroundReductionExtra            0.02
# BackgroundCorrectionConstant        0.0026712
# Detector                            0
# Monitor                             0
# Pil_Roi0                            0
# SumForIntensity1                    3.21456e+08
# TransmittedFlux                     892932
# det                                 0
# mon                                 0
# pilai0                              3.21456e+08
# pilai1                              698841
# pilct0                              5.55993e+08
# pilct1                              698841
# pilroi0                             0
# pilroi1                             0
# sec                                 1
# title                               20251017__1_00381.edf
# usaxs0                              0
# Operation                           Azimuthal average I(q)
# Error_model                         ErrorModel.poisson
# Geometrical_correction              True
# Transmission_correction             True
# Thickness_correction                False
# Binning mode                        Uniform
# Binning factor                      1.0
# Psi                                 0.0
# Omega                               0.2499
# MaskInvalidPixels                   True
# DetectorEdge                        3
# MaskFiles                           ['20251017__1_00233_mask.edf']
################################################################################
    q(A⁻¹)                Intensity(a.u.)            Sigma_I(a.u.)            
       0.690460           -2.27456225e-05                         0           
       0.693100               0.014250911             0.00492498332           
       0.695741             0.00924683822             0.00335155384           
       0.698381              0.0102313082              0.0032973217           
       0.701021             0.00893713029             0.00251512543           
       0.703662             0.00411445539             0.00157964363           
       0.706302             0.00385695877             0.00147707073           
       0.708942             0.00827819848             0.00192216488           
       0.711583             0.00744281568             0.00182226614           
       0.714223             0.00432661922             0.00121071448           
       0.716864              0.0079636638             0.00167616035           
       0.719504              0.0053508845             0.00127159485           
       0.722144             0.00664760645             0.00136884513           
       0.724785             0.00920538874             0.00158440293           
       0.727425             0.00671603519             0.00125527511           
       0.730065             0.00734459147             0.00135069663           
       0.732706             0.00653823504             0.00114599337           
       0.735346              0.0055488527             0.00114036998           
       0.737987             0.00762939143             0.00115738293           
       0.740627             0.00772253041             0.00127561535           
       0.743267               0.007269764              0.0010645979           
       0.745908             0.00711495337             0.00112874186           
       0.748548             0.00725543301             0.00106309109           
       0.751189             0.00635974197            0.000985933405           
       0.753829             0.00634415575            0.000993607489           
       0.756469             0.00515373439            0.000842304237           
       0.759110             0.00710530178             0.00102296983           
       0.761750             0.00722259531            0.000943922595           
       0.764390             0.00560503155            0.000892603407           
       0.767031             0.00695382107            0.000899651106           
       0.769671             0.00531973232             0.00083450974           
       0.772312             0.00637407884            0.000832417991           
       0.774952              0.0078113981            0.000987901038           
       0.777592             0.00623485245            0.000807267049           
       0.780233             0.00745265093            0.000930435721           
       0.782873             0.00598323108            0.000762355693           
       0.785513             0.00632147806            0.000833572686           
       0.788154             0.00646712873            0.000774417113           
       0.790794             0.00560634378            0.000746255161           
       0.793435             0.00754886311            0.000831727752           
       0.796075             0.00707117656            0.000809235164           
       0.798715             0.00644053442            0.000767897849           
       0.801356             0.00618597594            0.000732429418           
       0.803996             0.00757363037            0.000823377703           
       0.806637             0.00723993069            0.000760969713           
       0.809277             0.00775567671            0.000823966218           
       0.811917              0.0086540866            0.000823634852           
       0.814558             0.00645395281            0.000728654654           
       0.817198             0.00670075914            0.000707932634           
       0.819838             0.00737812204            0.000774875143           
       0.822479              0.0063315237            0.000661505904           
       0.825119             0.00720916687            0.000758281189           
       0.827760             0.00710379288            0.000697471454           
       0.830400             0.00628519186            0.000691237517           
       0.833040             0.00664182538            0.000663171722           
       0.835681             0.00714386153            0.000720251047           
       0.838321              0.0071578489            0.000674801247           
       0.840961             0.00621330899            0.000657148638           
       0.843602             0.00680566321            0.000647843308           
       0.846242             0.00649386218            0.000655171835           
       0.848883             0.00572028106            0.000598170437           
       0.851523             0.00625331307            0.000630106471           
       0.854163             0.00642010248             0.00063103698           
       0.856804             0.00673587047             0.00062983058           
       0.859444             0.00742573837            0.000666051844           
       0.862085              0.0062841696            0.000603807283           
       0.864725             0.00726932404            0.000647029425           
       0.867365             0.00598776956            0.000583026344           
       0.870006             0.00649788208            0.000615827405           
       0.872646             0.00739092238            0.000628200038           
       0.875286             0.00770609168            0.000663310684           
       0.877927             0.00749054705            0.000626147702           
       0.880567             0.00640045841            0.000590103265           
       0.883208             0.00622330917             0.00056507493           
       0.885848             0.00764626692            0.000642597728           
       0.888488              0.0052006314            0.000503896088           
       0.891129             0.00665239262            0.000599071245           
       0.893769              0.0070043144            0.000581056467           
       0.896410             0.00734522485            0.000613357822           
       0.899050             0.00572547723            0.000522134605           
       0.901690             0.00784146352            0.000623802624           
       0.904331             0.00676151211            0.000559032514           
       0.906971             0.00666861232            0.000573275258           
       0.909611              0.0065534853            0.000545477449           
       0.912252             0.00639785149            0.000548300646           
       0.914892             0.00759524968            0.000582278614           
       0.917533             0.00732618565            0.000584775653           
       0.920173             0.00663002456            0.000533628598           
       0.922813             0.00675418636            0.000562848816           
       0.925454             0.00748166037            0.000562208855           
       0.928094             0.00710868324            0.000559779066           
       0.930734             0.00672309826            0.000531393674           
       0.933375             0.00667772639            0.000540887163           
       0.936015             0.00705194118            0.000531833202           
       0.938656             0.00720670002            0.000560188735           
       0.941296             0.00697494118            0.000531266123           
       0.943936             0.00776210465            0.000570536629           
       0.946577             0.00813150632            0.000562384639           
       0.949217             0.00743784429            0.000556858054           
       0.951858             0.00753365563            0.000529823723           
       0.954498             0.00743157239            0.000553608247           
       0.957138             0.00826727761            0.000561220961           
       0.959779             0.00708156174            0.000530779335           
       0.962419             0.00629325836            0.000481699575           
       0.965059             0.00686917854            0.000517552994           
       0.967700             0.00762667735            0.000527708203           
       0.970340             0.00641609012            0.000497618607           
       0.972981             0.00726524556            0.000511271685           
       0.975621             0.00705391631            0.000514329234           
       0.978261             0.00662292196            0.000475506361           
       0.980902             0.00760744151            0.000533890999           
       0.983542             0.00678833698            0.000489645537           
       0.986182             0.00751491824            0.000521968432           
       0.988823             0.00733244604            0.000498956554           
       0.991463             0.00715983181            0.000504825026           
       0.994104             0.00645612669            0.000463216649           
       0.996744             0.00740812711            0.000512285971           
       0.999384             0.00662438209            0.000467988165           
       1.002025              0.0072937214            0.000504735097           
       1.004665             0.00806976455            0.000509161028           
       1.007306             0.00685755094            0.000485090878           
       1.009946             0.00768342471            0.000493718649           
       1.012586              0.0067559006            0.000476277564           
       1.015227             0.00733460878            0.000481235936           
       1.017867             0.00794945205            0.000515357517           
       1.020507             0.00721871406            0.000472612242           
       1.023148             0.00760318319            0.000490893137           
       1.025788             0.00749582766            0.000482424148           
       1.028429             0.00813490382             0.00051355525           
       1.031069             0.00740915184            0.000472198501           
       1.033709             0.00803352415            0.000501134228           
       1.036350             0.00721608798            0.000462500174           
       1.038990             0.00734986884            0.000478291159           
       1.041630             0.00814935511            0.000493943846           
       1.044271             0.00745520843             0.00047249217           
       1.046911             0.00722052572            0.000456356367           
       1.049552             0.00753571905            0.000483011627           
       1.052192             0.00743507104            0.000458200409           
       1.054832             0.00740144218            0.000466053495           
       1.057473             0.00778665934            0.000471976153           
       1.060113             0.00784188523             0.00047877589           
       1.062754             0.00755992865            0.000464890625           
       1.065394             0.00744775152            0.000456573781           
       1.068034             0.00860726242            0.000488929523           
       1.070675             0.00777195465            0.000472771403           
       1.073315             0.00793709936            0.000463164112           
       1.075955             0.00804826948            0.000474218573           
       1.078596             0.00816987797            0.000476843435           
       1.081236              0.0084966379            0.000479073152           
       1.083877             0.00772481396            0.000471065752           
       1.086517               0.008086528            0.000471065621           
       1.089157             0.00832988354              0.0004816065           
       1.091798             0.00783493517            0.000457183114           
       1.094438             0.00817373589            0.000474384805           
       1.097078             0.00836852549            0.000467669181           
       1.099719             0.00844113171            0.000481731338           
       1.102359             0.00822056458            0.000450351678           
       1.105000             0.00783169429            0.000456882703           
       1.107640             0.00746000969            0.000431373764           
       1.110280             0.00807521566            0.000457795244           
       1.112921             0.00923385282            0.000480679343           
       1.115561             0.00923124417            0.000486710712           
       1.118202             0.00834813677            0.000449336026           
       1.120842             0.00762045441            0.000442832383           
       1.123482             0.00848058794            0.000454051475           
       1.126123             0.00755318301             0.00043118045           
       1.128763             0.00828249618            0.000449278093           
       1.131403             0.00777420248             0.00043459717           
       1.134044             0.00897785221            0.000466219833           
       1.136684             0.00960254904            0.000485790902           
       1.139325             0.00806759071            0.000432728896           
       1.141965             0.00859165988            0.000452403109           
       1.144605             0.00804269006            0.000440282302           
       1.147246             0.00859699785            0.000446580813           
       1.149886             0.00856456624            0.000448907703           
       1.152527             0.00886904758            0.000457275379           
       1.155167             0.00974342146            0.000472547587           
       1.157807             0.00839497944            0.000438933486           
       1.160448             0.00882421674            0.000456172233           
       1.163088             0.00919784415            0.000448451119           
       1.165728             0.00829162395            0.000443336614           
       1.168369             0.00988873081            0.000466870551           
       1.171009             0.00785039887            0.000419428459           
       1.173650             0.00798386317            0.000419928622           
       1.176290              0.0089017307            0.000448613536           
       1.178930             0.00885517509            0.000434860867           
       1.181571             0.00846651424             0.00043909863           
       1.184211             0.00875432586            0.000433014647           
       1.186851             0.00954196386            0.000456242985           
       1.189492             0.00951039727            0.000458017015           
       1.192132             0.00857703981            0.000428519796           
       1.194773             0.00891953956            0.000434355508           
       1.197413             0.00910890351            0.000442522652           
       1.200053             0.00972775675            0.000454430744           
       1.202694             0.00986705905            0.000454224027           
       1.205334             0.00881054091            0.000433909607           
       1.207975             0.00921634341            0.000435094327           
       1.210615             0.00988627459            0.000460159441           
       1.213255             0.00900205907            0.000427482989           
       1.215896               0.009618245            0.000450247037           
       1.218536             0.00989833369            0.000443600057           
       1.221176             0.00957716937            0.000446759134           
       1.223817             0.00977880122             0.00044203067           
       1.226457              0.0087836511            0.000424256645           
       1.229098             0.00907295153            0.000424645287           
       1.231738              0.0101434238            0.000455320473           
       1.234378             0.00945873967            0.000431141645           
       1.237019             0.00959407241            0.000437717354           
       1.239659             0.00925189629            0.000429608244           
       1.242299              0.0097588132            0.000438964884           
       1.244940             0.00985935999            0.000436457796           
       1.247580             0.00882642719            0.000414785674           
       1.250221              0.0091882835             0.00043011085           
       1.252861             0.00927890061            0.000416123336           
       1.255501             0.00959622573            0.000435127025           
       1.258142              0.0101115952            0.000437828158           
       1.260782              0.0104758454            0.000450678189           
       1.263423              0.0102261823            0.000436453759           
       1.266063             0.00984724149            0.000436273582           
       1.268703             0.00981154475            0.000424510131           
       1.271344             0.00936003477            0.000423658086           
       1.273984             0.00924921103            0.000414568188           
       1.276624             0.00987694847             0.00042579159           
       1.279265              0.0101884546             0.00043339811           
       1.281905             0.00982940084            0.000428316762           
       1.284546              0.0100643463            0.000428670711           
       1.287186              0.0100253631            0.000428250723           
       1.289826             0.00893822231             0.00040646197           
       1.292467              0.0106250901            0.000435250537           
       1.295107              0.0102363965            0.000434745338           
       1.297747              0.0100224057            0.000418893841           
       1.300388             0.00978378495            0.000424505181           
       1.303028              0.0108504668            0.000435679531           
       1.305669              0.0101798472            0.000427453337           
       1.308309             0.00939116967            0.000404388008           
       1.310949              0.0104412427            0.000431711972           
       1.313590              0.0102623904            0.000421374898           
       1.316230              0.0100863658            0.000425264912           
       1.318871              0.0110871529            0.000436244932           
       1.321511              0.0104317475            0.000425275007           
       1.324151               0.010337042            0.000425012965           
       1.326792               0.010268381            0.000420167709           
       1.329432              0.0101256753            0.000419414272           
       1.332072                 0.0106713            0.000423182976           
       1.334713              0.0104729501            0.000424430889           
       1.337353              0.0103725682            0.000415894559           
       1.339994              0.0103042245            0.000420426423           
       1.342634              0.0108964003            0.000422605467           
       1.345274              0.0106134131            0.000422534313           
       1.347915               0.010356225            0.000418493054           
       1.350555              0.0100127816            0.000409887683           
       1.353195              0.0100553672            0.000402900435           
       1.355836              0.0105940109            0.000421353737           
       1.358476              0.0106663173            0.000421600122           
       1.361117              0.0097705822            0.000393387033           
       1.363757              0.0104494018            0.000420305441           
       1.366397              0.0115148119            0.000427472688           
       1.369038             0.00998033053            0.000406360025           
       1.371678              0.0109994151            0.000417988399           
       1.374319              0.0108922523            0.000419246193           
       1.376959             0.00993839105            0.000394955245           
       1.379599              0.0109015053            0.000421712905           
       1.382240              0.0103156312            0.000402432838           
       1.384880              0.0100507823            0.000402110323           
       1.387520             0.00977087743            0.000391836112           
       1.390161              0.0106227347             0.00040744955           
       1.392801              0.0108001181            0.000413286025           
       1.395442              0.0111515041            0.000415604096           
       1.398082              0.0114250249            0.000422109706           
       1.400722              0.0105437706            0.000403671719           
       1.403363              0.0102133571             0.00040098321           
       1.406003             0.00972669795             0.00038170457           
       1.408644              0.0107580235            0.000409858514           
       1.411284              0.0101584412            0.000396089151           
       1.413924              0.0114200795            0.000414786133           
       1.416565              0.0103970964             0.00039530733           
       1.419205             0.00994270751            0.000390380619           
       1.421845              0.0104371367            0.000394940936           
       1.424486              0.0105613241            0.000399037514           
       1.427126              0.0104897023            0.000397431259           
       1.429767              0.0105908215            0.000393188448           
       1.432407              0.0105538157            0.000402388573           
       1.435047             0.00984524581            0.000376966921           
       1.437688               0.010869161             0.00040485586           
       1.440328              0.0105062812            0.000390326679           
       1.442968              0.0101114034            0.000388221991           
       1.445609              0.0104193761            0.000387607849           
       1.448249              0.0105886797            0.000393270763           
       1.450890              0.0102281181            0.000383759789           
       1.453530             0.00988550223            0.000380072097           
       1.456170              0.0110382262            0.000400716668           
       1.458811             0.00977665489            0.000374122589           
       1.461451               0.010320618            0.000387215216           
       1.464092              0.0103657207            0.000384677799           
       1.466732              0.0106905981            0.000388263353           
       1.469372              0.0107182424                0.00038757           
       1.472013             0.00957311908            0.000372834706           
       1.474653             0.00954630913            0.000363119228           
       1.477293              0.0111105396            0.000398334946           
       1.479934              0.0103487057            0.000380412144           
       1.482574               0.010300077            0.000378580674           
       1.485215              0.0105455023            0.000384050828           
       1.487855              0.0104705264            0.000382604086           
       1.490495               0.010196781            0.000376756827           
       1.493136              0.0111250224             0.00038837115           
       1.495776             0.00989439229            0.000372646967           
       1.498416              0.0103063599            0.000372937055           
       1.501057              0.0109087734            0.000386981654           
       1.503697              0.0100919741            0.000368633383           
       1.506338              0.0101101168            0.000371677985           
       1.508978              0.0108261141            0.000382343075           
       1.511618              0.0101854832            0.000370670659           
       1.514259              0.0098729252            0.000365598131           
       1.516899              0.0100682191            0.000369368257           
       1.519540             0.00947327355            0.000356300551           
       1.522180              0.0101839875            0.000364810748           
       1.524820              0.0100915025            0.000370485219           
       1.527461             0.00986089606            0.000358126029           
       1.530101             0.00963821615            0.000357720046           
       1.532741             0.00983704184            0.000359678675           
       1.535382              0.0100810626            0.000364914358           
       1.538022              0.0105764347            0.000370465608           
       1.540663             0.00971579067            0.000358428528           
       1.543303              0.0100975905            0.000360856036           
       1.545943              0.0104359064            0.000368907365           
       1.548584              0.0102157755            0.000366939453           
       1.551224              0.0100577949            0.000354756909           
       1.553864             0.00945234946            0.000352897802           
       1.556505              0.0102331167            0.000361535012           
       1.559145             0.00963064945            0.000351541847           
       1.561786              0.0095588758             0.00034864281           
       1.564426               0.010542961            0.000365818911           
       1.567066             0.00960026904            0.000346356652           
       1.569707              0.0100650164            0.000359775411           
       1.572347             0.00958035653            0.000346452396           
       1.574988             0.00915031461            0.000337247901           
       1.577628             0.00948684195            0.000351124937           
       1.580268             0.00912799702            0.000332534307           
       1.582909             0.00951042539            0.000345777495           
       1.585549             0.00857098992            0.000325188024           
       1.588189             0.00922026778             0.00034104726           
       1.590830             0.00959730356            0.000341977675           
       1.593470             0.00901115965            0.000334076288           
       1.596111             0.00900583723            0.000331091798           
       1.598751             0.00842637625            0.000323536993           
       1.601391             0.00874544484            0.000327498167           
       1.604032             0.00886947028            0.000327058022           
       1.606672              0.0094086099            0.000343631399           
       1.609312             0.00818800197            0.000311028663           
       1.611953             0.00920538083            0.000334565462           
       1.614593             0.00908919587            0.000329918908           
       1.617234             0.00921632609            0.000334101318           
       1.619874             0.00888550001            0.000324190868           
       1.622514             0.00857508418             0.00032129437           
       1.625155             0.00822685489            0.000313924694           
       1.627795             0.00828215231            0.000311795061           
       1.630436             0.00826531214            0.000314608708           
       1.633076             0.00895004147            0.000325717812           
       1.635716             0.00855573749             0.00031790671           
       1.638357             0.00879859752            0.000321017403           
       1.640997             0.00842673636            0.000316617334           
       1.643637             0.00879027748            0.000317370118           
       1.646278             0.00846809883            0.000316162393           
       1.648918             0.00856257284            0.000313822472           
       1.651559             0.00879841831            0.000322114768           
       1.654199             0.00857413057            0.000313623935           
       1.656839             0.00840005622            0.000310340389           
       1.659480             0.00810905985            0.000307603056           
       1.662120             0.00836686084            0.000308267414           
       1.664761             0.00868065643            0.000317394599           
       1.667401             0.00837688194            0.000308887013           
       1.670041             0.00849130493            0.000311345348           
       1.672682             0.00920403662            0.000321098547           
       1.675322             0.00857845981            0.000315475381           
       1.677962             0.00861475535            0.000309863481           
       1.680603             0.00810944648            0.000303306604           
       1.683243             0.00827248433            0.000304074153           
       1.685884             0.00863226823            0.000311798125           
       1.688524             0.00829429717            0.000304773517           
       1.691164             0.00853448036            0.000308360168           
       1.693805             0.00830288034            0.000306606937           
       1.696445             0.00853066524            0.000306470788           
       1.699085             0.00821692974            0.000301983242           
       1.701726             0.00836710647            0.000300766556           
       1.704366             0.00821122698            0.000305201574           
       1.707007             0.00857741176            0.000305276226           
       1.709647             0.00852842075            0.000308185392           
       1.712287             0.00793134553            0.000292234805           
       1.714928              0.0084808557            0.000305227392           
       1.717568             0.00844822243            0.000301838239           
       1.720209             0.00844604611            0.000303663004           
       1.722849             0.00846789263            0.000304542995           
       1.725489             0.00829566467            0.000296625596           
       1.728130             0.00841672368            0.000304864365           
       1.730770             0.00809063351            0.000292582309           
       1.733410              0.0080880535            0.000296375964           
       1.736051             0.00850858514            0.000299264843           
       1.738691             0.00810858878            0.000295127787           
       1.741332             0.00836520422            0.000297916145           
       1.743972             0.00830562376            0.000296963413           
       1.746612             0.00778458483            0.000287563955           
       1.749253             0.00793003466            0.000291492287           
       1.751893             0.00832093769            0.000296798887           
       1.754533             0.00822674158            0.000291063782           
       1.757174             0.00851527847            0.000301660567           
       1.759814             0.00849869536            0.000296772189           
       1.762455             0.00901904774            0.000308325258           
       1.765095             0.00859964722            0.000296843087           
       1.767735             0.00797824229             0.00029077557           
       1.770376             0.00798033356             0.00028640342           
       1.773016             0.00894343077            0.000303671911           
       1.775657                0.00836228            0.000294241387           
       1.778297              0.0086653344            0.000300990971           
       1.780937             0.00861314109             0.00029868281           
       1.783578             0.00827299602            0.000291351146           
       1.786218             0.00833566189            0.000297119337           
       1.788858             0.00815232607            0.000286533353           
       1.791499             0.00860467435            0.000299800865           
       1.794139             0.00881684259            0.000297870552           
       1.796780             0.00899516097            0.000302655362           
       1.799420             0.00904026837            0.000303026973           
       1.802060             0.00892647196            0.000297410208           
       1.804701             0.00878104441            0.000298934968           
       1.807341             0.00915357507            0.000302261044           
       1.809981             0.00894459815            0.000300775146           
       1.812622             0.00952635894            0.000308711195           
       1.815262             0.00929382083            0.000306007317           
       1.817903             0.00872823088            0.000292886163           
       1.820543              0.0088256566            0.000298156483           
       1.823183             0.00865713012            0.000290746167           
       1.825824              0.0090307909            0.000301420202           
       1.828464              0.0079155335            0.000281329334           
       1.831105             0.00811356486             0.00028592945           
       1.833745             0.00861548939            0.000294456975           
       1.836385             0.00831393193            0.000288132798           
       1.839026             0.00902395099            0.000304696684           
       1.841666             0.00888214684            0.000298367984           
       1.844306             0.00893879633            0.000303096739           
       1.846947             0.00888972596             0.00029837933           
       1.849587              0.0085860719            0.000297216211           
       1.852228             0.00890973526            0.000299546197           
       1.854868             0.00831125831            0.000294617068           
       1.857508             0.00826876372            0.000288436799           
       1.860149             0.00840337385            0.000293105802           
       1.862789             0.00904361394            0.000305411976           
       1.865429             0.00876827759            0.000301633501           
       1.868070             0.00820637717            0.000290800327           
       1.870710             0.00923826992            0.000309382395           
       1.873351             0.00870681641            0.000302269084           
       1.875991             0.00907833509              0.0003103202           
       1.878631             0.00926453136             0.00031057265           
       1.881272             0.00877677959            0.000301578629           
       1.883912             0.00874705034            0.000304598295           
       1.886553              0.0089280841            0.000304042798           
       1.889193             0.00862836753            0.000302348596           
       1.891833             0.00844544888            0.000295722554           
       1.894474             0.00835065498            0.000296385558           
       1.897114             0.00888653274            0.000303375927           
       1.899754             0.00865480202            0.000302751953           
       1.902395             0.00894898656            0.000307919993           
       1.905035             0.00852088587             0.00029928712           
       1.907676             0.00854795094            0.000300110549           
       1.910316             0.00849031252            0.000301004112           
       1.912956             0.00831233098            0.000297820607           
       1.915597             0.00868905957             0.00030132021           
       1.918237             0.00876636623            0.000307251948           
       1.920878              0.0091128298            0.000307720681           
       1.923518             0.00818345792             0.00029935496           
       1.926158             0.00887811084            0.000304636688           
       1.928799              0.0082831107            0.000298161633           
       1.931439             0.00858147976            0.000301052118           
       1.934079             0.00835257071            0.000300017508           
       1.936720             0.00832339919            0.000297730401           
       1.939360             0.00821241376            0.000298589025           
       1.942001             0.00830261829            0.000299069428           
       1.944641             0.00938656468            0.000316622921           
       1.947281             0.00858529177            0.000304270407           
       1.949922             0.00828432393            0.000299263639           
       1.952562             0.00802503716            0.000297077722           
       1.955202             0.00843662329            0.000296947678           
       1.957843             0.00838453338            0.000305433429           
       1.960483             0.00866028283            0.000305463969           
       1.963124             0.00844419031             0.00030140523           
       1.965764             0.00877962186            0.000307443225           
       1.968404             0.00859719482            0.000309672687           
       1.971045             0.00829086265            0.000296482505           
       1.973685             0.00838840733            0.000303786709           
       1.976326             0.00810340839            0.000297279712           
       1.978966             0.00855650786            0.000306923339           
       1.981606             0.00846426648            0.000302036157           
       1.984247             0.00858888613            0.000306904453           
       1.986887             0.00819659971            0.000302617779           
       1.989527             0.00798199386             0.00029240841           
       1.992168             0.00805362092            0.000300803979           
       1.994808             0.00829453349            0.000301719133           
       1.997449             0.00832723537            0.000301869988           
       2.000089             0.00791442662            0.000292559639           
       2.002729             0.00822422643             0.00030506439           
       2.005370             0.00863291153            0.000306610803           
       2.008010             0.00803038987             0.00029964371           
       2.010650             0.00800041178            0.000298228301           
       2.013291             0.00815508397            0.000302811149           
       2.015931             0.00813898803            0.000300347051           
       2.018572             0.00827469825            0.000306862769           
       2.021212              0.0080461282            0.000299879189           
       2.023852             0.00850376344              0.0003099088           
       2.026493             0.00815878816            0.000302227337           
       2.029133             0.00749531349            0.000287468406           
       2.031774             0.00748033672            0.000289966046           
       2.034414             0.00768204152             0.00029209582           
       2.037054             0.00807778158            0.000303301775           
       2.039695             0.00823430749            0.000300194407           
       2.042335             0.00753819468            0.000292114303           
       2.044975             0.00779397238            0.000294654919           
       2.047616             0.00817795562            0.000303119336           
       2.050256             0.00748676773            0.000286615436           
       2.052897             0.00764886879            0.000298281783           
       2.055537             0.00782142306            0.000293404016           
       2.058177             0.00702160411            0.000280453413           
       2.060818             0.00773567189            0.000295252404           
       2.063458             0.00809690128            0.000302483438           
       2.066098             0.00727007488            0.000285351417           
       2.068739             0.00841216668            0.000310148246           
       2.071379             0.00823530554            0.000302338814           
       2.074020             0.00783740311            0.000298983313           
       2.076660             0.00700671742            0.000280778779           
       2.079300             0.00766301995            0.000293591876           
       2.081941             0.00765279644            0.000295179656           
       2.084581             0.00797894574            0.000301627321           
       2.087222             0.00720388451            0.000286798615           
       2.089862             0.00753370305            0.000289634878           
       2.092502             0.00743452346            0.000292949968           
       2.095143              0.0071545616            0.000283274017           
       2.097783              0.0076850176            0.000298055032           
       2.100423             0.00830356254             0.00030387709           
       2.103064             0.00798571606            0.000303149659           
       2.105704              0.0071805384              0.0002863611           
       2.108345             0.00736381338            0.000291323944           
       2.110985             0.00725514324            0.000285104765           
       2.113625             0.00843377213            0.000312235073           
       2.116266             0.00762081291            0.000294608333           
       2.118906             0.00793769797            0.000300452464           
       2.121546              0.0074054961            0.000289975027           
       2.124187             0.00692841678            0.000284358599           
       2.126827              0.0070997786            0.000283339307           
       2.129468             0.00729605116            0.000290226476           
       2.132108              0.0074664761            0.000292989014           
       2.134748             0.00761849608              0.0002948413           
       2.137389             0.00756301912            0.000296226315           
       2.140029             0.00728334135            0.000289991605           
       2.142670             0.00757522544            0.000296228556           
       2.145310             0.00773445089            0.000300469184           
       2.147950             0.00700732285            0.000287102473           
       2.150591             0.00754030888            0.000295089795           
       2.153231             0.00768017257            0.000302216968           
       2.155871             0.00723465282            0.000289084157           
       2.158512             0.00688254371            0.000287042315           
       2.161152             0.00694448414            0.000281128601           
       2.163793             0.00738893636            0.000294703773           
       2.166433             0.00784430564            0.000298383527           
       2.169073             0.00771836816            0.000302889028           
       2.171714             0.00731502407            0.000288865589           
       2.174354             0.00727915437              0.0002925598           
       2.176995             0.00725313293            0.000289613924           
       2.179635             0.00714083432            0.000292801564           
       2.182275             0.00750241934            0.000294165512           
       2.184916             0.00746784678            0.000299689751           
       2.187556             0.00710102134            0.000287531849           
       2.190196             0.00774327181            0.000304972658           
       2.192837             0.00698971196            0.000286580273           
       2.195477             0.00753404473            0.000300400021           
       2.198118             0.00814380002            0.000306553747           
       2.200758             0.00719332109            0.000292583786           
       2.203398             0.00746112284            0.000293038806           
       2.206039             0.00807510837            0.000309517444           
       2.208679             0.00742851859            0.000293961074           
       2.211319             0.00735512767            0.000293882172           
       2.213960             0.00746191953            0.000292860695           
       2.216600             0.00782214573            0.000306911197           
       2.219241              0.0074429336            0.000295026872           
       2.221881             0.00739801183            0.000295668384           
       2.224521              0.0073578157            0.000293841321           
       2.227162             0.00735940806            0.000298488948           
       2.229802             0.00699302257            0.000286240973           
       2.232443              0.0075986242            0.000299551049           
       2.235083              0.0070967661            0.000287754156           
       2.237723             0.00745326804            0.000297153085           
       2.240364             0.00750166149            0.000296599879           
       2.243004             0.00685418697            0.000284367708           
       2.245644             0.00725002148            0.000291788318           
       2.248285             0.00752267127            0.000299153743           
       2.250925             0.00682836072            0.000283681504           
       2.253566             0.00688905165            0.000285636139           
       2.256206             0.00714731543            0.000290069485           
       2.258846             0.00715236297             0.00029017448           
       2.261487              0.0070787561            0.000289176861           
       2.264127             0.00775286981            0.000305496457           
       2.266767             0.00734106971            0.000292467608           
       2.269408             0.00738828943            0.000296891451           
       2.272048             0.00723144934            0.000291916515           
       2.274689             0.00721369993            0.000292704531           
       2.277329             0.00682434827            0.000284317458           
       2.279969             0.00716211176            0.000292151296           
       2.282610             0.00696666295            0.000285327496           
       2.285250             0.00751660629            0.000301036638           
       2.287891             0.00713290469            0.000290293223           
       2.290531             0.00704899596            0.000290003807           
       2.293171             0.00693282781            0.000287590055           
       2.295812             0.00755190367            0.000298562797           
       2.298452             0.00729739733            0.000295368469           
       2.301092             0.00731224525            0.000297546956           
       2.303733             0.00741143569            0.000293633162           
       2.306373             0.00735218705            0.000299610371           
       2.309014             0.00749097587            0.000296597272           
       2.311654             0.00726215409            0.000294803685           
       2.314294             0.00747213106            0.000298382438           
       2.316935             0.00696869816            0.000289294328           
       2.319575             0.00732636034            0.000295514579           
       2.322215              0.0070323802            0.000293650584           
       2.324856             0.00680355217            0.000281580201           
       2.327496             0.00672091043            0.000286723692           
       2.330137             0.00665693325            0.000280093078           
       2.332777             0.00652485325            0.000280333384           
       2.335417              0.0074964046            0.000299578207           
       2.338058             0.00719315409             0.00029463077           
       2.340698             0.00674054459            0.000282402624           
       2.343339              0.0074091088             0.00030172665           
       2.345979             0.00743077864            0.000296137898           
       2.348619             0.00690730569            0.000290908372           
       2.351260             0.00709483433            0.000288563628           
       2.353900             0.00648517859             0.00028173111           
       2.356540             0.00699328255            0.000288535969           
       2.359181             0.00708470236            0.000294299274           
       2.361821             0.00702800417            0.000289547832           
       2.364462             0.00685261427             0.00029069045           
       2.367102             0.00735111918            0.000292371757           
       2.369742             0.00704491635            0.000296474923           
       2.372383             0.00739220031            0.000294841517           
       2.375023             0.00713468258            0.000297207247           
       2.377663             0.00728382119            0.000293915999           
       2.380304             0.00706267732            0.000293434573           
       2.382944             0.00698306486             0.00028892218           
       2.385585             0.00702429136            0.000292513218           
       2.388225             0.00732273984            0.000297313308           
       2.390865             0.00687185742            0.000288752199           
       2.393506             0.00728924621            0.000296021657           
       2.396146             0.00739319038            0.000299112946           
       2.398787             0.00730965699            0.000297678504           
       2.401427              0.0073308055             0.00029629871           
       2.404067             0.00685225425            0.000290836707           
       2.406708             0.00713074174            0.000292958827           
       2.409348             0.00713964531            0.000295346891           
       2.411988              0.0070065687            0.000291647009           
       2.414629             0.00692855501            0.000290967735           
       2.417269              0.0070299493            0.000290427384           
       2.419910             0.00717840672             0.00029717895           
       2.422550             0.00670611932            0.000282876326           
       2.425190             0.00692953267            0.000296603189           
       2.427831             0.00720197191            0.000291005522           
       2.430471             0.00722166198            0.000299921178           
       2.433112             0.00673111801            0.000282723313           
       2.435752             0.00736658732            0.000303255711           
       2.438392             0.00753948184            0.000301637163           
       2.441033             0.00737090883             0.00029961267           
       2.443673             0.00718678089            0.000296636809           
       2.446313             0.00704338914            0.000292098008           
       2.448954             0.00752515702            0.000304571811           
       2.451594             0.00785893713            0.000309385631           
       2.454235             0.00700174661            0.000291117279           
       2.456875             0.00736523848            0.000300090667           
       2.459515             0.00732916455            0.000299816435           
       2.462156             0.00769884061            0.000305700632           
       2.464796              0.0083560442            0.000324099164           
       2.467436             0.00769036451            0.000304402153           
       2.470077             0.00831231572               0.000320836           
       2.472717              0.0082018545            0.000314709375           
       2.475358             0.00766956187             0.00030777377           
       2.477998             0.00818900063            0.000316328676           
       2.480638             0.00723438464            0.000298042272           
       2.483279             0.00784903503            0.000311779048           
       2.485919             0.00669588303            0.000285950671           
       2.488560             0.00719404404            0.000297626388           
       2.491200             0.00651556098            0.000282855712           
       2.493840             0.00725534649             0.00029685688           
       2.496481             0.00719279402            0.000299439603           
       2.499121             0.00704643696            0.000292431358           
       2.501761             0.00678436296            0.000291814147           
       2.504402             0.00733642954            0.000297639491           
       2.507042             0.00684629024            0.000292304758           
       2.509683             0.00691599428            0.000291113509           
       2.512323             0.00717555524            0.000297687093           
       2.514963              0.0141808186             0.00041932018           
       2.517604              0.0247499226            0.000551795903           
       2.520244               0.012414692            0.000390889918           
       2.522884             0.00813486668            0.000315726228           
       2.525525             0.00827237242             0.00032099867           
       2.528165              0.0189128617            0.000483146474           
       2.530806              0.0247690366            0.000550834907           
       2.533446               0.010587534            0.000363334572           
       2.536086             0.00977220806            0.000346134882           
       2.538727             0.00943387401            0.000342270422           
       2.541367               0.010744707            0.000364231918           
       2.544008             0.00861531289            0.000326425429           
       2.546648             0.00727417669            0.000300284733           
       2.549288             0.00687070293             0.00029188006           
       2.551929             0.00734829598            0.000302851231           
       2.554569             0.00680673588            0.000288814203           
       2.557209             0.00656600718            0.000286866116           
       2.559850             0.00652100517            0.000282593973           
       2.562490             0.00688324421            0.000292450882           
       2.565131             0.00736480793            0.000303034464           
       2.567771             0.00715719127            0.000297149313           
       2.570411             0.00698983487            0.000297228109           
       2.573052             0.00683975298            0.000290587769           
       2.575692             0.00647795569            0.000283548041           
       2.578332             0.00783488044            0.000310913102           
       2.580973             0.00708885632            0.000298138454           
       2.583613             0.00744473494            0.000302746221           
       2.586254             0.00752879247            0.000307144006           
       2.588894              0.0069307572            0.000293120947           
       2.591534             0.00747120703            0.000304894785           
       2.594175             0.00685863541            0.000293823926           
       2.596815             0.00701144342            0.000294316941           
       2.599456             0.00720939446            0.000300884464           
       2.602096             0.00662975551            0.000287455643           
       2.604736             0.00686787694            0.000293339705           
       2.607377             0.00687817608            0.000292436962           
       2.610017             0.00726911834            0.000300527853           
       2.612657             0.00697921558            0.000296554291           
       2.615298             0.00730670819            0.000300464192           
       2.617938             0.00684723144            0.000293408089           
       2.620579             0.00712807395            0.000296919359           
       2.623219             0.00707979726            0.000300645537           
       2.625859             0.00689780182             0.00029175467           
       2.628500             0.00663464578            0.000290708267           
       2.631140             0.00683361755            0.000289832399           
       2.633780              0.0068343971             0.00029357177           
       2.636421             0.00724092528            0.000299427157           
       2.639061             0.00725104201            0.000303218829           
       2.641702              0.0077480714            0.000310088143           
       2.644342             0.00693081512            0.000295684483           
       2.646982             0.00743603826            0.000306011906           
       2.649623             0.00774281387            0.000314132367           
       2.652263             0.00674522927            0.000290865363           
       2.654904             0.00691579804            0.000296119177           
       2.657544             0.00772902313            0.000310843189           
       2.660184             0.00749462544            0.000306484966           
       2.662825             0.00710315504            0.000299088407           
       2.665465             0.00716618742            0.000300968123           
       2.668105             0.00696644481            0.000296861545           
       2.670746             0.00708548595            0.000296853928           
       2.673386             0.00782186979             0.00031567856           
       2.676027             0.00754215855            0.000307347646           
       2.678667             0.00710421713            0.000299841744           
       2.681307             0.00726600493             0.00030085225           
       2.683948             0.00795291803            0.000317878017           
       2.686588             0.00795475854            0.000314997419           
       2.689229             0.00720841564            0.000302547619           
       2.691869             0.00724686242            0.000300325448           
       2.694509             0.00750335392            0.000309784879           
       2.697150             0.00688917045            0.000292097978           
       2.699790             0.00715343595            0.000303830443           
       2.702430             0.00716575684            0.000298261656           
       2.705071             0.00695724001            0.000297912211           
       2.707711             0.00694254201            0.000294646298           
       2.710352             0.00649703196            0.000286658062           
       2.712992             0.00690403768            0.000296461265           
       2.715632             0.00649475247            0.000285904006           
       2.718273             0.00691425751             0.00029597232           
       2.720913             0.00713139076            0.000301085553           
       2.723553             0.00698808876            0.000297009445           
       2.726194               0.007216331            0.000303276507           
       2.728834             0.00784893678            0.000313478764           
       2.731475              0.0065384451            0.000288615117           
       2.734115              0.0063799462            0.000283396676           
       2.736755             0.00768999346            0.000313192004           
       2.739396             0.00694848574            0.000296135267           
       2.742036             0.00674668556            0.000293795071           
       2.744677             0.00752848163             0.00031080462           
       2.747317             0.00750033127            0.000308715872           
       2.749957              0.0074806643            0.000310547513           
       2.752598             0.00667622256            0.000294258651           
       2.755238             0.00717133743            0.000304837323           
       2.757878             0.00658626938            0.000291306055           
       2.760519             0.00693077206            0.000295672325           
       2.763159              0.0072563238             0.00030745599           
       2.765800             0.00733420169            0.000303865355           
       2.768440             0.00648411273            0.000289476855           
       2.771080             0.00697763313            0.000297760656           
       2.773721             0.00754558897            0.000313440624           
       2.776361             0.00658151611            0.000289588952           
       2.779001             0.00737937418            0.000309863257           
       2.781642             0.00600345967            0.000277579608           
       2.784282             0.00697731527            0.000299352172           
       2.786923             0.00691094506            0.000295659186           
       2.789563             0.00663947835            0.000290376309           
       2.792203             0.00637331377            0.000286307402           
       2.794844             0.00695894014            0.000297811078           
       2.797484             0.00678793807            0.000294543691           
       2.800125              0.0065765553            0.000289546578           
       2.802765             0.00655862953            0.000294512015           
       2.805405             0.00717402673            0.000303573061           
       2.808046             0.00716098275            0.000307947565           
       2.810686             0.00707447622            0.000302820418           
       2.813326             0.00634679655            0.000290372512           
       2.815967             0.00660286765            0.000294305862           
       2.818607             0.00693069722            0.000304537574           
       2.821248              0.0064395092            0.000289887559           
       2.823888              0.0066667178            0.000299708168           
       2.826528             0.00649274749            0.000294007187           
       2.829169               0.007055602            0.000305132963           
       2.831809             0.00659427994            0.000295247427           
       2.834449             0.00693161738            0.000297421419           
       2.837090             0.00698236745            0.000300304642           
       2.839730             0.00711438308            0.000300977604           
       2.842371             0.00652675378            0.000290288347           
       2.845011             0.00711484161             0.00030240845           
       2.847651             0.00627260683            0.000284467186           
       2.850292             0.00622183446            0.000281703817           
       2.852932             0.00643729508            0.000287053804           
       2.855573             0.00694329173            0.000300740473           
       2.858213             0.00674999335            0.000293197593           
       2.860853             0.00686032497            0.000297796522           
       2.863494             0.00666686891            0.000294274551           
       2.866134              0.0069629703            0.000304956851           
       2.868774              0.0066868156            0.000294273664           
       2.871415             0.00667165272            0.000296849084           
       2.874055             0.00660254747            0.000296770487           
       2.876696             0.00695731382            0.000301896011           
       2.879336             0.00666476279            0.000297441981           
       2.881976             0.00718668317            0.000308614681           
       2.884617             0.00645556151            0.000290870745           
       2.887257             0.00627486669             0.00028477152           
       2.889897             0.00685773429            0.000301116279           
       2.892538              0.0064054288            0.000288999011           
       2.895178             0.00694095514            0.000297769573           
       2.897819             0.00683137182            0.000298447906           
       2.900459             0.00671773448            0.000293504834           
       2.903099             0.00686951447            0.000298351749           
       2.905740             0.00683960897            0.000294378558           
       2.908380             0.00666996644            0.000294580235           
       2.911021             0.00644819777             0.00029019222           
       2.913661             0.00659998051            0.000290356864           
       2.916301             0.00677845416            0.000298442595           
       2.918942             0.00740545764             0.00030723423           
       2.921582             0.00740741671            0.000310498703           
       2.924222             0.00670310802            0.000293655539           
       2.926863             0.00703101048            0.000301551161           
       2.929503             0.00747166967            0.000314308031           
       2.932144             0.00763640591            0.000312542609           
       2.934784             0.00710081534            0.000302663872           
       2.937424             0.00684996294            0.000297819491           
       2.940065             0.00704800564            0.000302339887           
       2.942705             0.00702795299            0.000302826845           
       2.945346             0.00654517516            0.000290514516           
       2.947986             0.00888241427            0.000339616509           
       2.950626             0.00870068514            0.000337157869           
       2.953267             0.00969782224            0.000352172403           
       2.955907             0.00850029088            0.000334071365           
       2.958547             0.00811869341            0.000323138924           
       2.961188             0.00684572115            0.000299316502           
       2.963828             0.00672906616            0.000295073553           
       2.966469             0.00612937195            0.000281688443           
       2.969109             0.00772190418            0.000317788882           
       2.971749              0.0081512585             0.00032554389           
       2.974390             0.00891580146            0.000341403122           
       2.977030             0.00954063826            0.000352491537           
       2.979670             0.00781613418            0.000316991016           
       2.982311             0.00666422135            0.000294814377           
       2.984951             0.00790530261             0.00032192498           
       2.987592             0.00760228467            0.000314629301           
       2.990232             0.00721334085            0.000307257785           
       2.992872             0.00841970638            0.000329360856           
       2.995513             0.00922976873            0.000347549776           
       2.998153              0.0140213826            0.000431131652           
       3.000794              0.0252107894            0.000569693989           
       3.003434              0.0292244972            0.000619873045           
       3.006074              0.0193356835             0.00050583211           
       3.008715              0.0146712427            0.000443970973           
       3.011355              0.0179438536            0.000496103372           
       3.013995              0.0153896434            0.000457193024           
       3.016636              0.0274637823            0.000611897977           
       3.019276               0.176037824             0.00158620128           
       3.021917               0.422997796             0.00241710527           
       3.024557               0.154371875             0.00147185155           
       3.027197              0.0755279762             0.00104679704           
       3.029838               0.143638741              0.0014366885           
       3.032478              0.0972737929             0.00118935672           
       3.035118              0.0704175508             0.00101714862           
       3.037759              0.0823298572             0.00110175963           
       3.040399              0.0694021143             0.00102314173           
       3.043040              0.0655855465             0.00100427185           
       3.045680              0.0515063703            0.000876268217           
       3.048320              0.0727047177             0.00105779517           
       3.050961               0.102245959             0.00126699975           
       3.053601               0.119995983             0.00136650727           
       3.056242              0.0625031561            0.000992568072           
       3.058882                0.13961591              0.0015055309           
       3.061522               0.282230652             0.00212571407           
       3.064163              0.0527100293            0.000920320124           
       3.066803              0.0204027464              0.0005836526           
       3.069443              0.0294925377             0.00069705015           
       3.072084              0.0846364974             0.00119133986           
       3.074724              0.0605641652             0.00101372847           
       3.077365              0.0118606989            0.000448288778           
       3.080005             0.00877320461            0.000389826504           
       3.082645              0.0100579927            0.000419520863           
       3.085286             0.00770650793            0.000367287308           
       3.087926             0.00787599003            0.000373666472           
       3.090566             0.00771300325            0.000373588879           
       3.093207             0.00738814006            0.000361686275           
       3.095847             0.00842813727            0.000394402343           
       3.098488             0.00820955393            0.000388548537           
       3.101128             0.00785930813            0.000382240767           
       3.103768             0.00823255908            0.000393416093           
       3.106409               0.010473074            0.000446705153           
       3.109049             0.00991329139            0.000437981642           
       3.111690              0.0134345292            0.000507860959           
       3.114330              0.0198352788            0.000622586794           
       3.116970              0.0171270003             0.00058657213           
       3.119611              0.0128707629             0.00050518192           
       3.122251             0.00992837959            0.000447329009           
       3.124891             0.00946208633            0.000438818206           
       3.127532             0.00812967528            0.000414077328           
       3.130172             0.00898937941            0.000426464015           
       3.132813             0.00797726027            0.000409915758           
       3.135453             0.00693486506            0.000390258706           
       3.138093             0.00675574041            0.000376046231           
       3.140734             0.00662720713             0.00037938347           
       3.143374             0.00625806095            0.000374301636           
       3.146014             0.00634632896            0.000374195945           
       3.148655             0.00588336037            0.000363125208           
       3.151295             0.00807545431            0.000428796433           
       3.153936             0.00680949888            0.000399567083           
       3.156576              0.0066066698            0.000389053325           
       3.159216             0.00588092216            0.000370065081           
       3.161857             0.00613604266            0.000382643888           
       3.164497             0.00648673467            0.000401722073           
       3.167138               0.005652028            0.000365989252           
       3.169778             0.00630457436            0.000393519368           
       3.172418             0.00573114918            0.000377389179           
       3.175059             0.00570556072            0.000381473543           
       3.177699             0.00609162505            0.000392611547           
       3.180339             0.00591678093            0.000390394714           
       3.182980             0.00560789579            0.000385198714           
       3.185620             0.00616232184            0.000408203889           
       3.188261             0.00576465466            0.000389640546           
       3.190901             0.00539191768            0.000382639776           
       3.193541             0.00613798471            0.000409600163           
       3.196182             0.00548743906            0.000395344315           
       3.198822             0.00579662551            0.000401403699           
       3.201463             0.00564750928            0.000401330704           
       3.204103             0.00635828922            0.000431508188           
       3.206743             0.00544202418            0.000402583074           
       3.209384             0.00498872541            0.000383733541           
       3.212024             0.00557036401            0.000406927292           
       3.214664             0.00616515994            0.000436261712           
       3.217305             0.00587547564            0.000435825195           
       3.219945             0.00586299091            0.000431721396           
       3.222586             0.00599550218            0.000439043558           
       3.225226             0.00591076104            0.000445750549           
       3.227866               0.005051989            0.000415286918           
       3.230507             0.00569201401            0.000446068655           
       3.233147              0.0054668968            0.000430692677           
       3.235787             0.00584068964            0.000445294314           
       3.238428              0.0054175001            0.000436433176           
       3.241068             0.00568716127            0.000456230637           
       3.243709             0.00545084841            0.000444172318           
       3.246349             0.00570203496            0.000451749473           
       3.248989             0.00588071377            0.000469259044           
       3.251630             0.00562647809            0.000461034157           
       3.254270             0.00565805784            0.000476537482           
       3.256911               0.005936407            0.000475888183           
       3.259551             0.00526415985            0.000458036259           
       3.262191             0.00527066567            0.000462535675           
       3.264832             0.00491902579            0.000451032728           
       3.267472             0.00502155675            0.000462171722           
       3.270112             0.00607477349            0.000509781179           
       3.272753             0.00560974685            0.000495900971           
       3.275393             0.00558764592            0.000497470652           
       3.278034             0.00578095289            0.000516310386           
       3.280674             0.00676953303            0.000560336759           
       3.283314             0.00573076167            0.000518404806           
       3.285955              0.0056560348            0.000524687366           
       3.288595             0.00612992884            0.000552319633           
       3.291235             0.00645059542            0.000569910132           
       3.293876             0.00632182926            0.000567533877           
       3.296516             0.00683743134            0.000602262495           
       3.299157             0.00464563708            0.000503937836           
       3.301797             0.00570246454              0.0005585604           
       3.304437             0.00508606039            0.000537396605           
       3.307078             0.00522172652            0.000549806471           
       3.309718              0.0065085928            0.000619954845           
       3.312359             0.00596285276             0.00060538447           
       3.314999             0.00539908572            0.000582098629           
       3.317639              0.0049767576            0.000564886486           
       3.320280             0.00516979591            0.000584145199           
       3.322920             0.00534069765            0.000602605121           
       3.325560             0.00595833612            0.000648787512           
       3.328201             0.00532661781            0.000616024164           
       3.330841             0.00579992852            0.000658444683           
       3.333482             0.00593456472            0.000674500025           
       3.336122             0.00564925317            0.000672389839           
       3.338762              0.0066401449            0.000735645457           
       3.341403             0.00501299138            0.000645117185           
       3.344043             0.00531094753            0.000689355855           
       3.346683             0.00424991315            0.000622916932           
       3.349324              0.0050405461            0.000688890658           
       3.351964             0.00424693441            0.000652666679           
       3.354605             0.00669377583            0.000828665953           
       3.357245             0.00588959607            0.000804618118           
       3.359885             0.00577531454            0.000797059871           
       3.362526             0.00418779546            0.000713432296           
       3.365166             0.00482337424            0.000756206223           
       3.367807              0.0060521843             0.00090676188           
       3.370447             0.00471232556            0.000800429658           
       3.373087              0.0052455067            0.000891283128           
       3.375728             0.00558254109            0.000912520233           
       3.378368             0.00656051363             0.00106893257           
       3.381008             0.00657562276             0.00106083154           
       3.383649             0.00358989358            0.000848276326           
       3.386289             0.00654603422             0.00114594762           
       3.388930             0.00550901955             0.00115455015           
       3.391570               0.008853873             0.00146428075           
       3.394210             0.00463536362             0.00113522757           
       3.396851             0.00511031016             0.00129118281           
       3.399491             0.00556962246             0.00137242433           
       3.402131             0.00552606805              0.0016181972           
       3.404772              0.0050354113             0.00154535014           
       3.407412             0.00206222004              0.0012271697           
       3.410053             0.00601495131             0.00218232773           
       3.412693              0.0074772312             0.00344247937           
       3.415333             0.00216409731             0.00226914138           
