################################################################################
# EDF_DataBlockID                     0.Image.Psd
# EDF_BinarySize                      2105344
# EDF_HeaderSize                      2560
# ByteOrder                           LowByteFirst
# DataType                            FloatValue
# Dim_1                               512
# Dim_2                               1028
# Image                               0
# HeaderID                            EH:000000:000000:000000
# Size                                2105344
# Center_1                            304.9000
# Center_2                            588.7000
# Comment                             Xenocs_Cell_Window - front_window_open_only
# DDummy                              0.6
# Date                                2025-10-18T06:13:53
# Delta                               21.910000
# Dummy                               -1.5
# ExposureTime                        360
# Gamma                               15.360000
# Intensity1                          9.20413e-10
# PSize_1                             7.5e-05
# PSize_2                             7.5e-05
# Pressure                            0.0339355
# SampleDistance                      0.115750
# SampleEnvKind                       large
# SampleEnvPN                         ElectroChemical cell
# SampleEnvSN                         1141
# Thickness                           0
# Wavelength                          1.541891e-10
# Wavelength                          1.54189e-10
# aux                                 0
# aux_dial                            0.002375
# beamx                               588.429
# beamx_dial                          588.429
# beamz                               657.855
# beamz_dial                          657.855
# det0x                               -0.000396875
# det0x_dial                          6.36905
# det0xvd                             -0.0005
# det0xvd_dial                        -0.0005
# det0y                               450.002
# det0y_dial                          481.635
# det0z                               0
# det0z_dial                          1.2295
# det0zvd                             0
# det0zvd_dial                        0
# mag                                 1.818
# mag_dial                            1.818
# om                                  0.2499
# om_dial                             -0.610199
# phi                                 -0.0120535
# phi_dial                            0
# ry                                  0.599993
# ry_dial                             0.599993
# s1bot                               0.8
# s1bot_dial                          -1.66094
# s1hl                                0.8
# s1hl_dial                           -0.608437
# s1hr                                0.8
# s1hr_dial                           0.970938
# s1top                               0.8
# s1top_dial                          -0.461562
# s2bot                               0.45
# s2bot_dial                          1.36109
# s2hl                                0.45
# s2hl_dial                           -0.83375
# s2hr                                0.45
# s2hr_dial                           -0.118594
# s2top                               0.45
# s2top_dial                          1.44734
# w2theta                             32
# w2theta_dial                        32
# waxsch                              19.2605
# waxsch_dial                         -32.7238
# waxsh                               137.085
# waxsh_dial                          -43.5335
# waxsth                              26.0607
# waxsth_dial                         -19.4068
# waxsz                               67.0407
# waxsz_dial                          -23.7962
# wind                                65.9854
# wind_dial                           66.0041
# wpsi                                124
# wpsi_dial                           124
# wstod                               115
# wstod_dial                          115
# x                                   0
# x_dial                              1.00969
# z                                   0
# z_dial                              13.3172
# CountCutoff                         6807993
# DetectorModel                       Dectris EIGER2 Si 500K, S/N E-01-0554
# ThresholdSetting                    4023.88989258
# Saturation                          0
# FlatField                           Corrected
# BackgroundReductionExtra            0.02
# BackgroundCorrectionConstant        0.0026712
# Detector                            0
# Monitor                             0
# Pil_Roi0                            0
# SumForIntensity1                    3.31349e+08
# TransmittedFlux                     920413
# det                                 0
# mon                                 0
# pilai0                              3.31349e+08
# pilai1                              710247
# pilct0                              5.72306e+08
# pilct1                              710247
# pilroi0                             0
# pilroi1                             0
# sec                                 1
# title                               20251017__1_00110.edf
# usaxs0                              0
# Operation                           Azimuthal average I(q)
# Error_model                         ErrorModel.poisson
# Geometrical_correction              True
# Transmission_correction             True
# Thickness_correction                False
# Binning mode                        Uniform
# Binning factor                      1.0
# Psi                                 0.0
# Omega                               0.2499
# MaskInvalidPixels                   True
# DetectorEdge                        3
# MaskFiles                           ['20251017__1_00233_mask.edf']
################################################################################
    q(A⁻¹)                Intensity(a.u.)            Sigma_I(a.u.)            
       0.690460              0.0150079432               0.011134587           
       0.693100             0.00304744206             0.00224320518           
       0.695741             0.00791294415             0.00305377083           
       0.698381             0.00191917921              0.0014066023           
       0.701021             0.00938049796             0.00253799856           
       0.703662             0.00626619872             0.00192009557           
       0.706302             0.00534882786             0.00171327046           
       0.708942              0.0067622799             0.00171114619           
       0.711583             0.00802916589             0.00186421591           
       0.714223             0.00615882632             0.00142276836           
       0.716864               0.007415885             0.00159315643           
       0.719504             0.00897123952             0.00162173548           
       0.722144             0.00615687986             0.00129753722           
       0.724785             0.00944866778             0.00158105756           
       0.727425             0.00471802214             0.00103628746           
       0.730065             0.00641296655             0.00124314362           
       0.732706             0.00769216753             0.00122431743           
       0.735346              0.0058255083             0.00115087701           
       0.737987             0.00808679106             0.00117364853           
       0.740627             0.00607802989             0.00111465164           
       0.743267             0.00719282398             0.00104302085           
       0.745908             0.00812733518             0.00118822999           
       0.748548             0.00884260927             0.00115597076           
       0.751189              0.0067710741              0.0010020155           
       0.753829             0.00720708723             0.00104309929           
       0.756469             0.00608384231            0.000901394212           
       0.759110             0.00761323117             0.00104297498           
       0.761750             0.00737966866            0.000939779558           
       0.764390             0.00658548658            0.000952974468           
       0.767031             0.00725763075            0.000905268936           
       0.769671             0.00720145824            0.000956344941           
       0.772312             0.00765646467            0.000898596465           
       0.774952             0.00548797305            0.000815591821           
       0.777592              0.0074533922            0.000869358579           
       0.780233             0.00616763809            0.000833697017           
       0.782873             0.00665071235            0.000791665399           
       0.785513               0.006163982            0.000810741979           
       0.788154             0.00696388763            0.000791521812           
       0.790794             0.00737362593            0.000842957846           
       0.793435             0.00601219657            0.000731096702           
       0.796075             0.00695909909            0.000790720934           
       0.798715              0.0069291456            0.000784513034           
       0.801356             0.00551160827            0.000680955387           
       0.803996             0.00646721507             0.00074941697           
       0.806637             0.00739756154            0.000757638931           
       0.809277             0.00752139591             0.00079922048           
       0.811917              0.0067371202            0.000715779188           
       0.814558             0.00737739331            0.000767322867           
       0.817198             0.00758973945            0.000742097868           
       0.819838             0.00690707674            0.000738454556           
       0.822479             0.00761671929            0.000714630262           
       0.825119             0.00552537186            0.000653862335           
       0.827760             0.00594985416            0.000628712759           
       0.830400             0.00615858371            0.000673947828           
       0.833040             0.00772736514            0.000704556476           
       0.835681             0.00706422441            0.000705451968           
       0.838321             0.00700276425            0.000657411335           
       0.840961             0.00654780354            0.000664458372           
       0.843602             0.00681818136            0.000638685191           
       0.846242              0.0075897572            0.000697646546           
       0.848883             0.00634525602            0.000620524106           
       0.851523             0.00612015144            0.000613984997           
       0.854163             0.00712091647            0.000654590349           
       0.856804             0.00643510527            0.000606348809           
       0.859444             0.00731738012            0.000651229166           
       0.862085             0.00739083454            0.000644969177           
       0.864725             0.00587345207            0.000572850839           
       0.867365             0.00668526746            0.000606782231           
       0.870006             0.00648109271            0.000605780149           
       0.872646             0.00612131431            0.000563104242           
       0.875286              0.0072065772            0.000631803824           
       0.877927             0.00645855091            0.000572671259           
       0.880567             0.00650875033            0.000586123462           
       0.883208             0.00703030216            0.000591561864           
       0.885848             0.00677225198            0.000595660545           
       0.888488             0.00692778737            0.000572833022           
       0.891129             0.00681754757            0.000597339794           
       0.893769             0.00704632864            0.000574030266           
       0.896410             0.00682387144            0.000582297063           
       0.899050              0.0067470797            0.000558280391           
       0.901690             0.00721270252            0.000589271539           
       0.904331             0.00623904504            0.000528922491           
       0.906971             0.00665670783            0.000564147974           
       0.909611             0.00750029275            0.000574774597           
       0.912252             0.00642868731            0.000541353131           
       0.914892             0.00697666589            0.000549669446           
       0.917533             0.00656060713            0.000545054789           
       0.920173             0.00684872198            0.000534200288           
       0.922813             0.00687457982            0.000559301698           
       0.925454             0.00688085595            0.000531052847           
       0.928094             0.00679284095            0.000538971271           
       0.930734             0.00618791917            0.000502136496           
       0.933375              0.0072338508            0.000554491584           
       0.936015              0.0074718489             0.00053920383           
       0.938656             0.00659797738            0.000527945851           
       0.941296             0.00672300151            0.000513737508           
       0.943936             0.00720849896            0.000541544347           
       0.946577             0.00663604621            0.000500403652           
       0.949217             0.00652517643            0.000513729985           
       0.951858             0.00690841873            0.000499730281           
       0.954498             0.00716549392             0.00053543047           
       0.957138             0.00628520831            0.000481981404           
       0.959779             0.00784361918            0.000550206294           
       0.962419             0.00712049193            0.000504674433           
       0.965059             0.00771963062            0.000540403938           
       0.967700             0.00774873295            0.000523913183           
       0.970340             0.00767582722            0.000536095054           
       0.972981             0.00715385137            0.000499705778           
       0.975621             0.00716249834            0.000510476963           
       0.978261             0.00761885789            0.000502335962           
       0.980902             0.00708821232            0.000507597493           
       0.983542             0.00779027334             0.00051664743           
       0.986182             0.00788707597            0.000526693479           
       0.988823             0.00760313469            0.000500440509           
       0.991463             0.00580582462            0.000447753762           
       0.994104             0.00725782713            0.000483748098           
       0.996744             0.00745491767            0.000506171277           
       0.999384             0.00726665241            0.000482777696           
       1.002025             0.00644194754            0.000467213446           
       1.004665             0.00699178667            0.000466806214           
       1.007306             0.00776701557            0.000508491264           
       1.009946             0.00836969115            0.000507545112           
       1.012586             0.00723355427            0.000485413881           
       1.015227             0.00732417956            0.000473660191           
       1.017867             0.00775691525             0.00050142082           
       1.020507              0.0079318809            0.000487956335           
       1.023148              0.0078215669            0.000490403924           
       1.025788             0.00718215344            0.000465119345           
       1.028429             0.00764559449            0.000490381879           
       1.031069             0.00817881354            0.000488656108           
       1.033709             0.00766992155            0.000482296708           
       1.036350             0.00812337105            0.000483333567           
       1.038990             0.00761309483            0.000479458475           
       1.041630             0.00784208467            0.000477253963           
       1.044271             0.00783640543            0.000477134687           
       1.046911             0.00697511475            0.000441787277           
       1.049552             0.00725036323            0.000466651794           
       1.052192             0.00740621816            0.000450431737           
       1.054832             0.00727291811            0.000455040198           
       1.057473             0.00818660714            0.000476666098           
       1.060113             0.00777616076            0.000469593923           
       1.062754              0.0081259508            0.000474730195           
       1.065394             0.00803270181            0.000467032414           
       1.068034             0.00786546763            0.000460356029           
       1.070675             0.00773046326            0.000464415442           
       1.073315             0.00713975575            0.000432676683           
       1.075955             0.00770784221            0.000457100329           
       1.078596             0.00831712387            0.000473884418           
       1.081236             0.00896110332            0.000484592671           
       1.083877             0.00820174477            0.000478088683           
       1.086517             0.00734484459            0.000442190583           
       1.089157             0.00770389015            0.000456189975           
       1.091798             0.00731434005            0.000435088769           
       1.094438             0.00681146152            0.000426538703           
       1.097078             0.00722968812            0.000428145992           
       1.099719             0.00833639254            0.000471532314           
       1.102359             0.00736046731            0.000419731418           
       1.105000              0.0081921838            0.000460250765           
       1.107640             0.00817752419            0.000444849157           
       1.110280             0.00754910275            0.000435973108           
       1.112921             0.00747722429            0.000426041603           
       1.115561             0.00774403253             0.00043907852           
       1.118202             0.00880220976             0.00045445422           
       1.120842             0.00834015313             0.00045630347           
       1.123482             0.00817898984            0.000439197405           
       1.126123             0.00806848785            0.000438942824           
       1.128763             0.00800858032            0.000435141205           
       1.131403             0.00859319685            0.000450043167           
       1.134044             0.00845760889            0.000445703597           
       1.136684             0.00867305489            0.000454736672           
       1.139325             0.00799481528            0.000424293137           
       1.141965             0.00829847586            0.000437929329           
       1.144605             0.00816592925            0.000436969565           
       1.147246             0.00849148938            0.000437155964           
       1.149886             0.00819300355             0.00043245783           
       1.152527             0.00839484905            0.000438191141           
       1.155167             0.00853138966             0.00043552944           
       1.157807             0.00867960258            0.000439598941           
       1.160448              0.0079830951             0.00042736036           
       1.163088             0.00812362824            0.000415111659           
       1.165728             0.00813300444            0.000432471137           
       1.168369             0.00826350303            0.000420364584           
       1.171009             0.00879372546            0.000437236397           
       1.173650             0.00840506952            0.000424382445           
       1.176290             0.00837795257            0.000428668842           
       1.178930             0.00881026407            0.000427232257           
       1.181571             0.00891752578            0.000443863842           
       1.184211             0.00815091824            0.000411540255           
       1.186851             0.00763917449            0.000402085445           
       1.189492             0.00886341966            0.000435512637           
       1.192132             0.00915328163            0.000436022008           
       1.194773             0.00908754505            0.000431832401           
       1.197413             0.00842671446            0.000419227165           
       1.200053             0.00764244031            0.000396730148           
       1.202694             0.00910509579            0.000429770222           
       1.205334             0.00956207652            0.000445237677           
       1.207975             0.00860939721            0.000414198279           
       1.210615             0.00962839017              0.0004472874           
       1.213255             0.00902923344             0.00042168793           
       1.215896             0.00849686084            0.000416821411           
       1.218536             0.00946678228            0.000427296724           
       1.221176              0.0101379176            0.000452738113           
       1.223817             0.00947423647            0.000428548053           
       1.226457             0.00974749906            0.000440205574           
       1.229098             0.00943720155            0.000426571121           
       1.231738             0.00853306595            0.000411334621           
       1.234378             0.00974675245            0.000431073303           
       1.237019             0.00954444238            0.000430016749           
       1.239659             0.00987767507            0.000437222414           
       1.242299             0.00864135584            0.000406855361           
       1.244940              0.0085206903            0.000399643823           
       1.247580             0.00884239231            0.000408915891           
       1.250221             0.00932208195            0.000426714583           
       1.252861              0.0100155429            0.000425822769           
       1.255501             0.00943738082            0.000425020024           
       1.258142             0.00903529697            0.000407645721           
       1.260782             0.00927606861            0.000417707043           
       1.263423               0.010204795            0.000429438953           
       1.266063              0.0105347324            0.000444458481           
       1.268703             0.00964967443            0.000414661311           
       1.271344             0.00928674332            0.000415648589           
       1.273984             0.00963093147            0.000416673227           
       1.276624             0.00943821009            0.000409966459           
       1.279265              0.0104839711            0.000433025612           
       1.281905              0.0102395413            0.000430585717           
       1.284546             0.00981180309            0.000416891711           
       1.287186             0.00980210469            0.000417085929           
       1.289826             0.00973603133            0.000417833392           
       1.292467             0.00980649121            0.000411858135           
       1.295107              0.0099682123            0.000422559474           
       1.297747             0.00981363381            0.000408273067           
       1.300388             0.00982240143            0.000418944224           
       1.303028             0.00984853203             0.00040883354           
       1.305669              0.0096663891            0.000410268374           
       1.308309             0.00943102439            0.000399149583           
       1.310949              0.0104061011            0.000424502098           
       1.313590             0.00995870356            0.000408849639           
       1.316230              0.0105850962            0.000429098918           
       1.318871             0.00974108606            0.000402755879           
       1.321511              0.0103177216             0.00041658253           
       1.324151              0.0101124965            0.000414048343           
       1.326792              0.0098321164            0.000404960825           
       1.329432               0.010426402            0.000419195161           
       1.332072             0.00970674935            0.000397533976           
       1.334713              0.0108275981            0.000425065983           
       1.337353              0.0103627547            0.000409444949           
       1.339994              0.0103578412             0.00041517844           
       1.342634             0.00978129124            0.000394375115           
       1.345274              0.0110283138            0.000424235324           
       1.347915              0.0115853267            0.000435972884           
       1.350555              0.0110296758             0.00042372754           
       1.353195              0.0110270257            0.000415571528           
       1.355836              0.0107408158            0.000417881456           
       1.358476              0.0107939521            0.000417735653           
       1.361117             0.00965333573            0.000385137978           
       1.363757             0.00995798474            0.000404131634           
       1.366397              0.0105180645            0.000402407145           
       1.369038             0.00956875002            0.000391907831           
       1.371678             0.00985655473            0.000389726398           
       1.374319              0.0104167139            0.000403825252           
       1.376959              0.0104607362            0.000399106492           
       1.379599               0.010338065             0.00040449309           
       1.382240              0.0104479359            0.000398913358           
       1.384880              0.0108489768            0.000411488309           
       1.387520              0.0103935765            0.000398050345           
       1.390161              0.0108201092            0.000405031982           
       1.392801              0.0105882587            0.000403057086           
       1.395442             0.00966679064            0.000381129069           
       1.398082              0.0105869193            0.000400220548           
       1.400722             0.00992232673            0.000385704702           
       1.403363              0.0104180113            0.000398889094           
       1.406003               0.010491784             0.00039046952           
       1.408644              0.0106332897            0.000401346391           
       1.411284              0.0100772223            0.000388568557           
       1.413924              0.0108353568            0.000397950536           
       1.416565              0.0104929853            0.000391152569           
       1.419205             0.00972083631            0.000380194257           
       1.421845              0.0105290115            0.000390708704           
       1.424486              0.0102759684            0.000387689235           
       1.427126              0.0103485244            0.000388810044           
       1.429767              0.0100638841             0.00037751704           
       1.432407              0.0112694355            0.000409552695           
       1.435047               0.010045308            0.000375050209           
       1.437688              0.0099450166            0.000381437157           
       1.440328              0.0104875654            0.000384112897           
       1.442968             0.00946899013            0.000370036075           
       1.445609             0.00985805763            0.000371351518           
       1.448249              0.0103734851            0.000383398952           
       1.450890              0.0104194401            0.000381506211           
       1.453530              0.0104598206            0.000385076093           
       1.456170              0.0103230027            0.000381688086           
       1.458811             0.00998046887            0.000372316328           
       1.461451              0.0102709486            0.000380471966           
       1.464092              0.0104896418            0.000381149648           
       1.466732              0.0109152023            0.000386419572           
       1.469372              0.0102135658            0.000372644643           
       1.472013              0.0102563318            0.000380104888           
       1.474653              0.0105067735            0.000375218295           
       1.477293             0.00988923806            0.000370151975           
       1.479934             0.00893440694            0.000348146505           
       1.482574              0.0102165234            0.000371370663           
       1.485215             0.00946936557             0.00035845392           
       1.487855              0.0107170424            0.000381259472           
       1.490495              0.0101366061            0.000369993156           
       1.493136              0.0109336358            0.000379224718           
       1.495776               0.010089104            0.000370635614           
       1.498416              0.0100760783             0.00036320053           
       1.501057              0.0100702045            0.000366217743           
       1.503697              0.0100260643              0.0003619009           
       1.506338             0.00926476629            0.000350448178           
       1.508978             0.00975432792            0.000357464918           
       1.511618             0.00969087953            0.000356120366           
       1.514259              0.0100590443            0.000363477244           
       1.516899              0.0098425537            0.000359712026           
       1.519540             0.00988246552            0.000358440381           
       1.522180             0.00976226764             0.00035180489           
       1.524820             0.00999009056            0.000363074296           
       1.527461             0.00971909537             0.00035019379           
       1.530101             0.00915371211            0.000343369244           
       1.532741             0.00950537184            0.000348244934           
       1.535382              0.0100757668            0.000359330987           
       1.538022             0.00982577917            0.000351705833           
       1.540663              0.0102307746            0.000362272671           
       1.543303              0.0102424053            0.000357967747           
       1.545943             0.00956244528            0.000347819992           
       1.548584             0.00960963268            0.000350533843           
       1.551224             0.00959809307            0.000341342037           
       1.553864             0.00979566572            0.000353845656           
       1.556505             0.00981430502            0.000348733762           
       1.559145              0.0101417794            0.000355323673           
       1.561786             0.00979619595             0.00034763529           
       1.564426              0.0095089914            0.000342192039           
       1.567066             0.00910299128            0.000332193948           
       1.569707             0.00947094511            0.000343746841           
       1.572347              0.0092750524            0.000335759833           
       1.574988             0.00985337992            0.000344700313           
       1.577628             0.00890927016            0.000335150388           
       1.580268             0.00957765152            0.000335502723           
       1.582909             0.00978036413            0.000345375945           
       1.585549             0.00864238545             0.00032162788           
       1.588189             0.00954346483             0.00034175404           
       1.590830             0.00861626385             0.00031915412           
       1.593470             0.00897287267            0.000328351408           
       1.596111              0.0088322662            0.000322953705           
       1.598751             0.00898049332            0.000328981472           
       1.601391             0.00836326579            0.000315445032           
       1.604032             0.00904065501            0.000325232348           
       1.606672             0.00915214196            0.000333817657           
       1.609312             0.00899547902            0.000321100819           
       1.611953             0.00824371979            0.000311845627           
       1.614593             0.00836860204            0.000311809078           
       1.617234             0.00843654733            0.000314846933           
       1.619874             0.00846850425            0.000311731735           
       1.622514             0.00881588376            0.000320874104           
       1.625155             0.00824328955            0.000309511407           
       1.627795             0.00836342941             0.00030860833           
       1.630436             0.00799991374            0.000304860799           
       1.633076             0.00832615459             0.00030943472           
       1.635716             0.00901132459            0.000321353554           
       1.638357             0.00882186604            0.000316606554           
       1.640997             0.00850549045            0.000313308723           
       1.643637             0.00862097891            0.000309571416           
       1.646278             0.00845711486            0.000311204728           
       1.648918             0.00812256179            0.000301055269           
       1.651559             0.00875019984            0.000316399028           
       1.654199             0.00788387192             0.00029621139           
       1.656839             0.00786116354            0.000295704846           
       1.659480             0.00833319164             0.00030713471           
       1.662120             0.00893863868            0.000313833903           
       1.664761              0.0085598116            0.000310436782           
       1.667401             0.00837746074            0.000304251322           
       1.670041             0.00814759483            0.000300391539           
       1.672682             0.00886673181            0.000310419346           
       1.675322             0.00785054918            0.000297254648           
       1.677962             0.00839009412            0.000301196665           
       1.680603             0.00840854435            0.000304203699           
       1.683243             0.00820445771            0.000298266371           
       1.685884              0.0079360924            0.000294464006           
       1.688524             0.00834942706            0.000301185175           
       1.691164             0.00818867639            0.000297505095           
       1.693805             0.00871605494            0.000309417867           
       1.696445             0.00757765061            0.000284500311           
       1.699085             0.00815459778            0.000296310574           
       1.701726             0.00848570024            0.000298334555           
       1.704366              0.0085869063            0.000307410661           
       1.707007              0.0084911206            0.000299168029           
       1.709647             0.00818866257            0.000297441833           
       1.712287             0.00789339657            0.000287149647           
       1.714928              0.0085991647            0.000302725931           
       1.717568              0.0082703325            0.000294151383           
       1.720209             0.00822038301            0.000295072685           
       1.722849             0.00776905258            0.000287317974           
       1.725489             0.00779789955            0.000283262882           
       1.728130             0.00840744708            0.000300113147           
       1.730770             0.00832587683            0.000292340921           
       1.733410             0.00845167333            0.000298407782           
       1.736051             0.00789900953            0.000284008387           
       1.738691             0.00861723266            0.000299667189           
       1.741332              0.0084991796            0.000295775427           
       1.743972             0.00824474075            0.000291422542           
       1.746612             0.00841050549            0.000294405277           
       1.749253             0.00849594912            0.000297175703           
       1.751893             0.00843041169             0.00029425127           
       1.754533             0.00822730903             0.00028669556           
       1.757174             0.00828244418            0.000293032773           
       1.759814             0.00755234311            0.000275553383           
       1.762455             0.00806118465            0.000287108478           
       1.765095             0.00830456744            0.000287318077           
       1.767735             0.00872679179            0.000299536281           
       1.770376             0.00845763715            0.000290408968           
       1.773016               0.007538577            0.000274609183           
       1.775657             0.00810991218            0.000285408763           
       1.778297             0.00878488459            0.000298501595           
       1.780937             0.00846311635            0.000291616723           
       1.783578             0.00815710764            0.000284951693           
       1.786218             0.00847403398            0.000295069142           
       1.788858             0.00805384751            0.000280513608           
       1.791499             0.00893639148             0.00030092937           
       1.794139             0.00889695445            0.000294719948           
       1.796780             0.00892187865            0.000296886111           
       1.799420             0.00895681759            0.000297088138           
       1.802060             0.00898622155            0.000293915392           
       1.804701             0.00931974544            0.000303335667           
       1.807341             0.00898685814            0.000294990866           
       1.809981             0.00939593688            0.000303633298           
       1.812622              0.0091653279            0.000298250194           
       1.815262             0.00972838637            0.000308370546           
       1.817903             0.00811884405             0.00027822789           
       1.820543             0.00905823454            0.000297516014           
       1.823183             0.00888059684            0.000290045362           
       1.825824              0.0082915632            0.000284475908           
       1.828464             0.00816567238            0.000281441878           
       1.831105             0.00809227561            0.000281258843           
       1.833745              0.0085067746            0.000288192155           
       1.836385             0.00831707043            0.000283852338           
       1.839026             0.00882570443            0.000296798618           
       1.841666             0.00905380704            0.000296706243           
       1.844306             0.00852201433            0.000291494721           
       1.846947              0.0089596089            0.000295044074           
       1.849587             0.00828621176            0.000287588204           
       1.852228             0.00915766743            0.000299117392           
       1.854868             0.00968350983             0.00031322667           
       1.857508              0.0086361484            0.000290340918           
       1.860149             0.00897334832            0.000298327067           
       1.862789             0.00819046414            0.000286277445           
       1.865429             0.00808090364             0.00028521359           
       1.868070             0.00888134299            0.000297972577           
       1.870710              0.0088197399            0.000297746033           
       1.873351             0.00875920636            0.000298616799           
       1.875991             0.00902037947            0.000304675244           
       1.878631             0.00859206442            0.000294590043           
       1.881272             0.00886259805            0.000298491051           
       1.883912             0.00872362515            0.000299614601           
       1.886553             0.00879940677            0.000297303555           
       1.889193              0.0089429138            0.000303180302           
       1.891833             0.00874370729            0.000296373048           
       1.894474             0.00877387535            0.000299233574           
       1.897114             0.00934852522            0.000306481538           
       1.899754             0.00933178481            0.000309641073           
       1.902395             0.00889102024            0.000302304479           
       1.905035             0.00910798813            0.000304771745           
       1.907676             0.00830515503            0.000291368062           
       1.910316             0.00898051979            0.000304915253           
       1.912956             0.00834531916            0.000293922361           
       1.915597             0.00862032251            0.000295611586           
       1.918237              0.0092458765            0.000310796919           
       1.920878             0.00909842962            0.000302852453           
       1.923518             0.00895017214            0.000308355392           
       1.926158             0.00852857005            0.000294088374           
       1.928799             0.00849841117            0.000297469002           
       1.931439             0.00789504278            0.000284417072           
       1.934079             0.00838733735            0.000296119083           
       1.936720             0.00821637695            0.000291360598           
       1.939360             0.00854113422            0.000299925937           
       1.942001             0.00839126768            0.000296139332           
       1.944641             0.00934832395            0.000311224452           
       1.947281             0.00795903153            0.000288556007           
       1.949922             0.00864434835            0.000301099038           
       1.952562             0.00822794595            0.000296285294           
       1.955202             0.00825291162            0.000289279078           
       1.957843             0.00856998989            0.000304148091           
       1.960483             0.00884752342            0.000304104351           
       1.963124             0.00845284334            0.000297023636           
       1.965764             0.00824445771            0.000293444443           
       1.968404             0.00801390862            0.000294485919           
       1.971045             0.00835694355            0.000293184339           
       1.973685             0.00798569925            0.000291946525           
       1.976326             0.00808047949            0.000292393556           
       1.978966             0.00824972073            0.000296837717           
       1.981606             0.00907831368            0.000308095025           
       1.984247             0.00796154084            0.000291038975           
       1.986887             0.00838326269            0.000301440732           
       1.989527             0.00822146519            0.000292298507           
       1.992168             0.00853568112            0.000305017599           
       1.994808             0.00818405807             0.00029519503           
       1.997449             0.00803997854            0.000292155982           
       2.000089             0.00841680847            0.000297164021           
       2.002729             0.00793243686            0.000295097221           
       2.005370             0.00867551939            0.000302743182           
       2.008010             0.00802169256            0.000294976677           
       2.010650             0.00781911571            0.000290395127           
       2.013291             0.00763763831            0.000288638998           
       2.015931             0.00770356596            0.000287807357           
       2.018572             0.00786049479             0.00029458517           
       2.021212             0.00796195359            0.000293819419           
       2.023852             0.00760476987            0.000288661712           
       2.026493             0.00824226775             0.00029920035           
       2.029133             0.00733759431            0.000280149524           
       2.031774             0.00772986303            0.000290328917           
       2.034414              0.0076868546            0.000287792301           
       2.037054             0.00820584999            0.000301098442           
       2.039695             0.00751469462            0.000282463636           
       2.042335             0.00817560171             0.00029963796           
       2.044975             0.00773008071            0.000289030783           
       2.047616             0.00755192872            0.000286904941           
       2.050256             0.00757247328            0.000283915493           
       2.052897             0.00770560666            0.000294882748           
       2.055537             0.00715609602            0.000276426112           
       2.058177             0.00784256207             0.00029193715           
       2.060818             0.00760507673            0.000288346075           
       2.063458             0.00757638989             0.00028819813           
       2.066098             0.00740814779             0.00028371561           
       2.068739             0.00758858227            0.000290143964           
       2.071379             0.00761813343            0.000286415262           
       2.074020             0.00776478099            0.000293118537           
       2.076660             0.00746234283             0.00028540554           
       2.079300             0.00745467424            0.000285217528           
       2.081941             0.00739097029            0.000285722796           
       2.084581             0.00761558536            0.000290246765           
       2.087222             0.00745366415            0.000287340213           
       2.089862              0.0069278036             0.00027356606           
       2.092502             0.00761771936            0.000292076888           
       2.095143             0.00702996085            0.000276572822           
       2.097783             0.00762169845            0.000292359848           
       2.100423             0.00720372862             0.00027878039           
       2.103064             0.00775319785            0.000294210661           
       2.105704             0.00762536957            0.000290659008           
       2.108345             0.00781849009            0.000295667821           
       2.110985             0.00751531776            0.000285807075           
       2.113625             0.00767716109            0.000293419452           
       2.116266             0.00739233032            0.000285793851           
       2.118906             0.00762026857            0.000289955563           
       2.121546             0.00703226862             0.00027832298           
       2.124187             0.00788251674            0.000298744306           
       2.126827             0.00801215228            0.000296467331           
       2.129468             0.00694052041            0.000278809092           
       2.132108              0.0073265438            0.000285864939           
       2.134748             0.00754886189            0.000289076145           
       2.137389             0.00738260947            0.000288269574           
       2.140029             0.00685731954            0.000277150144           
       2.142670             0.00750150076            0.000290349472           
       2.145310             0.00749401402            0.000291313269           
       2.147950             0.00751927214            0.000292931849           
       2.150591             0.00740745035            0.000288079145           
       2.153231             0.00750509815            0.000294258735           
       2.155871             0.00750668664            0.000290039674           
       2.158512                 0.0076321            0.000297722243           
       2.161152              0.0072637125            0.000283192783           
       2.163793             0.00715197443            0.000285578515           
       2.166433             0.00736420162            0.000284759516           
       2.169073             0.00753022839            0.000294674593           
       2.171714             0.00776027163            0.000293051678           
       2.174354             0.00778011372             0.00029790993           
       2.176995             0.00722072352            0.000284619597           
       2.179635             0.00723959776             0.00029038485           
       2.182275             0.00771148902            0.000293750106           
       2.184916             0.00738156896            0.000293471785           
       2.187556             0.00724507797            0.000286065116           
       2.190196             0.00779027771            0.000301295707           
       2.192837             0.00738826667            0.000290205578           
       2.195477             0.00701142329            0.000285434705           
       2.198118             0.00726539305            0.000285194048           
       2.200758             0.00683385844            0.000280890042           
       2.203398             0.00692169193            0.000278001408           
       2.206039             0.00725746871            0.000289015648           
       2.208679             0.00713280728            0.000283717931           
       2.211319             0.00733501704            0.000289065671           
       2.213960             0.00805319701            0.000299666221           
       2.216600             0.00798207486             0.00030536939           
       2.219241             0.00795842386            0.000300483657           
       2.221881             0.00729605015            0.000289207202           
       2.224521             0.00714886733            0.000285282319           
       2.227162             0.00755160353            0.000297813393           
       2.229802             0.00745432987            0.000291086094           
       2.232443             0.00699148789            0.000283012742           
       2.235083             0.00738234189            0.000289072153           
       2.237723             0.00717067695            0.000287081213           
       2.240364             0.00742129965            0.000290569512           
       2.243004             0.00711722461            0.000285414124           
       2.245644             0.00716043116            0.000285618058           
       2.248285             0.00774591901            0.000298994154           
       2.250925             0.00653911824            0.000273432548           
       2.253566             0.00770298361            0.000297495734           
       2.256206             0.00684378632            0.000279573892           
       2.258846             0.00707051024            0.000284169617           
       2.261487             0.00698787162            0.000282992773           
       2.264127             0.00692338723            0.000284349236           
       2.266767             0.00746915172            0.000290570527           
       2.269408             0.00730755121            0.000290823501           
       2.272048             0.00723270581            0.000287550557           
       2.274689             0.00766016906            0.000297089572           
       2.277329             0.00625430676            0.000268089835           
       2.279969             0.00705536552            0.000285604371           
       2.282610             0.00717402254            0.000285187453           
       2.285250             0.00684005228            0.000282849872           
       2.287891             0.00772241337            0.000297507576           
       2.290531             0.00824198409            0.000308868611           
       2.293171             0.00755847203            0.000295769566           
       2.295812             0.00695520448            0.000282215097           
       2.298452             0.00724766131            0.000289932501           
       2.301092             0.00753502567              0.0002975023           
       2.303733             0.00707290101            0.000282533885           
       2.306373             0.00765523768            0.000301124249           
       2.309014             0.00670788548            0.000276444908           
       2.311654             0.00700974088             0.00028527846           
       2.314294             0.00770259436            0.000298392122           
       2.316935             0.00717120171            0.000289053267           
       2.319575             0.00695888492            0.000283675888           
       2.322215             0.00720675196            0.000292797461           
       2.324856             0.00757832991            0.000292710856           
       2.327496             0.00711648169            0.000290602948           
       2.330137             0.00698421776            0.000282580365           
       2.332777             0.00699665808            0.000285925305           
       2.335417             0.00724872873            0.000290156599           
       2.338058             0.00734048723             0.00029315593           
       2.340698             0.00705957431            0.000284661224           
       2.343339              0.0072095165            0.000293157882           
       2.345979             0.00726334316            0.000288378534           
       2.348619             0.00672412002            0.000282707566           
       2.351260             0.00661324328            0.000274407218           
       2.353900             0.00703682469            0.000289054692           
       2.356540             0.00691688288            0.000282639239           
       2.359181             0.00691733212            0.000286428034           
       2.361821             0.00731645695            0.000290986301           
       2.364462             0.00627145758            0.000273907982           
       2.367102             0.00712374568            0.000283485409           
       2.369742             0.00721870504            0.000295595293           
       2.372383             0.00725382268            0.000287675624           
       2.375023             0.00684792981            0.000286793655           
       2.377663             0.00674280494             0.00027853624           
       2.380304             0.00701629668             0.00028807024           
       2.382944             0.00694841212            0.000283869316           
       2.385585             0.00680895427            0.000283662723           
       2.388225              0.0065607079            0.000277185635           
       2.390865             0.00733728907            0.000293882596           
       2.393506             0.00712980971            0.000288362622           
       2.396146             0.00655996208            0.000277515824           
       2.398787             0.00730593494             0.00029312624           
       2.401427             0.00683249835            0.000281748428           
       2.404067              0.0069542627            0.000288586395           
       2.406708             0.00653828839            0.000276305221           
       2.409348             0.00700159645            0.000288078233           
       2.411988             0.00749112942            0.000297027258           
       2.414629              0.0072648433            0.000293463738           
       2.417269             0.00701921467            0.000285840361           
       2.419910             0.00742832583            0.000297760652           
       2.422550              0.0065947841             0.00027629885           
       2.425190             0.00725480651             0.00029891973           
       2.427831             0.00752088223             0.00029290564           
       2.430471              0.0063021419             0.00027596275           
       2.433112             0.00665924025            0.000276979854           
       2.435752             0.00718529058            0.000294995783           
       2.438392             0.00684201967            0.000283024531           
       2.441033             0.00702398591            0.000288077469           
       2.443673             0.00689173537            0.000286114559           
       2.446313             0.00664745104            0.000279500861           
       2.448954             0.00730969382            0.000295664605           
       2.451594             0.00679480452            0.000283350861           
       2.454235             0.00739732332            0.000294726991           
       2.456875             0.00689416727            0.000285968246           
       2.459515             0.00794083251             0.00030738243           
       2.462156             0.00716376863            0.000290450594           
       2.464796             0.00777333923            0.000307892548           
       2.467436              0.0078454633            0.000302831729           
       2.470077             0.00774323853            0.000305000969           
       2.472717             0.00778728945            0.000302040117           
       2.475358             0.00808203552            0.000311189207           
       2.477998             0.00760645639            0.000300283952           
       2.480638             0.00774987396            0.000303838084           
       2.483279             0.00721414813            0.000294407685           
       2.485919             0.00655306586            0.000278629618           
       2.488560             0.00770382527            0.000303358327           
       2.491200             0.00713609886            0.000291566281           
       2.493840              0.0069724018            0.000286633577           
       2.496481             0.00727061469            0.000296526706           
       2.499121             0.00771730008             0.00030143222           
       2.501761             0.00750756354            0.000302356378           
       2.504402             0.00735969151            0.000293626876           
       2.507042             0.00717458662            0.000294730102           
       2.509683             0.00757935777            0.000300171234           
       2.512323              0.0072589376            0.000294908033           
       2.514963              0.0116241554            0.000373932866           
       2.517604              0.0284939483            0.000583157259           
       2.520244              0.0425748925            0.000712986153           
       2.522884             0.00954447852            0.000336844426           
       2.525525             0.00934810884            0.000336099523           
       2.528165               0.026733074             0.00056577332           
       2.530806              0.0250819417             0.00054596562           
       2.533446              0.0115018234            0.000373001419           
       2.536086              0.0097832663             0.00034112125           
       2.538727              0.0125107793             0.00038822575           
       2.541367              0.0125740901              0.0003880939           
       2.544008             0.00835686462            0.000316656175           
       2.546648             0.00765535074            0.000303418249           
       2.549288             0.00748300686            0.000300026582           
       2.551929             0.00702955201            0.000291754571           
       2.554569              0.0069530859            0.000287511828           
       2.557209             0.00660237639            0.000283332594           
       2.559850             0.00713072549            0.000291065213           
       2.562490             0.00677221576            0.000285719289           
       2.565131             0.00751133403            0.000301430831           
       2.567771             0.00728452944            0.000295271813           
       2.570411              0.0074104639            0.000301437264           
       2.573052               0.007271756            0.000295117249           
       2.575692             0.00705322095            0.000291419917           
       2.578332             0.00677268653            0.000284722079           
       2.580973             0.00726543657            0.000297288827           
       2.583613             0.00764121941            0.000302101768           
       2.586254             0.00697667657            0.000291220202           
       2.588894             0.00656713326            0.000281036189           
       2.591534             0.00719493942            0.000294703981           
       2.594175             0.00715395572            0.000295569246           
       2.596815             0.00673257584            0.000284066482           
       2.599456             0.00733769526            0.000298984054           
       2.602096             0.00675574851            0.000285809487           
       2.604736             0.00725642497            0.000296987914           
       2.607377             0.00704114199            0.000291430494           
       2.610017             0.00721732471            0.000294950952           
       2.612657             0.00689984813            0.000290428006           
       2.615298             0.00643239018            0.000277674406           
       2.617938             0.00722041966            0.000296765643           
       2.620579             0.00714467072            0.000292793443           
       2.623219             0.00660258042            0.000285969043           
       2.625859             0.00689360429             0.00028727872           
       2.628500             0.00675929482            0.000289012767           
       2.631140             0.00710812473            0.000291150097           
       2.633780             0.00730482637            0.000298942014           
       2.636421             0.00709636714            0.000291964477           
       2.639061             0.00717156774            0.000297016673           
       2.641702             0.00750400045            0.000300574823           
       2.644342             0.00703399485            0.000293396698           
       2.646982             0.00720156081            0.000296618786           
       2.649623             0.00739533934            0.000302384936           
       2.652263             0.00733214817            0.000298694405           
       2.654904             0.00689489545            0.000291223922           
       2.657544             0.00686636069            0.000288575981           
       2.660184               0.007437333            0.000300718845           
       2.662825             0.00712247286            0.000294989906           
       2.665465             0.00704090644            0.000293838384           
       2.668105             0.00705389173             0.00029422567           
       2.670746             0.00698329427            0.000290272552           
       2.673386             0.00670093822            0.000287789818           
       2.676027             0.00747636108            0.000301401228           
       2.678667             0.00723877357            0.000298115324           
       2.681307             0.00702023242            0.000291272167           
       2.683948             0.00747475453            0.000303538324           
       2.686588              0.0066949299            0.000284632399           
       2.689229             0.00704509488            0.000294601581           
       2.691869              0.0070743867            0.000292266706           
       2.694509             0.00748200131            0.000304690709           
       2.697150             0.00687612094            0.000287431698           
       2.699790             0.00736774264            0.000303709925           
       2.702430             0.00707608785            0.000291931407           
       2.705071             0.00717169298            0.000297919189           
       2.707711             0.00687281828            0.000288753318           
       2.710352              0.0063804579            0.000279801736           
       2.712992             0.00654787728            0.000284370452           
       2.715632             0.00701854873            0.000292738889           
       2.718273             0.00677158956            0.000288497104           
       2.720913             0.00658201395            0.000284904967           
       2.723553             0.00677436595            0.000288033634           
       2.726194             0.00648689935            0.000283215454           
       2.728834             0.00687055069            0.000288879222           
       2.731475             0.00705656023            0.000295322259           
       2.734115             0.00675057952            0.000287127371           
       2.736755             0.00694726015            0.000293205615           
       2.739396              0.0070981758            0.000294805948           
       2.742036              0.0067451035            0.000289341948           
       2.744677             0.00671780437            0.000289178011           
       2.747317             0.00786598724            0.000311396105           
       2.749957             0.00738807587             0.00030397752           
       2.752598             0.00685660005            0.000293721723           
       2.755238             0.00669152308            0.000290033639           
       2.757878             0.00724713166            0.000300975167           
       2.760519             0.00746874164            0.000302316192           
       2.763159             0.00673813579            0.000291818172           
       2.765800             0.00717498702             0.00029602824           
       2.768440             0.00711529792            0.000298677792           
       2.771080             0.00664017912            0.000286102047           
       2.773721             0.00639604099            0.000284238009           
       2.776361             0.00675935958            0.000289061073           
       2.779001             0.00688411804            0.000294782903           
       2.781642              0.0065550451            0.000285688279           
       2.784282             0.00673284792             0.00028963795           
       2.786923             0.00656272886            0.000283780604           
       2.789563             0.00616507535            0.000275601272           
       2.792203             0.00704254058            0.000296437012           
       2.794844             0.00682929241            0.000290586193           
       2.797484             0.00633025284            0.000280161942           
       2.800125             0.00628827938            0.000278870731           
       2.802765             0.00688611853            0.000297236088           
       2.805405             0.00661027874            0.000287018204           
       2.808046             0.00654333045            0.000289939716           
       2.810686             0.00699018897            0.000296483336           
       2.813326              0.0069239705            0.000298726424           
       2.815967              0.0073730923            0.000306319944           
       2.818607             0.00699184296            0.000301277067           
       2.821248             0.00694352805            0.000296490725           
       2.823888             0.00625791222            0.000286005969           
       2.826528             0.00682971002            0.000297004237           
       2.829169               0.006817518            0.000295428954           
       2.831809              0.0064119878            0.000286758696           
       2.834449             0.00638392818            0.000281136199           
       2.837090             0.00636519049            0.000282412698           
       2.839730             0.00678108458            0.000289422946           
       2.842371             0.00723948235            0.000301128989           
       2.845011              0.0067427477            0.000289966336           
       2.847651             0.00639555932             0.00028292103           
       2.850292             0.00640357197            0.000281489678           
       2.852932             0.00696492672            0.000294095036           
       2.855573             0.00697475124            0.000296887119           
       2.858213             0.00726490744             0.00029959985           
       2.860853             0.00683709925            0.000292820205           
       2.863494             0.00648213534            0.000285804206           
       2.866134             0.00687962663            0.000298566707           
       2.868774             0.00708224333            0.000298294308           
       2.871415             0.00677923979            0.000294732017           
       2.874055             0.00699589289            0.000300887635           
       2.876696             0.00669472184            0.000291689414           
       2.879336             0.00651107118            0.000289570263           
       2.881976             0.00629498594            0.000284490347           
       2.884617             0.00667842256            0.000291398827           
       2.887257             0.00682334264            0.000292489791           
       2.889897             0.00668159597            0.000292753325           
       2.892538             0.00749270661            0.000307864375           
       2.895178             0.00673252741            0.000288853468           
       2.897819             0.00634556557            0.000283313692           
       2.900459             0.00645713381             0.00028342722           
       2.903099             0.00690412267             0.00029460332           
       2.905740             0.00643623693            0.000281270619           
       2.908380             0.00684153409            0.000293857209           
       2.911021             0.00694149518            0.000296558875           
       2.913661             0.00633070938            0.000280094628           
       2.916301             0.00685561386             0.00029562181           
       2.918942             0.00636611672            0.000280574869           
       2.921582             0.00661712122            0.000289053857           
       2.924222             0.00703966021            0.000296410619           
       2.926863             0.00701161709            0.000296605397           
       2.929503             0.00692388668            0.000298015906           
       2.932144             0.00701113906            0.000294969317           
       2.934784             0.00735220393            0.000303342365           
       2.937424             0.00623596242            0.000279884322           
       2.940065             0.00647017494            0.000285323904           
       2.942705             0.00667041936            0.000290585767           
       2.945346              0.0070431706            0.000296830912           
       2.947986             0.00726854525            0.000302597163           
       2.950626               0.007549348             0.00030933504           
       2.953267             0.00997358925            0.000351772408           
       2.955907              0.0101897783            0.000360265394           
       2.958547             0.00898897262            0.000334903013           
       2.961188             0.00786364889            0.000315973701           
       2.963828              0.0075890903            0.000308649494           
       2.966469             0.00668517012            0.000289757772           
       2.969109              0.0067549953              0.0002927567           
       2.971749             0.00717911024            0.000300919512           
       2.974390             0.00807027157            0.000319925745           
       2.977030             0.00952444305            0.000346894645           
       2.979670             0.00912046848            0.000337269715           
       2.982311             0.00774834511            0.000313109504           
       2.984951             0.00778992398            0.000314760233           
       2.987592             0.00762979465            0.000310456922           
       2.990232              0.0070025952            0.000298182396           
       2.992872              0.0073757577             0.00030362998           
       2.995513             0.00834392201            0.000325480176           
       2.998153             0.00880294004            0.000336469871           
       3.000794              0.0127260954            0.000398670245           
       3.003434              0.0361632431            0.000679173504           
       3.006074              0.0495438621            0.000797515956           
       3.008715              0.0253890132            0.000575256928           
       3.011355              0.0211442171            0.000530429839           
       3.013995              0.0191024299            0.000501703864           
       3.016636              0.0296412859             0.00062613097           
       3.019276               0.131925437             0.00135250037           
       3.021917               0.321176586             0.00207451354           
       3.024557               0.133964958             0.00135049614           
       3.027197               0.105349155              0.0012177045           
       3.029838              0.0928945235             0.00113799328           
       3.032478              0.0667789446             0.00097062574           
       3.035118               0.045164176            0.000802340702           
       3.037759               0.093860531             0.00115869064           
       3.040399                0.12446459             0.00134955372           
       3.043040              0.0535922603            0.000894161727           
       3.045680              0.0617680251            0.000945162029           
       3.048320               0.139199181             0.00144163874           
       3.050961               0.248114116             0.00194400336           
       3.053601              0.0668119443             0.00100432314           
       3.056242              0.0535987079            0.000905324575           
       3.058882               0.211893106             0.00182683134           
       3.061522               0.134485292              0.0014452999           
       3.064163              0.0225591336            0.000593022702           
       3.066803              0.0283760449            0.000677959673           
       3.069443              0.0381225515            0.000780578804           
       3.072084               0.074164312             0.00109842937           
       3.074724              0.0226597456            0.000610743861           
       3.077365              0.0110321362            0.000425843827           
       3.080005             0.00989819205            0.000407838287           
       3.082645             0.00942351544            0.000399965194           
       3.085286             0.00835314299            0.000376634315           
       3.087926             0.00821144021             0.00037580196           
       3.090566             0.00782483294            0.000370627415           
       3.093207              0.0077660056            0.000365242359           
       3.095847             0.00720619278            0.000359206714           
       3.098488             0.00731723144            0.000361307283           
       3.101128             0.00868963733            0.000395879937           
       3.103768             0.00968525784            0.000420298759           
       3.106409              0.0107377795             0.00044551152           
       3.109049              0.0107023335            0.000448233213           
       3.111690              0.0117221842            0.000467256869           
       3.114330              0.0121323774            0.000479591554           
       3.116970              0.0132068827            0.000507339591           
       3.119611              0.0164240007             0.00056208624           
       3.122251              0.0124162632             0.00049272109           
       3.124891             0.00997629122            0.000443806404           
       3.127532             0.00818942853            0.000409344984           
       3.130172             0.00849951071            0.000408443812           
       3.132813             0.00920672885            0.000433748745           
       3.135453             0.00853582528            0.000426455944           
       3.138093             0.00739852737            0.000387610227           
       3.140734             0.00739851711            0.000394823773           
       3.143374             0.00702744435            0.000390677464           
       3.146014             0.00628371906             0.00036674482           
       3.148655             0.00602591612            0.000361970381           
       3.151295             0.00720707429            0.000398992749           
       3.153936             0.00631347072            0.000378951852           
       3.156576             0.00661076771            0.000383320107           
       3.159216             0.00631822184            0.000377807564           
       3.161857             0.00651573626            0.000388374015           
       3.164497             0.00665693461            0.000400836808           
       3.167138             0.00603553577            0.000372513413           
       3.169778             0.00624912786             0.00038589198           
       3.172418             0.00591927388             0.00037776405           
       3.175059             0.00660275917            0.000404199533           
       3.177699              0.0064017699            0.000396428015           
       3.180339              0.0060887678            0.000390071043           
       3.182980             0.00591500267            0.000389654912           
       3.185620             0.00603007436            0.000397726113           
       3.188261             0.00594147974            0.000389621243           
       3.190901             0.00639228657            0.000410359439           
       3.193541             0.00612847181            0.000403126305           
       3.196182             0.00518130654            0.000378379943           
       3.198822             0.00535906813            0.000380151062           
       3.201463             0.00618972637            0.000413835227           
       3.204103             0.00662164557            0.000433730226           
       3.206743             0.00566062795            0.000404413277           
       3.209384             0.00601312853            0.000414956933           
       3.212024             0.00547571789            0.000397386751           
       3.214664             0.00565485361            0.000411531829           
       3.217305             0.00570794781            0.000423105466           
       3.219945             0.00551847647            0.000412545051           
       3.222586             0.00573867034            0.000423075899           
       3.225226             0.00576914974             0.00043375442           
       3.227866             0.00628990279            0.000456411775           
       3.230507             0.00566160952            0.000438183988           
       3.233147             0.00638361931             0.00045840396           
       3.235787             0.00700585748            0.000480356371           
       3.238428             0.00658181349            0.000473815103           
       3.241068             0.00615314827            0.000467415581           
       3.243709             0.00583590698            0.000452680137           
       3.246349             0.00612992037             0.00046134727           
       3.248989             0.00652382762             0.00048681807           
       3.251630             0.00469300633            0.000414723054           
       3.254270             0.00577148281            0.000474050816           
       3.256911             0.00558374649            0.000454594058           
       3.259551             0.00533599472             0.00045421434           
       3.262191             0.00629429274            0.000497856052           
       3.264832             0.00613549196            0.000496147748           
       3.267472             0.00520792939             0.00046359052           
       3.270112              0.0056084566            0.000482456605           
       3.272753              0.0060087029            0.000505512052           
       3.275393             0.00653810631            0.000530025587           
       3.278034             0.00617631465            0.000525646376           
       3.280674             0.00499915393            0.000474281117           
       3.283314             0.00597264342            0.000521271475           
       3.285955             0.00568105065            0.000517936744           
       3.288595             0.00523591915             0.00050277891           
       3.291235             0.00522196712            0.000505058127           
       3.293876             0.00637688415            0.000561425965           
       3.296516             0.00721090914            0.000609189155           
       3.299157             0.00553438835            0.000541760034           
       3.301797             0.00546587408            0.000538624965           
       3.304437             0.00524984989            0.000537768583           
       3.307078             0.00640772205            0.000599891128           
       3.309718              0.0055059677            0.000561631113           
       3.312359             0.00621909928             0.00060895584           
       3.314999             0.00536670792             0.00057162112           
       3.317639              0.0064315289            0.000632503416           
       3.320280             0.00584300185            0.000611673894           
       3.322920             0.00588891914            0.000623260263           
       3.325560             0.00524815992            0.000599737678           
       3.328201              0.0052804519            0.000604122966           
       3.330841             0.00538735545            0.000625048348           
       3.333482             0.00382007378             0.00053301721           
       3.336122             0.00593583882            0.000678866682           
       3.338762             0.00656680933            0.000720567722           
       3.341403             0.00527362795            0.000651722473           
       3.344043             0.00647028645            0.000749440292           
       3.346683             0.00527766729            0.000683721023           
       3.349324              0.0058083687            0.000728377312           
       3.351964             0.00478798132            0.000682570806           
       3.354605             0.00503364148            0.000707787478           
       3.357245             0.00493584631            0.000725513817           
       3.359885             0.00431399263            0.000678516862           
       3.362526             0.00559799633            0.000812445355           
       3.365166              0.0050027337            0.000758553613           
       3.367807             0.00430331019            0.000753106385           
       3.370447             0.00759213392             0.00100070318           
       3.373087             0.00583913483            0.000926219746           
       3.375728             0.00645439425            0.000966433787           
       3.378368             0.00517074017            0.000934707161           
       3.381008             0.00246390476            0.000639598971           
       3.383649             0.00500856378            0.000986895083           
       3.386289             0.00517262565             0.00100334196           
       3.388930             0.00461576799             0.00104091544           
       3.391570             0.00464071887             0.00104416267           
       3.394210             0.00315868222            0.000923021495           
       3.396851             0.00800789772             0.00159199312           
       3.399491              0.0061323047              0.0014184212           
       3.402131             0.00626692666             0.00169733848           
       3.404772               0.006676167             0.00175263241           
       3.407412             0.00341447018             0.00155530872           
       3.410053             0.00731662052             0.00237070219           
       3.412693             0.00436450872             0.00259051699           
       3.415333             0.00209948332             0.00220139106           
