################################################################################
# EDF_DataBlockID                     0.Image.Psd
# EDF_BinarySize                      2105344
# EDF_HeaderSize                      2560
# ByteOrder                           LowByteFirst
# DataType                            FloatValue
# Dim_1                               512
# Dim_2                               1028
# Image                               0
# HeaderID                            EH:000000:000000:000000
# Size                                2105344
# Center_1                            304.9000
# Center_2                            588.7000
# Comment                             Xenocs_Cell_Window - front_window_open_only
# DDummy                              0.6
# Date                                2025-10-20T07:58:56
# Delta                               21.910000
# Dummy                               -1.5
# ExposureTime                        360
# Gamma                               15.360000
# Intensity1                          8.85651e-10
# PSize_1                             7.5e-05
# PSize_2                             7.5e-05
# Pressure                            0.0326128
# SampleDistance                      0.115750
# SampleEnvKind                       large
# SampleEnvPN                         ElectroChemical cell
# SampleEnvSN                         1141
# Thickness                           0
# Wavelength                          1.541891e-10
# Wavelength                          1.54189e-10
# aux                                 0
# aux_dial                            0.002375
# beamx                               588.429
# beamx_dial                          588.429
# beamz                               657.855
# beamz_dial                          657.855
# det0x                               -0.000396875
# det0x_dial                          6.36905
# det0xvd                             -0.0005
# det0xvd_dial                        -0.0005
# det0y                               450.002
# det0y_dial                          481.635
# det0z                               0
# det0z_dial                          1.2295
# det0zvd                             0
# det0zvd_dial                        0
# mag                                 1.818
# mag_dial                            1.818
# om                                  0.2499
# om_dial                             -0.610199
# phi                                 -0.0120535
# phi_dial                            0
# ry                                  0.599993
# ry_dial                             0.599993
# s1bot                               0.8
# s1bot_dial                          -1.66094
# s1hl                                0.8
# s1hl_dial                           -0.608437
# s1hr                                0.8
# s1hr_dial                           0.970938
# s1top                               0.8
# s1top_dial                          -0.461562
# s2bot                               0.45
# s2bot_dial                          1.36109
# s2hl                                0.45
# s2hl_dial                           -0.83375
# s2hr                                0.45
# s2hr_dial                           -0.118594
# s2top                               0.45
# s2top_dial                          1.44734
# w2theta                             32
# w2theta_dial                        32
# waxsch                              19.2605
# waxsch_dial                         -32.7238
# waxsh                               137.085
# waxsh_dial                          -43.5335
# waxsth                              26.0607
# waxsth_dial                         -19.4068
# waxsz                               67.0407
# waxsz_dial                          -23.7962
# wind                                65.9854
# wind_dial                           66.0041
# wpsi                                124
# wpsi_dial                           124
# wstod                               115
# wstod_dial                          115
# x                                   0
# x_dial                              1.00969
# z                                   0
# z_dial                              13.3172
# CountCutoff                         6807993
# DetectorModel                       Dectris EIGER2 Si 500K, S/N E-01-0554
# ThresholdSetting                    4023.88989258
# Saturation                          0
# FlatField                           Corrected
# BackgroundReductionExtra            0.02
# BackgroundCorrectionConstant        0.0026712
# Detector                            0
# Monitor                             0
# Pil_Roi0                            0
# SumForIntensity1                    3.18834e+08
# TransmittedFlux                     885651
# det                                 0
# mon                                 0
# pilai0                              3.18834e+08
# pilai1                              683746
# pilct0                              5.51251e+08
# pilct1                              683746
# pilroi0                             0
# pilroi1                             0
# sec                                 1
# title                               20251017__1_00562.edf
# usaxs0                              0
# Operation                           Azimuthal average I(q)
# Error_model                         ErrorModel.poisson
# Geometrical_correction              True
# Transmission_correction             True
# Thickness_correction                False
# Binning mode                        Uniform
# Binning factor                      1.0
# Psi                                 0.0
# Omega                               0.2499
# MaskInvalidPixels                   True
# DetectorEdge                        3
# MaskFiles                           ['20251017__1_00233_mask.edf']
################################################################################
    q(A⁻¹)                Intensity(a.u.)            Sigma_I(a.u.)            
       0.690460             0.00778703818             0.00817635502           
       0.693100             0.00952606501             0.00404313372           
       0.695741             0.00230640695             0.00168072022           
       0.698381             0.00518920649             0.00235789303           
       0.701021              0.0104193107             0.00272682949           
       0.703662             0.00706188682             0.00207797923           
       0.706302              0.0100078238             0.00238905696           
       0.708942             0.00438619996             0.00140489808           
       0.711583             0.00532944884             0.00154832529           
       0.714223             0.00466908396             0.00126287721           
       0.716864             0.00384039627             0.00116875911           
       0.719504             0.00660908464             0.00141900692           
       0.722144             0.00860891387             0.00156413319           
       0.724785             0.00926181148             0.00159577046           
       0.727425             0.00574892521             0.00116614794           
       0.730065             0.00615401614             0.00124145561           
       0.732706             0.00757274825             0.00123838729           
       0.735346             0.00585369266             0.00117608043           
       0.737987             0.00858607875             0.00123284207           
       0.740627              0.0075977963             0.00127046186           
       0.743267             0.00638608289             0.00100189131           
       0.745908             0.00631508846             0.00106776629           
       0.748548             0.00465458214            0.000854982141           
       0.751189              0.0076175177             0.00108345893           
       0.753829             0.00746815313             0.00108246143           
       0.756469              0.0042547523            0.000768463058           
       0.759110             0.00633684843            0.000970032102           
       0.761750             0.00467960528             0.00076290812           
       0.764390                 0.0055207             0.00088949696           
       0.767031             0.00640046916             0.00086665481           
       0.769671             0.00561640851             0.00086098136           
       0.772312             0.00608271293            0.000816505826           
       0.774952             0.00599298439            0.000868857419           
       0.777592             0.00734294956             0.00087966496           
       0.780233             0.00569623033            0.000816775385           
       0.782873             0.00671360163            0.000810859162           
       0.785513             0.00749316393            0.000911264937           
       0.788154             0.00609472894            0.000754873659           
       0.790794             0.00516259968            0.000719050835           
       0.793435             0.00725768665            0.000818874617           
       0.796075             0.00714100038            0.000816556647           
       0.798715             0.00649090768             0.00077405728           
       0.801356             0.00711255145            0.000788591809           
       0.803996             0.00692346712            0.000790472474           
       0.806637             0.00647909839            0.000722828621           
       0.809277             0.00640946006             0.00075212178           
       0.811917             0.00739510456            0.000764494106           
       0.814558             0.00651198067            0.000734925449           
       0.817198             0.00698031955            0.000725513447           
       0.819838             0.00587436119            0.000694251809           
       0.822479             0.00729348241            0.000712894003           
       0.825119             0.00590957933            0.000689356558           
       0.827760             0.00729118332            0.000709509453           
       0.830400              0.0060854351            0.000682954442           
       0.833040               0.006092267            0.000637748758           
       0.835681             0.00688878681            0.000710177062           
       0.838321             0.00709613004            0.000674641854           
       0.840961             0.00802336469            0.000749822188           
       0.843602             0.00649499411            0.000635480188           
       0.846242             0.00549573053            0.000605193543           
       0.848883             0.00601373723            0.000615837839           
       0.851523             0.00667239392            0.000653548132           
       0.854163             0.00664640505            0.000644696211           
       0.856804             0.00773140551            0.000677538519           
       0.859444             0.00767208991            0.000679787133           
       0.862085             0.00722119561            0.000649915416           
       0.864725             0.00767222556            0.000667445152           
       0.867365             0.00632542352            0.000601697669           
       0.870006             0.00702570374            0.000642977684           
       0.872646             0.00713295481            0.000619671124           
       0.875286              0.0070332045            0.000636288999           
       0.877927             0.00755807268            0.000631543747           
       0.880567             0.00681958039            0.000611616495           
       0.883208              0.0072637424             0.00061299009           
       0.885848             0.00779568086            0.000651507424           
       0.888488             0.00704840726            0.000589028528           
       0.891129             0.00675301666            0.000606060993           
       0.893769             0.00672995703            0.000571899285           
       0.896410             0.00725247192            0.000611973016           
       0.899050             0.00721646587            0.000588595311           
       0.901690             0.00726287882            0.000602810652           
       0.904331             0.00740701147             0.00058750903           
       0.906971             0.00687794916            0.000584591947           
       0.909611              0.0081989421             0.00061262883           
       0.912252             0.00705499471            0.000578133201           
       0.914892             0.00742352364             0.00057801984           
       0.917533             0.00696282759             0.00057242821           
       0.920173             0.00677445841            0.000541622507           
       0.922813             0.00709410034            0.000579204311           
       0.925454             0.00686490115            0.000540746498           
       0.928094             0.00691873866            0.000554515154           
       0.930734             0.00706969922            0.000547154536           
       0.933375             0.00680916253            0.000548424817           
       0.936015             0.00727038652            0.000542222757           
       0.938656             0.00791584137            0.000589511898           
       0.941296             0.00747687887            0.000552306184           
       0.943936             0.00743790908            0.000560785922           
       0.946577             0.00741439155            0.000539217019           
       0.949217               0.006788052            0.000534160082           
       0.951858             0.00757119275             0.00053332084           
       0.954498              0.0075415048            0.000559975576           
       0.957138             0.00684015925             0.00051258231           
       0.959779             0.00747413739            0.000547529983           
       0.962419             0.00695396411            0.000508431664           
       0.965059             0.00772059309            0.000550941694           
       0.967700             0.00809709699            0.000545969918           
       0.970340             0.00728174024            0.000532300482           
       0.972981             0.00677900397            0.000495892365           
       0.975621             0.00719214971            0.000521474772           
       0.978261              0.0075825888            0.000510879116           
       0.980902             0.00784791396            0.000544487971           
       0.983542              0.0063844269            0.000476802965           
       0.986182             0.00771559432            0.000531061338           
       0.988823             0.00791194888            0.000520424717           
       0.991463             0.00812223333            0.000539889749           
       0.994104             0.00689961424            0.000480826537           
       0.996744             0.00610169098            0.000466832668           
       0.999384             0.00770282945             0.00050671669           
       1.002025             0.00771246936            0.000521150946           
       1.004665             0.00774533075              0.0005008672           
       1.007306             0.00802291072            0.000526844501           
       1.009946             0.00809867926            0.000508964037           
       1.012586             0.00714320206            0.000491748281           
       1.015227             0.00757344401            0.000491014331           
       1.017867             0.00822797154            0.000526458684           
       1.020507             0.00811754822            0.000503228664           
       1.023148             0.00691050046             0.00046991777           
       1.025788             0.00746429409            0.000483383139           
       1.028429             0.00762444944            0.000499221282           
       1.031069             0.00799174659            0.000492423866           
       1.033709             0.00784760619            0.000497333255           
       1.036350             0.00691977435            0.000454762706           
       1.038990             0.00881648397            0.000525990808           
       1.041630             0.00782105247            0.000485877113           
       1.044271             0.00722266659             0.00046697259           
       1.046911             0.00759868843            0.000470074733           
       1.049552             0.00862487759            0.000518859282           
       1.052192             0.00840430373            0.000489149559           
       1.054832             0.00782035049             0.00048102604           
       1.057473             0.00796903089            0.000479429892           
       1.060113              0.0076110842            0.000473612525           
       1.062754              0.0077605952            0.000472952299           
       1.065394             0.00840145657            0.000486915452           
       1.068034             0.00717558457            0.000448249969           
       1.070675             0.00858084037            0.000498802781           
       1.073315             0.00773972972            0.000459245358           
       1.075955             0.00785978959            0.000470555279           
       1.078596             0.00939215666            0.000513367737           
       1.081236             0.00778161809             0.00046035315           
       1.083877             0.00791573765            0.000478807669           
       1.086517             0.00793054844            0.000468413991           
       1.089157             0.00819005086            0.000479506015           
       1.091798             0.00848011701            0.000477585668           
       1.094438             0.00864197989            0.000489784435           
       1.097078             0.00883890757            0.000482604604           
       1.099719             0.00915086618            0.000503632268           
       1.102359             0.00836700571            0.000456209033           
       1.105000             0.00921250955            0.000497558001           
       1.107640             0.00827779734            0.000456267265           
       1.110280             0.00860600574            0.000474540095           
       1.112921             0.00754412629            0.000436260954           
       1.115561             0.00841580575            0.000466623409           
       1.118202             0.00866056784            0.000459544456           
       1.120842             0.00866885526            0.000474250392           
       1.123482             0.00819474504            0.000448164774           
       1.126123             0.00778941363            0.000439667461           
       1.128763             0.00834702814            0.000452875101           
       1.131403             0.00874259644            0.000462761341           
       1.134044             0.00884166104            0.000464568046           
       1.136684             0.00829971188            0.000453487691           
       1.139325             0.00811330216            0.000435733227           
       1.141965             0.00856382496            0.000453522479           
       1.144605             0.00803233337             0.00044180366           
       1.147246             0.00911362629            0.000461689656           
       1.149886             0.00880309029            0.000456982779           
       1.152527              0.0092932522            0.000470003479           
       1.155167             0.00859210381            0.000445571545           
       1.157807             0.00892534978            0.000454442985           
       1.160448             0.00850835705            0.000449771053           
       1.163088              0.0085674529            0.000434586105           
       1.165728             0.00864704348            0.000454595893           
       1.168369             0.00830307028            0.000429559615           
       1.171009             0.00846673187            0.000437368823           
       1.173650             0.00807075642            0.000423939555           
       1.176290             0.00916288466             0.00045701362           
       1.178930             0.00909328799            0.000442476397           
       1.181571             0.00863497564            0.000445264636           
       1.184211             0.00947020737            0.000452219059           
       1.186851             0.00918800063            0.000449537276           
       1.189492             0.00852179742            0.000435337191           
       1.192132             0.00970402633            0.000457673793           
       1.194773             0.00926612628            0.000444530032           
       1.197413             0.00867212532            0.000433553916           
       1.200053               0.008824208            0.000434587377           
       1.202694             0.00955062701            0.000448714462           
       1.205334             0.00987303184            0.000461212568           
       1.207975             0.00878978497            0.000426649368           
       1.210615             0.00903668039            0.000441747752           
       1.213255              0.0100251361            0.000452971555           
       1.215896             0.00890709084            0.000435059615           
       1.218536             0.00823772687            0.000406342386           
       1.221176             0.00919886524            0.000439642704           
       1.223817             0.00889120483            0.000423221563           
       1.226457              0.0088684228            0.000428047727           
       1.229098             0.00942486129            0.000434577645           
       1.231738             0.00948060135            0.000441998423           
       1.234378              0.0100698068             0.00044667515           
       1.237019             0.00940756647            0.000435219958           
       1.239659              0.0098718696            0.000445589367           
       1.242299             0.00987130058             0.00044329859           
       1.244940              0.0100529208            0.000442529174           
       1.247580             0.00949199592            0.000431904703           
       1.250221             0.00952751157            0.000439775299           
       1.252861               0.010386648            0.000442068329           
       1.255501             0.00962398587            0.000437543466           
       1.258142             0.00977529826            0.000432251734           
       1.260782             0.00952821962            0.000431574489           
       1.263423              0.0107392708            0.000449103824           
       1.266063             0.00985221856             0.00043817392           
       1.268703              0.0100217053             0.00043079243           
       1.271344              0.0103650609            0.000447652054           
       1.273984             0.00950012455            0.000421877305           
       1.276624              0.0101995288            0.000434463828           
       1.279265              0.0103348686            0.000438291674           
       1.281905             0.00986791468            0.000430915509           
       1.284546              0.0104839097            0.000439309451           
       1.287186               0.010537441            0.000440852707           
       1.289826             0.00960026411            0.000422974141           
       1.292467             0.00993708117             0.00042264945           
       1.295107              0.0097363242            0.000425732476           
       1.297747              0.0103712635             0.00042786987           
       1.300388             0.00998810287            0.000430674277           
       1.303028              0.0101981427            0.000424112792           
       1.305669              0.0101530392            0.000428641285           
       1.308309              0.0105211846            0.000429782403           
       1.310949             0.00971140132            0.000418058284           
       1.313590               0.010256016            0.000422972006           
       1.316230              0.0101534644            0.000428427365           
       1.318871              0.0102953536            0.000422103444           
       1.321511              0.0110274572            0.000439042844           
       1.324151               0.010194321            0.000423800119           
       1.326792              0.0107657205             0.00043198744           
       1.329432              0.0100619069            0.000419806576           
       1.332072               0.010964926            0.000430725179           
       1.334713              0.0107789898            0.000432353902           
       1.337353              0.0104089388             0.00041833211           
       1.339994              0.0100748175            0.000417425354           
       1.342634              0.0103188058            0.000412939274           
       1.345274              0.0110243062            0.000432402272           
       1.347915              0.0109253928            0.000431602478           
       1.350555              0.0108065838            0.000427572331           
       1.353195              0.0111370242            0.000425756449           
       1.355836              0.0110179638            0.000431464628           
       1.358476              0.0113914679            0.000437483028           
       1.361117              0.0109258427            0.000417700674           
       1.363757              0.0106483612            0.000426028418           
       1.366397              0.0107665682            0.000415046237           
       1.369038              0.0103727363            0.000415971014           
       1.371678              0.0119211143            0.000436933902           
       1.374319              0.0107534729            0.000418275607           
       1.376959              0.0100924738            0.000399637787           
       1.379599              0.0104772979            0.000415122419           
       1.382240              0.0114112147            0.000425000391           
       1.384880              0.0112218294             0.00042663355           
       1.387520              0.0110452455            0.000418314817           
       1.390161              0.0109546386            0.000415463225           
       1.392801              0.0105204091            0.000409572385           
       1.395442              0.0109947001            0.000414364628           
       1.398082              0.0111534206            0.000418773012           
       1.400722              0.0110429524            0.000414811544           
       1.403363              0.0112173278            0.000421953428           
       1.406003              0.0104924448            0.000398071309           
       1.408644              0.0107516518            0.000411417913           
       1.411284              0.0105115755            0.000404567698           
       1.413924              0.0112843616            0.000414005439           
       1.416565              0.0102974356            0.000395021977           
       1.419205             0.00957614125            0.000384688384           
       1.421845              0.0100743789             0.00038960856           
       1.424486              0.0105089909            0.000399680476           
       1.427126              0.0104035891            0.000397420185           
       1.429767              0.0113165496            0.000408103975           
       1.432407              0.0106795267            0.000406438438           
       1.435047              0.0106340126            0.000393383763           
       1.437688               0.010904947            0.000407185293           
       1.440328              0.0103821748            0.000389606129           
       1.442968              0.0108579682            0.000403949039           
       1.445609              0.0105650987            0.000391910022           
       1.448249              0.0100235436              0.0003842017           
       1.450890              0.0102205537            0.000385191502           
       1.453530              0.0100130351            0.000384085023           
       1.456170              0.0102156175            0.000387077527           
       1.458811              0.0104076999            0.000387591331           
       1.461451              0.0106658597            0.000395253187           
       1.464092              0.0107383074            0.000393136324           
       1.466732              0.0105734693            0.000387714496           
       1.469372              0.0103844656            0.000383052522           
       1.472013             0.00992596599            0.000381200866           
       1.474653              0.0102951801            0.000378639885           
       1.477293              0.0108883484             0.00039594943           
       1.479934              0.0111531418            0.000396540774           
       1.482574              0.0103340601             0.00038076023           
       1.485215              0.0111368524             0.00039629098           
       1.487855              0.0103113095            0.000381241476           
       1.490495              0.0106038812            0.000385780167           
       1.493136              0.0106840763            0.000382157942           
       1.495776              0.0101458974            0.000378901343           
       1.498416              0.0106811008            0.000381213944           
       1.501057              0.0105565385            0.000382244343           
       1.503697             0.00988397399             0.00036631127           
       1.506338              0.0106618696             0.00038325102           
       1.508978              0.0104297281             0.00037681771           
       1.511618              0.0105809644            0.000379348092           
       1.514259              0.0103321671            0.000375538648           
       1.516899              0.0104391939             0.00037765445           
       1.519540             0.00993920785            0.000366454641           
       1.522180              0.0105638798            0.000373076854           
       1.524820             0.00953380794            0.000361579712           
       1.527461               0.010186554            0.000365484723           
       1.530101              0.0104165637            0.000373409246           
       1.532741              0.0101921471            0.000367614943           
       1.535382              0.0100632102              0.0003660867           
       1.538022              0.0100940788            0.000363403814           
       1.540663             0.00933875965            0.000352846633           
       1.543303             0.00993368468            0.000359383528           
       1.545943              0.0100512428             0.00036352979           
       1.548584              0.0103097583            0.000370135607           
       1.551224              0.0103593366            0.000361512512           
       1.553864              0.0104566947            0.000372695517           
       1.556505              0.0101367581            0.000361304877           
       1.559145               0.010022733            0.000360097583           
       1.561786              0.0103539274            0.000364340749           
       1.564426              0.0101841161            0.000361014303           
       1.567066             0.00928483085            0.000342016229           
       1.569707               0.010005945            0.000360189605           
       1.572347             0.00986475807            0.000352999295           
       1.574988             0.00921511223            0.000339828221           
       1.577628              0.0104306969            0.000369688029           
       1.580268             0.00958184441            0.000342098488           
       1.582909              0.0104579667            0.000364081208           
       1.585549             0.00912776936             0.00033696071           
       1.588189              0.0100232042            0.000357045835           
       1.590830             0.00932696829            0.000338509822           
       1.593470             0.00959819415            0.000346200714           
       1.596111             0.00937494869            0.000339194428           
       1.598751             0.00975687225            0.000349572061           
       1.601391             0.00930835444             0.00033925969           
       1.604032              0.0092456441            0.000335291417           
       1.606672             0.00876192784            0.000332972089           
       1.609312             0.00934285854            0.000333602438           
       1.611953             0.00882364713            0.000328898715           
       1.614593             0.00908960953            0.000331279814           
       1.617234             0.00926302165            0.000336320621           
       1.619874             0.00912214417             0.00032982699           
       1.622514             0.00874738307            0.000325837359           
       1.625155             0.00891141142            0.000328064844           
       1.627795             0.00853941471            0.000317899294           
       1.630436             0.00819766782            0.000314603937           
       1.633076             0.00881973564            0.000324664388           
       1.635716             0.00887305804            0.000325076455           
       1.638357              0.0084555719            0.000315988465           
       1.640997              0.0086497497            0.000322095486           
       1.643637              0.0088445624            0.000319654484           
       1.646278             0.00874488184            0.000322605754           
       1.648918             0.00854363756              0.0003147612           
       1.651559             0.00838643383            0.000315772918           
       1.654199             0.00868726997             0.00031698134           
       1.656839             0.00848469205            0.000313179359           
       1.659480             0.00860828667            0.000318230381           
       1.662120             0.00857062747            0.000313278463           
       1.664761              0.0078387015            0.000302846945           
       1.667401              0.0090173823            0.000321792989           
       1.670041             0.00849787367            0.000312743422           
       1.672682             0.00836806966            0.000307425367           
       1.675322             0.00839015233            0.000313273473           
       1.677962             0.00833088492             0.00030596544           
       1.680603             0.00816044254            0.000305506884           
       1.683243             0.00869661577             0.00031305061           
       1.685884             0.00858560318            0.000312229783           
       1.688524             0.00819685836            0.000304220889           
       1.691164             0.00807522274            0.000301179129           
       1.693805             0.00877092201            0.000316423038           
       1.696445             0.00891660399            0.000314611983           
       1.699085             0.00875387774              0.0003129725           
       1.701726             0.00821102701             0.00029917033           
       1.704366             0.00891377745             0.00031929456           
       1.707007             0.00854187341            0.000305892835           
       1.709647             0.00857959268            0.000310376591           
       1.712287             0.00900648817            0.000312690099           
       1.714928             0.00828336758            0.000302890059           
       1.717568             0.00802299074            0.000295350438           
       1.720209             0.00850528326            0.000305976051           
       1.722849             0.00853496763            0.000307000984           
       1.725489             0.00805523276            0.000293494497           
       1.728130              0.0082789986            0.000303600106           
       1.730770             0.00863428633            0.000303492461           
       1.733410             0.00834173257            0.000302222636           
       1.736051             0.00826129533            0.000296093575           
       1.738691             0.00844583452            0.000302438191           
       1.741332             0.00768089235            0.000286641778           
       1.743972             0.00870270688            0.000305226251           
       1.746612             0.00820697053             0.00029647361           
       1.749253             0.00798360946            0.000293675051           
       1.751893             0.00854269988            0.000301961513           
       1.754533             0.00790361382            0.000286460655           
       1.757174             0.00893339748            0.000310245384           
       1.759814             0.00833318609            0.000295073694           
       1.762455             0.00831555122            0.000297270742           
       1.765095             0.00869193112             0.00029965577           
       1.767735             0.00868554076            0.000304635577           
       1.770376             0.00886546892            0.000303107315           
       1.773016             0.00873248933            0.000301300231           
       1.775657             0.00885626988            0.000304049793           
       1.778297             0.00847871165            0.000298953486           
       1.780937             0.00834083369             0.00029512912           
       1.783578             0.00846982237            0.000296005895           
       1.786218             0.00871721013            0.000305089677           
       1.788858             0.00846778939            0.000293222519           
       1.791499             0.00857364863            0.000300487484           
       1.794139              0.0084575346            0.000292934689           
       1.796780             0.00867564679            0.000298450781           
       1.799420             0.00838760505            0.000293080886           
       1.802060             0.00897038878            0.000299363926           
       1.804701             0.00870455202            0.000298851011           
       1.807341              0.0089495947            0.000300100261           
       1.809981             0.00916786886             0.00030575503           
       1.812622             0.00945912672            0.000308881797           
       1.815262             0.00944985471            0.000309831175           
       1.817903             0.00873892114             0.00029426766           
       1.820543             0.00872594162            0.000297683512           
       1.823183             0.00872619602            0.000293101063           
       1.825824             0.00864177396             0.00029606618           
       1.828464             0.00844701672            0.000291812898           
       1.831105             0.00880553735            0.000299094791           
       1.833745             0.00868852973            0.000296915522           
       1.836385             0.00871136087            0.000296149055           
       1.839026             0.00802054844            0.000288435879           
       1.841666             0.00845251416            0.000292256436           
       1.844306             0.00900909719            0.000305534505           
       1.846947             0.00839712849            0.000291184218           
       1.849587             0.00843028269            0.000295715566           
       1.852228             0.00856874883            0.000294963312           
       1.854868             0.00838957297            0.000297216096           
       1.857508             0.00883906992            0.000299441194           
       1.860149             0.00843081953            0.000294788376           
       1.862789             0.00856795698            0.000298491232           
       1.865429             0.00889329168            0.000305022294           
       1.868070             0.00879899304            0.000302352473           
       1.870710             0.00851483222            0.000298240216           
       1.873351             0.00925521734            0.000312921376           
       1.875991             0.00840803401            0.000299869335           
       1.878631             0.00844634845             0.00029775829           
       1.881272             0.00880593928            0.000303318357           
       1.883912             0.00832299574            0.000298341985           
       1.886553             0.00887240524            0.000304336579           
       1.889193             0.00873195698            0.000305405825           
       1.891833              0.0084400153            0.000296840109           
       1.894474             0.00897498064            0.000308525747           
       1.897114             0.00894693565            0.000305653931           
       1.899754             0.00901224711            0.000310207872           
       1.902395             0.00845081513            0.000300454108           
       1.905035              0.0084364118            0.000299021504           
       1.907676              0.0088624234            0.000306834637           
       1.910316             0.00838242922             0.00030031251           
       1.912956             0.00845814885            0.000301653854           
       1.915597             0.00845102478            0.000298383254           
       1.918237             0.00848342937             0.00030349284           
       1.920878             0.00901372928            0.000307298326           
       1.923518             0.00840340103            0.000304595485           
       1.926158              0.0082734406             0.00029528602           
       1.928799             0.00852045004            0.000303643632           
       1.931439              0.0084462189            0.000299895292           
       1.934079             0.00834370445            0.000301088287           
       1.936720             0.00812655226            0.000295395498           
       1.939360             0.00863653582            0.000307458216           
       1.942001             0.00805098032            0.000295710504           
       1.944641             0.00798911303            0.000293302781           
       1.947281             0.00815960539            0.000297847973           
       1.949922             0.00814209109            0.000297900533           
       1.952562             0.00803421377            0.000298466873           
       1.955202             0.00810765339            0.000292294792           
       1.957843             0.00841320261            0.000307210233           
       1.960483             0.00797283638            0.000294291869           
       1.963124             0.00835777623            0.000301089099           
       1.965764             0.00821764667            0.000298661085           
       1.968404             0.00830956561            0.000305697273           
       1.971045             0.00819917416            0.000296048014           
       1.973685             0.00783375671            0.000294775876           
       1.976326              0.0079516457            0.000295690794           
       1.978966             0.00794363588             0.00029694033           
       1.981606             0.00863727083            0.000306358846           
       1.984247             0.00814081455            0.000300017497           
       1.986887             0.00817557869            0.000303469265           
       1.989527             0.00811397231            0.000296025287           
       1.992168             0.00815995763            0.000304025367           
       1.994808             0.00829257954            0.000302921135           
       1.997449             0.00777236704            0.000292835721           
       2.000089             0.00832058052            0.000301203061           
       2.002729             0.00773460669            0.000297057819           
       2.005370             0.00800930718            0.000296540604           
       2.008010             0.00785833763            0.000297632311           
       2.010650             0.00773535204            0.000294449357           
       2.013291              0.0081927898            0.000304755417           
       2.015931             0.00813042134            0.000301420356           
       2.018572              0.0077805079            0.000298778935           
       2.021212             0.00796226179            0.000299535958           
       2.023852             0.00764733714            0.000295094643           
       2.026493             0.00828007214            0.000305714376           
       2.029133             0.00775640984            0.000293632065           
       2.031774             0.00798684989            0.000300851526           
       2.034414             0.00709467586            0.000281858529           
       2.037054              0.0074933634            0.000293322368           
       2.039695             0.00746076455            0.000286918537           
       2.042335                0.00773137            0.000297047062           
       2.044975             0.00791431404            0.000298138998           
       2.047616             0.00755061817            0.000292455912           
       2.050256             0.00734747178            0.000285101331           
       2.052897             0.00747333285             0.00029604871           
       2.055537             0.00779070108            0.000294028427           
       2.058177             0.00747366556            0.000290527519           
       2.060818             0.00699195467            0.000281852317           
       2.063458             0.00731959403            0.000288777639           
       2.066098             0.00741444895            0.000289352951           
       2.068739             0.00737122134            0.000291516409           
       2.071379             0.00785980672            0.000296577271           
       2.074020              0.0078081988            0.000299649925           
       2.076660             0.00794498236            0.000300214271           
       2.079300              0.0072359514            0.000286463808           
       2.081941             0.00717483246            0.000286985602           
       2.084581             0.00754839727            0.000294579948           
       2.087222             0.00754368538            0.000294688608           
       2.089862             0.00786171618            0.000297086677           
       2.092502             0.00739042504            0.000293277996           
       2.095143             0.00780111212            0.000297010205           
       2.097783             0.00688733103            0.000283320101           
       2.100423             0.00750838064            0.000290146111           
       2.103064             0.00660000253            0.000276726077           
       2.105704              0.0077184289              0.0002981109           
       2.108345             0.00745344745            0.000294293911           
       2.110985             0.00759603353            0.000292922546           
       2.113625              0.0074251665            0.000294172273           
       2.116266             0.00776371004            0.000298577388           
       2.118906              0.0078182923            0.000299407257           
       2.121546             0.00722086972            0.000287512121           
       2.124187             0.00719665271            0.000290999687           
       2.126827             0.00705510261            0.000283605061           
       2.129468             0.00723955136            0.000290286477           
       2.132108             0.00719107844            0.000288714366           
       2.134748             0.00725102636            0.000288822698           
       2.137389             0.00768571157            0.000299844414           
       2.140029             0.00703849128            0.000286244905           
       2.142670             0.00753248098            0.000296603347           
       2.145310              0.0071788752            0.000290664024           
       2.147950             0.00759315652              0.0003000889           
       2.150591             0.00713599832            0.000288247054           
       2.153231             0.00754692036            0.000300812669           
       2.155871             0.00751223033             0.00029578611           
       2.158512             0.00715482177            0.000293865586           
       2.161152             0.00747833271            0.000292930986           
       2.163793             0.00710034366            0.000290076337           
       2.166433             0.00763430005            0.000295569819           
       2.169073             0.00717315054            0.000293193038           
       2.171714             0.00709703276             0.00028569604           
       2.174354             0.00776896783            0.000303482555           
       2.176995             0.00780054646            0.000301576168           
       2.179635             0.00758154581            0.000302939344           
       2.182275             0.00748021196            0.000294934736           
       2.184916             0.00714181649            0.000294277068           
       2.187556             0.00708673754             0.00028842082           
       2.190196             0.00802489319            0.000311742611           
       2.192837             0.00708033992             0.00028961536           
       2.195477             0.00653825732            0.000280992515           
       2.198118             0.00698449865            0.000285061511           
       2.200758             0.00699696757            0.000289746599           
       2.203398             0.00768869213            0.000298694456           
       2.206039             0.00727609795            0.000295010928           
       2.208679             0.00748407107            0.000296268552           
       2.211319             0.00727813123            0.000293539101           
       2.213960              0.0075135579            0.000295077783           
       2.216600             0.00758749364            0.000303512678           
       2.219241             0.00772121805            0.000301724305           
       2.221881             0.00770341566             0.00030294719           
       2.224521             0.00740544769            0.000296000169           
       2.227162             0.00726837982            0.000297854047           
       2.229802             0.00758115064             0.00029925732           
       2.232443             0.00757131471            0.000300238856           
       2.235083             0.00744514667            0.000295941502           
       2.237723             0.00745419125            0.000298390521           
       2.240364             0.00716341054             0.00029102483           
       2.243004             0.00742700259            0.000297226123           
       2.245644             0.00723892874            0.000292761045           
       2.248285             0.00750433971            0.000300014694           
       2.250925              0.0074595963            0.000297720226           
       2.253566             0.00707444219            0.000290641362           
       2.256206              0.0070281156            0.000288820425           
       2.258846             0.00702547332            0.000288768703           
       2.261487              0.0070758287            0.000290303054           
       2.264127             0.00749174756            0.000301539621           
       2.266767             0.00762744196            0.000299340473           
       2.269408             0.00739651712            0.000298275279           
       2.272048              0.0069506661            0.000287367129           
       2.274689             0.00701103076            0.000289747188           
       2.277329             0.00768627913            0.000302976467           
       2.279969             0.00733330737            0.000296834994           
       2.282610             0.00708161054            0.000288851834           
       2.285250              0.0072575895            0.000297017842           
       2.287891             0.00734051846            0.000295695652           
       2.290531             0.00753174596            0.000300999507           
       2.293171             0.00719671946            0.000294214335           
       2.295812             0.00696040631             0.00028780786           
       2.298452             0.00750664279            0.000300802122           
       2.301092             0.00722494211            0.000296978636           
       2.303733             0.00746486724            0.000295898565           
       2.306373             0.00707797378            0.000295175921           
       2.309014             0.00696273744            0.000287121588           
       2.311654              0.0073784119            0.000298372993           
       2.314294             0.00729272269             0.00029598776           
       2.316935              0.0069071998            0.000289196469           
       2.319575             0.00721347609            0.000294431965           
       2.322215             0.00702136331            0.000294624124           
       2.324856               0.006804187            0.000282748468           
       2.327496             0.00685053923            0.000290663026           
       2.330137             0.00732909447            0.000295099395           
       2.332777             0.00681814135            0.000287740061           
       2.335417             0.00752254626            0.000301331148           
       2.338058             0.00687969898            0.000289321709           
       2.340698             0.00665489535            0.000281753769           
       2.343339             0.00681348089            0.000290531409           
       2.345979             0.00707660651            0.000290179839           
       2.348619             0.00721099441             0.00029845396           
       2.351260             0.00715984489            0.000291071814           
       2.353900              0.0070173773            0.000294265355           
       2.356540             0.00671775627             0.00028395494           
       2.359181             0.00737246175            0.000301448089           
       2.361821              0.0075154861            0.000300649672           
       2.364462             0.00735840631            0.000302463093           
       2.367102             0.00702925743            0.000287072304           
       2.369742             0.00713113648            0.000299507225           
       2.372383             0.00690371055            0.000286102035           
       2.375023             0.00680278768            0.000291402592           
       2.377663             0.00704297945            0.000290201522           
       2.380304             0.00741713764            0.000301941393           
       2.382944              0.0066053696            0.000282152752           
       2.385585             0.00649239608            0.000282373947           
       2.388225              0.0067643183            0.000286924378           
       2.390865             0.00703568825            0.000293372505           
       2.393506             0.00709469937            0.000293242598           
       2.396146             0.00689569698            0.000290058926           
       2.398787             0.00687529745            0.000289882906           
       2.401427             0.00730011116            0.000296890659           
       2.404067             0.00704205002            0.000296046494           
       2.406708             0.00720980349             0.00029578683           
       2.409348             0.00720542052            0.000297921356           
       2.411988             0.00691834346            0.000290993828           
       2.414629             0.00698081981            0.000293261193           
       2.417269             0.00670005855            0.000284694221           
       2.419910             0.00674676567            0.000289287528           
       2.422550              0.0073092372            0.000296534261           
       2.425190             0.00754192257            0.000310701079           
       2.427831             0.00723391121            0.000292846468           
       2.430471             0.00712603065            0.000299150878           
       2.433112             0.00671005087             0.00028343848           
       2.435752             0.00722371781            0.000301532472           
       2.438392             0.00716160047            0.000295186864           
       2.441033             0.00683948334            0.000289793866           
       2.443673             0.00721234215            0.000298382868           
       2.446313              0.0074803797            0.000302257761           
       2.448954             0.00768930691            0.000309138721           
       2.451594             0.00681320244            0.000289248931           
       2.454235             0.00694251461            0.000291072432           
       2.456875             0.00771810364            0.000308455324           
       2.459515             0.00739823776            0.000302461587           
       2.462156              0.0079313655            0.000311555584           
       2.464796              0.0074440851             0.00030715748           
       2.467436             0.00793789543            0.000310530905           
       2.470077              0.0082386151            0.000320720758           
       2.472717             0.00761754246            0.000304536237           
       2.475358             0.00761874053              0.0003080107           
       2.477998             0.00746163315            0.000303192144           
       2.480638             0.00772236521            0.000309193333           
       2.483279             0.00722201737            0.000300293508           
       2.485919             0.00731030751            0.000300008044           
       2.488560             0.00752191164            0.000305581379           
       2.491200             0.00695497272            0.000293436847           
       2.493840             0.00686190637            0.000289880044           
       2.496481             0.00752207763            0.000307473164           
       2.499121             0.00717086055            0.000296212021           
       2.501761             0.00728047974            0.000303535638           
       2.504402             0.00757007379            0.000303582071           
       2.507042             0.00725783476            0.000302196656           
       2.509683             0.00697603396            0.000293573752           
       2.512323             0.00729226346            0.000301329263           
       2.514963              0.0147206812            0.000428979908           
       2.517604              0.0223471314            0.000526478118           
       2.520244              0.0107554975              0.0003653252           
       2.522884              0.0076002763            0.000306427697           
       2.525525             0.00805842755            0.000318120189           
       2.528165              0.0190123255            0.000486402386           
       2.530806              0.0332064717            0.000640407115           
       2.533446              0.0184025111            0.000480978589           
       2.536086             0.00967577556            0.000345835676           
       2.538727             0.00863910966            0.000328879431           
       2.541367             0.00859079234            0.000327020672           
       2.544008             0.00718582005            0.000299339832           
       2.546648             0.00776857054            0.000311594491           
       2.549288             0.00666927567             0.00028874938           
       2.551929             0.00688367937            0.000294323016           
       2.554569             0.00744465335            0.000303283807           
       2.557209             0.00716639517            0.000300924008           
       2.559850             0.00695875355            0.000293122554           
       2.562490             0.00713712424            0.000299016986           
       2.565131             0.00705611215            0.000297832394           
       2.567771              0.0072098732            0.000299464341           
       2.570411             0.00685890489             0.00029563898           
       2.573052             0.00705742602            0.000296386334           
       2.575692             0.00689285669            0.000293687305           
       2.578332             0.00659329059            0.000286386031           
       2.580973             0.00739175491            0.000305690239           
       2.583613             0.00692338002            0.000293150798           
       2.586254             0.00719822507            0.000301557391           
       2.588894             0.00689707263            0.000293607264           
       2.591534             0.00665420554            0.000288921992           
       2.594175             0.00666424204            0.000290818188           
       2.596815              0.0067317331            0.000289569538           
       2.599456             0.00680108778            0.000293438737           
       2.602096             0.00750299924             0.00030705588           
       2.604736             0.00717212164            0.000300996404           
       2.607377             0.00718098639            0.000300030604           
       2.610017             0.00741671084            0.000304808741           
       2.612657             0.00727154344            0.000303942962           
       2.615298             0.00715844398            0.000298620103           
       2.617938             0.00733709728            0.000304968232           
       2.620579             0.00732648349            0.000302258198           
       2.623219             0.00713093233            0.000302967047           
       2.625859             0.00738047864            0.000303027894           
       2.628500             0.00644982089            0.000287806252           
       2.631140              0.0071019917            0.000296680883           
       2.633780             0.00735260164            0.000305747271           
       2.636421             0.00726409788            0.000301136143           
       2.639061             0.00684171736            0.000295744315           
       2.641702              0.0066017518            0.000287406003           
       2.644342             0.00761975174             0.00031130398           
       2.646982             0.00673547091            0.000292435022           
       2.649623             0.00712806662            0.000302640494           
       2.652263             0.00762076587            0.000310435117           
       2.654904             0.00761391951             0.00031198047           
       2.657544             0.00730968671            0.000303533283           
       2.660184             0.00710395536            0.000299614071           
       2.662825             0.00702055709            0.000298564113           
       2.665465             0.00656400898            0.000289227036           
       2.668105             0.00688781007            0.000296392227           
       2.670746              0.0071380452            0.000299175145           
       2.673386             0.00702891811            0.000300477476           
       2.676027             0.00687263428            0.000294592417           
       2.678667             0.00717464964            0.000302560491           
       2.681307             0.00708753862            0.000298353422           
       2.683948             0.00728378824            0.000305459603           
       2.686588             0.00729120062            0.000302810481           
       2.689229             0.00722889167            0.000304219867           
       2.691869             0.00714027314              0.0002993315           
       2.694509             0.00766032009            0.000314292374           
       2.697150             0.00722032912            0.000300262757           
       2.699790             0.00700364837            0.000301865855           
       2.702430             0.00717116047             0.00029959806           
       2.705071             0.00667419198            0.000292986118           
       2.707711             0.00708656977            0.000298908077           
       2.710352             0.00739135482            0.000307005793           
       2.712992              0.0071000655            0.000301873816           
       2.715632             0.00688587561            0.000295594542           
       2.718273             0.00670504181            0.000292655677           
       2.720913             0.00681676286            0.000295576415           
       2.723553             0.00684934297            0.000295252373           
       2.726194                0.00647181            0.000288384099           
       2.728834             0.00659953954            0.000288627304           
       2.731475             0.00675004566            0.000294451027           
       2.734115             0.00662195814            0.000289906093           
       2.736755             0.00693474175            0.000298635004           
       2.739396             0.00683879275            0.000294993639           
       2.742036             0.00714177411            0.000303515036           
       2.744677             0.00701082331             0.00030115922           
       2.747317             0.00747088986             0.00030937327           
       2.749957             0.00728654917            0.000307749112           
       2.752598             0.00738254735            0.000310702568           
       2.755238             0.00740443197            0.000311022508           
       2.757878             0.00769248571            0.000316112013           
       2.760519              0.0078648022            0.000316258099           
       2.763159             0.00718264745            0.000307145949           
       2.765800             0.00680674747            0.000293935788           
       2.768440             0.00670200022            0.000295507611           
       2.771080             0.00711475527            0.000301905562           
       2.773721             0.00695386665            0.000302134122           
       2.776361             0.00669430537            0.000293257858           
       2.779001             0.00666581441            0.000295709182           
       2.781642             0.00660573327            0.000292364852           
       2.784282             0.00691882665            0.000299317666           
       2.786923             0.00663825924             0.00029095622           
       2.789563             0.00614942876            0.000280601167           
       2.792203             0.00603383538            0.000279720657           
       2.794844             0.00617598392            0.000281708702           
       2.797484             0.00643385309            0.000287934858           
       2.800125             0.00760303173            0.000312601088           
       2.802765             0.00690335696            0.000303392274           
       2.805405             0.00656260253            0.000291539678           
       2.808046             0.00682653302            0.000301903706           
       2.810686             0.00689700093            0.000300224435           
       2.813326             0.00737246902            0.000314240803           
       2.815967             0.00666275944            0.000296850352           
       2.818607             0.00684666173             0.00030392732           
       2.821248             0.00611576248            0.000283665412           
       2.823888             0.00697458917            0.000307807887           
       2.826528             0.00669649996            0.000299809583           
       2.829169             0.00676436131            0.000299994555           
       2.831809             0.00667039558            0.000298164622           
       2.834449             0.00712687242            0.000302818447           
       2.837090             0.00657383412            0.000292582234           
       2.839730             0.00689409257            0.000297496594           
       2.842371             0.00633733942            0.000287218465           
       2.845011             0.00667152447            0.000294036829           
       2.847651             0.00598130508            0.000278922793           
       2.850292             0.00655888965            0.000290420021           
       2.852932             0.00698043767             0.00030014479           
       2.855573             0.00652766828            0.000292796644           
       2.858213             0.00639017543            0.000286446159           
       2.860853             0.00672324017            0.000296015515           
       2.863494             0.00706941086            0.000304271478           
       2.866134             0.00723831022            0.000312203382           
       2.868774             0.00712839746            0.000305081281           
       2.871415             0.00681016022            0.000301144924           
       2.874055             0.00734662437            0.000314330661           
       2.876696             0.00682360127            0.000300207324           
       2.879336             0.00710332133            0.000308331952           
       2.881976             0.00671371207            0.000299510169           
       2.884617             0.00658535336            0.000294985357           
       2.887257              0.0068090338            0.000297861883           
       2.889897             0.00698018079            0.000305038832           
       2.892538             0.00673213966            0.000297492962           
       2.895178             0.00690045077            0.000298117393           
       2.897819             0.00741373827            0.000312184319           
       2.900459             0.00691282946            0.000298957634           
       2.903099             0.00656298331            0.000292815526           
       2.905740             0.00678090091            0.000294314813           
       2.908380             0.00633346738            0.000288230831           
       2.911021             0.00685302343            0.000300390078           
       2.913661             0.00664247622            0.000292485041           
       2.916301             0.00654581472            0.000294479601           
       2.918942             0.00654355067            0.000289986826           
       2.921582             0.00658798163            0.000294022439           
       2.924222             0.00650301645            0.000290425937           
       2.926863             0.00661547381            0.000293704428           
       2.929503             0.00728051747            0.000311534147           
       2.932144             0.00737748938            0.000308458621           
       2.934784             0.00696186356             0.00030091727           
       2.937424             0.00722318752            0.000307079861           
       2.940065             0.00701507566            0.000302870092           
       2.942705             0.00670295175            0.000296955162           
       2.945346             0.00757150438            0.000313744538           
       2.947986             0.00814109784            0.000326469529           
       2.950626             0.00870400858            0.000338605582           
       2.953267             0.00939324256            0.000348019729           
       2.955907             0.00806948454            0.000326830922           
       2.958547             0.00763812539            0.000314715028           
       2.961188             0.00678477446            0.000299203488           
       2.963828             0.00704173148            0.000303089229           
       2.966469             0.00675121477            0.000296845102           
       2.969109             0.00756253511            0.000315782517           
       2.971749             0.00876477695            0.000338957724           
       2.974390             0.00937707563             0.00035155954           
       2.977030             0.00884177756            0.000340727869           
       2.979670             0.00774396116            0.000316818416           
       2.982311             0.00698439749            0.000303051411           
       2.984951             0.00720736086            0.000308646564           
       2.987592             0.00797987067            0.000323670346           
       2.990232             0.00807838903            0.000326493797           
       2.992872             0.00856998645            0.000333650255           
       2.995513              0.0100565465            0.000364270431           
       2.998153               0.016019486            0.000462718285           
       3.000794              0.0258123633            0.000578815543           
       3.003434              0.0250635044            0.000576405359           
       3.006074               0.017751837            0.000486660576           
       3.008715              0.0152261718            0.000454144828           
       3.011355              0.0169954986            0.000484796149           
       3.013995              0.0162412244            0.000471598685           
       3.016636              0.0279168453            0.000619455193           
       3.019276                0.19540856             0.00167805031           
       3.021917               0.402354339             0.00236705714           
       3.024557                 0.1470489              0.0014424099           
       3.027197              0.0768275002             0.00106009503           
       3.029838               0.158780986              0.0015167149           
       3.032478              0.0989269983              0.0012043411           
       3.035118              0.0749489062              0.0010536697           
       3.037759              0.0774266738             0.00107283112           
       3.040399              0.0664324401             0.00100511889           
       3.043040              0.0671385593             0.00102026059           
       3.045680              0.0531701736            0.000893960873           
       3.048320              0.0685233727             0.00103113976           
       3.050961              0.0429647801            0.000824684126           
       3.053601              0.0722888619             0.00106498177           
       3.056242              0.0868844587             0.00117505518           
       3.058882              0.0819576765              0.0011582303           
       3.061522                0.24487732             0.00198817644           
       3.064163               0.074910761             0.00110164655           
       3.066803               0.025042824             0.00064927644           
       3.069443              0.0227111502            0.000614193764           
       3.072084              0.0552226272             0.00096625832           
       3.074724               0.070589758             0.00109891096           
       3.077365              0.0148039874            0.000502886487           
       3.080005             0.00917961544            0.000400389208           
       3.082645              0.0084450396            0.000385990517           
       3.085286              0.0079833866            0.000375360503           
       3.087926             0.00698923689            0.000353447014           
       3.090566             0.00738835291            0.000367141842           
       3.093207             0.00757068484            0.000367629147           
       3.095847             0.00826379474            0.000392140169           
       3.098488             0.00834591623            0.000393369237           
       3.101128             0.00794463677             0.00038588665           
       3.103768              0.0090797943            0.000414859064           
       3.106409             0.00924408871            0.000421399303           
       3.109049             0.00921118272            0.000423918681           
       3.111690              0.0130142073            0.000501903643           
       3.114330              0.0200108225            0.000627900898           
       3.116970              0.0181384529            0.000606120227           
       3.119611              0.0126659896            0.000503202863           
       3.122251             0.00983287531             0.00044699846           
       3.124891             0.00835438367            0.000414024724           
       3.127532             0.00838687983            0.000422301815           
       3.130172             0.00942619434             0.00043849396           
       3.132813             0.00744449914            0.000397615549           
       3.135453             0.00721662813             0.00039974095           
       3.138093             0.00594073706            0.000354081155           
       3.140734             0.00607160885            0.000364622034           
       3.143374             0.00596418798            0.000366906476           
       3.146014             0.00613192074            0.000369329449           
       3.148655              0.0063939626            0.000380107644           
       3.151295              0.0068535935            0.000396647515           
       3.153936             0.00632117104            0.000386552764           
       3.156576             0.00609086118            0.000375089637           
       3.159216             0.00555167876            0.000361031787           
       3.161857             0.00592507895            0.000377550936           
       3.164497             0.00663383003            0.000407917824           
       3.167138             0.00671949614            0.000400693612           
       3.169778             0.00568879903            0.000375341346           
       3.172418             0.00620055885            0.000394150325           
       3.175059             0.00549304612            0.000375837201           
       3.177699             0.00659805852            0.000410281989           
       3.180339             0.00602980757            0.000395722546           
       3.182980              0.0056265893             0.00038742296           
       3.185620             0.00639667933            0.000417599649           
       3.188261             0.00656895352            0.000417641335           
       3.190901             0.00543688166            0.000385808074           
       3.193541             0.00557860505            0.000392091938           
       3.196182             0.00616118537            0.000420630408           
       3.198822             0.00585029116            0.000404911744           
       3.201463             0.00574975065            0.000406608357           
       3.204103             0.00593885288            0.000418743491           
       3.206743             0.00637875343            0.000437644092           
       3.209384             0.00592396878            0.000419874235           
       3.212024             0.00667461353            0.000447266094           
       3.214664             0.00597214878            0.000431139804           
       3.217305             0.00573061302            0.000432184557           
       3.219945             0.00547834739            0.000419031461           
       3.222586             0.00648181997            0.000458375286           
       3.225226             0.00609390691            0.000454460329           
       3.227866             0.00550980547            0.000435474841           
       3.230507             0.00626670914            0.000469965935           
       3.233147             0.00622569875             0.00046149711           
       3.235787             0.00595612338            0.000451517734           
       3.238428              0.0059895551            0.000460779829           
       3.241068             0.00569027794            0.000458227657           
       3.243709             0.00544107277            0.000445594261           
       3.246349             0.00549723905            0.000445382258           
       3.248989             0.00619222962            0.000483502854           
       3.251630             0.00662572214            0.000502353325           
       3.254270              0.0056752678            0.000479219452           
       3.256911             0.00454505521            0.000418109999           
       3.259551             0.00570137456            0.000478633394           
       3.262191             0.00670653612            0.000523889289           
       3.264832              0.0053832821            0.000473772623           
       3.267472             0.00515831643            0.000470344485           
       3.270112             0.00547626322            0.000486002826           
       3.272753             0.00578890449            0.000505823968           
       3.275393             0.00615303591            0.000524174193           
       3.278034             0.00549572704            0.000505477243           
       3.280674             0.00613037579            0.000535415811           
       3.283314             0.00633936755            0.000547474248           
       3.285955             0.00571665458            0.000529655432           
       3.288595             0.00507048301            0.000504388662           
       3.291235              0.0050353086            0.000505588756           
       3.293876              0.0052431127            0.000518970761           
       3.296516             0.00583477506            0.000558636456           
       3.299157             0.00442944658            0.000494091003           
       3.301797             0.00592034013            0.000571465557           
       3.304437             0.00511596273            0.000541184978           
       3.307078             0.00570924505            0.000577258069           
       3.309718             0.00555669645            0.000575178613           
       3.312359             0.00695510856            0.000656499008           
       3.314999             0.00594799181             0.00061347876           
       3.317639             0.00515122221            0.000577059996           
       3.320280             0.00495008891            0.000573942648           
       3.322920             0.00502760555            0.000587073267           
       3.325560             0.00592825158            0.000649802204           
       3.328201             0.00483481468            0.000589304531           
       3.330841             0.00500201851            0.000613986054           
       3.333482             0.00577284073            0.000667974998           
       3.336122             0.00487051846            0.000626889657           
       3.338762             0.00554947679            0.000675279684           
       3.341403             0.00439829435            0.000606750527           
       3.344043             0.00554077338            0.000707001836           
       3.346683             0.00503324621            0.000680678574           
       3.349324             0.00489278277            0.000681502341           
       3.351964             0.00419908832            0.000651641979           
       3.354605             0.00408236051            0.000649796661           
       3.357245             0.00526383194            0.000763793476           
       3.359885             0.00605754315            0.000819651555           
       3.362526             0.00469189732            0.000758249563           
       3.365166             0.00673268874             0.00089709187           
       3.367807             0.00553789845            0.000870938644           
       3.370447             0.00489102847            0.000818810699           
       3.373087              0.0059082877            0.000949796718           
       3.375728             0.00612299336            0.000959591334           
       3.378368              0.0048595973            0.000923760562           
       3.381008             0.00547349041            0.000971824946           
       3.383649             0.00597705301             0.00109905139           
       3.386289             0.00641709804             0.00113926001           
       3.388930             0.00478715868             0.00108066837           
       3.391570              0.0057955908              0.0011895548           
       3.394210             0.00605513939              0.0013028097           
       3.396851             0.00772362128             0.00159386845           
       3.399491             0.00399170412             0.00116662851           
       3.402131             0.00512213843             0.00156432459           
       3.404772             0.00368008582             0.00132652756           
       3.407412             0.00570442721             0.00204937309           
       3.410053              0.0061116845             0.00220882984           
       3.412693             0.00604895391             0.00310898741           
       3.415333             0.00221100856             0.00230301232           
