################################################################################
# EDF_DataBlockID                     0.Image.Psd
# EDF_BinarySize                      2105344
# EDF_HeaderSize                      2560
# ByteOrder                           LowByteFirst
# DataType                            FloatValue
# Dim_1                               512
# Dim_2                               1028
# Image                               0
# HeaderID                            EH:000000:000000:000000
# Size                                2105344
# Center_1                            304.9000
# Center_2                            588.7000
# Comment                             Xenocs_Cell_Window - front_window_open_only
# DDummy                              0.6
# Date                                2025-10-19T14:15:19
# Delta                               21.910000
# Dummy                               -1.5
# ExposureTime                        360
# Gamma                               15.360000
# Intensity1                          8.87972e-10
# PSize_1                             7.5e-05
# PSize_2                             7.5e-05
# Pressure                            0.0329752
# SampleDistance                      0.115750
# SampleEnvKind                       large
# SampleEnvPN                         ElectroChemical cell
# SampleEnvSN                         1141
# Thickness                           0
# Wavelength                          1.541891e-10
# Wavelength                          1.54189e-10
# aux                                 0
# aux_dial                            0.002375
# beamx                               588.429
# beamx_dial                          588.429
# beamz                               657.855
# beamz_dial                          657.855
# det0x                               -0.000396875
# det0x_dial                          6.36905
# det0xvd                             -0.0005
# det0xvd_dial                        -0.0005
# det0y                               450.002
# det0y_dial                          481.635
# det0z                               0
# det0z_dial                          1.2295
# det0zvd                             0
# det0zvd_dial                        0
# mag                                 1.818
# mag_dial                            1.818
# om                                  0.2499
# om_dial                             -0.610199
# phi                                 -0.0120535
# phi_dial                            0
# ry                                  0.599993
# ry_dial                             0.599993
# s1bot                               0.8
# s1bot_dial                          -1.66094
# s1hl                                0.8
# s1hl_dial                           -0.608437
# s1hr                                0.8
# s1hr_dial                           0.970938
# s1top                               0.8
# s1top_dial                          -0.461562
# s2bot                               0.45
# s2bot_dial                          1.36109
# s2hl                                0.45
# s2hl_dial                           -0.83375
# s2hr                                0.45
# s2hr_dial                           -0.118594
# s2top                               0.45
# s2top_dial                          1.44734
# w2theta                             32
# w2theta_dial                        32
# waxsch                              19.2605
# waxsch_dial                         -32.7238
# waxsh                               137.085
# waxsh_dial                          -43.5335
# waxsth                              26.0607
# waxsth_dial                         -19.4068
# waxsz                               67.0407
# waxsz_dial                          -23.7962
# wind                                65.9854
# wind_dial                           66.0041
# wpsi                                124
# wpsi_dial                           124
# wstod                               115
# wstod_dial                          115
# x                                   0
# x_dial                              1.00969
# z                                   0
# z_dial                              13.3172
# CountCutoff                         6807993
# DetectorModel                       Dectris EIGER2 Si 500K, S/N E-01-0554
# ThresholdSetting                    4023.88989258
# Saturation                          0
# FlatField                           Corrected
# BackgroundReductionExtra            0.02
# BackgroundCorrectionConstant        0.0026712
# Detector                            0
# Monitor                             0
# Pil_Roi0                            0
# SumForIntensity1                    3.1967e+08
# TransmittedFlux                     887972
# det                                 0
# mon                                 0
# pilai0                              3.1967e+08
# pilai1                              693810
# pilct0                              5.52909e+08
# pilct1                              693810
# pilroi0                             0
# pilroi1                             0
# sec                                 1
# title                               20251017__1_00401.edf
# usaxs0                              0
# Operation                           Azimuthal average I(q)
# Error_model                         ErrorModel.poisson
# Geometrical_correction              True
# Transmission_correction             True
# Thickness_correction                False
# Binning mode                        Uniform
# Binning factor                      1.0
# Psi                                 0.0
# Omega                               0.2499
# MaskInvalidPixels                   True
# DetectorEdge                        3
# MaskFiles                           ['20251017__1_00233_mask.edf']
################################################################################
    q(A⁻¹)                Intensity(a.u.)            Sigma_I(a.u.)            
       0.690460           -2.28726741e-05                         0           
       0.693100             0.00631952941              0.0032887842           
       0.695741             0.00348273989             0.00206262201           
       0.698381             0.00720572766             0.00277488006           
       0.701021             0.00623485875             0.00210660675           
       0.703662             0.00414999673             0.00159087617           
       0.706302              0.0123232269             0.00264758904           
       0.708942             0.00917880112             0.00202966919           
       0.711583             0.00882679412             0.00199000529           
       0.714223             0.00698579584             0.00154271215           
       0.716864             0.00522430742             0.00136139147           
       0.719504             0.00870100022             0.00162603586           
       0.722144             0.00806244444             0.00151169644           
       0.724785             0.00704138965             0.00138957924           
       0.727425              0.0055993819             0.00114937577           
       0.730065             0.00785352803              0.0014006059           
       0.732706             0.00419833817            0.000920873782           
       0.735346              0.0048808721             0.00107251272           
       0.737987             0.00766071826              0.0011629912           
       0.740627             0.00609674429             0.00113657597           
       0.743267             0.00481174327            0.000868532816           
       0.745908             0.00803927439             0.00120316887           
       0.748548             0.00622339308            0.000987329205           
       0.751189             0.00775231991             0.00109157413           
       0.753829             0.00810253587             0.00112602485           
       0.756469             0.00550222671             0.00087274379           
       0.759110             0.00641408307            0.000974649379           
       0.761750             0.00492598284            0.000781710142           
       0.764390             0.00564306226            0.000898124385           
       0.767031             0.00638860725            0.000864719027           
       0.769671             0.00614201303            0.000899189951           
       0.772312             0.00673193248            0.000857851621           
       0.774952             0.00546494424            0.000828612501           
       0.777592             0.00940800597            0.000994403136           
       0.780233             0.00798349669            0.000965688629           
       0.782873              0.0063028625            0.000784636007           
       0.785513             0.00590465199            0.000807868862           
       0.788154             0.00695524185            0.000805350373           
       0.790794             0.00783343432            0.000884571914           
       0.793435             0.00723969551            0.000816789461           
       0.796075             0.00646329946            0.000775828273           
       0.798715             0.00536617203            0.000702885124           
       0.801356             0.00812425399            0.000841710937           
       0.803996             0.00679089115            0.000781843792           
       0.806637             0.00829818473            0.000816960906           
       0.809277             0.00666183852            0.000765783785           
       0.811917             0.00729599339            0.000758360791           
       0.814558             0.00534653765            0.000665050651           
       0.817198             0.00606281933             0.00067526898           
       0.819838             0.00635376777            0.000721080977           
       0.822479             0.00643937906            0.000668976959           
       0.825119             0.00591126228            0.000688553065           
       0.827760              0.0076162412             0.00072420446           
       0.830400             0.00584585632            0.000668500379           
       0.833040             0.00740199207            0.000702046919           
       0.835681             0.00608769813            0.000666735372           
       0.838321             0.00713173283            0.000675447663           
       0.840961             0.00673228748            0.000685950885           
       0.843602             0.00664715567            0.000642040217           
       0.846242             0.00772091944            0.000716387095           
       0.848883             0.00730550646            0.000677877132           
       0.851523             0.00749931177            0.000691957014           
       0.854163             0.00675995201            0.000649329591           
       0.856804             0.00678574004            0.000633920864           
       0.859444             0.00566582831            0.000583417532           
       0.862085             0.00602634363             0.00059294021           
       0.864725             0.00609942598            0.000594334659           
       0.867365             0.00682469148            0.000624175487           
       0.870006             0.00752537585            0.000664579215           
       0.872646             0.00683741128            0.000605904318           
       0.875286             0.00643498362            0.000607831479           
       0.877927             0.00674501427            0.000595828149           
       0.880567             0.00767018484            0.000647791061           
       0.883208              0.0069296629            0.000597944621           
       0.885848             0.00646908561            0.000592714382           
       0.888488             0.00638105811            0.000559717463           
       0.891129             0.00570752884            0.000556446164           
       0.893769             0.00646284928            0.000559702304           
       0.896410             0.00747623382             0.00062052939           
       0.899050             0.00683422065            0.000572045651           
       0.901690             0.00630020137            0.000560706263           
       0.904331             0.00678929122            0.000561742043           
       0.906971              0.0074975202            0.000609556327           
       0.909611             0.00613368922            0.000529189328           
       0.912252              0.0068113944            0.000567321512           
       0.914892             0.00676803047            0.000551188976           
       0.917533              0.0077028965            0.000601294057           
       0.920173             0.00774481641            0.000578357869           
       0.922813             0.00698246776            0.000573877588           
       0.925454             0.00702257897            0.000546206118           
       0.928094             0.00651726413            0.000537482453           
       0.930734             0.00763761808            0.000567963173           
       0.933375             0.00661283332            0.000539753802           
       0.936015             0.00672839693            0.000520938513           
       0.938656              0.0065815084            0.000536832038           
       0.941296             0.00750371333            0.000552572825           
       0.943936             0.00767393748            0.000568869266           
       0.946577             0.00634314434            0.000498092271           
       0.949217             0.00626449628            0.000512476081           
       0.951858             0.00716400409            0.000518102858           
       0.954498             0.00651956257            0.000519973225           
       0.957138             0.00834098068            0.000565289265           
       0.959779             0.00725087156            0.000538584867           
       0.962419             0.00767400989            0.000533407623           
       0.965059             0.00839238086            0.000573660006           
       0.967700             0.00817931458            0.000548017178           
       0.970340              0.0069930073            0.000520958264           
       0.972981             0.00829206825            0.000547731332           
       0.975621             0.00756472468            0.000534111809           
       0.978261             0.00693824131            0.000488051632           
       0.980902             0.00770663967            0.000538859287           
       0.983542             0.00771736159            0.000523533029           
       0.986182             0.00817989775            0.000546091734           
       0.988823             0.00709691208            0.000492246417           
       0.991463             0.00734658649            0.000512792686           
       0.994104             0.00732351152            0.000494729014           
       0.996744             0.00722313995             0.00050726024           
       0.999384             0.00633197368            0.000458818892           
       1.002025             0.00660713295             0.00048173145           
       1.004665                0.00646209            0.000456899604           
       1.007306             0.00627831924            0.000465446578           
       1.009946             0.00816239914            0.000510294143           
       1.012586             0.00780978448            0.000513508433           
       1.015227             0.00695514694            0.000469929042           
       1.017867               0.007409515             0.00049893557           
       1.020507             0.00722156378            0.000474023891           
       1.023148             0.00787161304            0.000500876503           
       1.025788             0.00596951025            0.000431716007           
       1.028429             0.00691662007            0.000474862068           
       1.031069             0.00793795606            0.000490122071           
       1.033709              0.0072899096            0.000478709057           
       1.036350             0.00743756895            0.000470853769           
       1.038990              0.0079854698             0.00049993363           
       1.041630             0.00731511957            0.000469284522           
       1.044271             0.00747523137            0.000474445791           
       1.046911             0.00737956635            0.000462641603           
       1.049552             0.00757078093            0.000485484236           
       1.052192             0.00773803773            0.000468746341           
       1.054832             0.00767754898             0.00047599068           
       1.057473             0.00833842971            0.000489774491           
       1.060113             0.00699037209            0.000453295842           
       1.062754             0.00768718751             0.00047009457           
       1.065394             0.00833630781            0.000484389598           
       1.068034             0.00785099555            0.000468258493           
       1.070675             0.00795197962            0.000479549295           
       1.073315             0.00791042836            0.000463674862           
       1.075955             0.00786680077            0.000470149456           
       1.078596             0.00818773275            0.000478695572           
       1.081236             0.00837483136            0.000476953314           
       1.083877             0.00823011989            0.000487584796           
       1.086517             0.00744246152            0.000453177374           
       1.089157             0.00807648739             0.00047554727           
       1.091798             0.00812425169            0.000466846084           
       1.094438             0.00770059491             0.00046173433           
       1.097078             0.00765443474             0.00044851854           
       1.099719             0.00839827536            0.000481847016           
       1.102359              0.0081247182            0.000448967262           
       1.105000             0.00844329664            0.000475710169           
       1.107640             0.00837044963            0.000458213609           
       1.110280             0.00793025489            0.000454932897           
       1.112921             0.00787209699            0.000445060202           
       1.115561             0.00840129558            0.000465611261           
       1.118202                0.00827903            0.000448720332           
       1.120842             0.00949973368            0.000495808777           
       1.123482             0.00870075168            0.000461190183           
       1.126123             0.00839301293            0.000455787658           
       1.128763             0.00781654139            0.000437674752           
       1.131403             0.00825567439             0.00044910181           
       1.134044             0.00933524364            0.000476734855           
       1.136684             0.00834773184            0.000454202911           
       1.139325             0.00860338951              0.0004481138           
       1.141965              0.0083747956            0.000447902729           
       1.144605             0.00845565474            0.000452703383           
       1.147246             0.00876881454            0.000452279237           
       1.149886             0.00839520377            0.000445686573           
       1.152527             0.00860203667             0.00045159542           
       1.155167             0.00842966552            0.000440762396           
       1.157807             0.00838724315             0.00043995481           
       1.160448              0.0095814035             0.00047666678           
       1.163088             0.00883690796            0.000440790081           
       1.165728             0.00829381745            0.000444631877           
       1.168369             0.00788587614            0.000418081294           
       1.171009             0.00945462208            0.000461576488           
       1.173650             0.00831839388            0.000429831493           
       1.176290             0.00907076276            0.000454115797           
       1.178930             0.00868253721            0.000431801986           
       1.181571             0.00899140124            0.000453767103           
       1.184211             0.00916135197            0.000444202066           
       1.186851             0.00941994407            0.000454580745           
       1.189492             0.00913790694            0.000450210072           
       1.192132             0.00890101913             0.00043775549           
       1.194773             0.00831029466            0.000420428244           
       1.197413             0.00931123988            0.000448658367           
       1.200053             0.00879524117            0.000433306086           
       1.202694             0.00880552744            0.000430292211           
       1.205334              0.0102786572            0.000469976051           
       1.207975              0.0095680909             0.00044455582           
       1.210615             0.00979655913            0.000459344311           
       1.213255             0.00964980287            0.000443830034           
       1.215896              0.0101411328            0.000463613141           
       1.218536             0.00883887367            0.000420357276           
       1.221176             0.00941702115            0.000444243608           
       1.223817             0.00898933238            0.000424994071           
       1.226457             0.00907694563            0.000432484493           
       1.229098             0.00964169538             0.00043897347           
       1.231738             0.00919251694            0.000434661995           
       1.234378             0.00990268508            0.000442373782           
       1.237019             0.00898559155             0.00042479086           
       1.239659             0.00993645779            0.000446460028           
       1.242299               0.009609504            0.000436808741           
       1.244940             0.00978451568             0.00043601067           
       1.247580              0.0095065202            0.000431669757           
       1.250221             0.00955319689              0.0004397918           
       1.252861              0.0095762335            0.000423916901           
       1.255501             0.00907954382            0.000424431298           
       1.258142             0.00993932961            0.000435293273           
       1.260782              0.0104982753            0.000452418689           
       1.263423             0.00993451536            0.000431384337           
       1.266063              0.0100945763             0.00044295053           
       1.268703              0.0102391447            0.000434871316           
       1.271344              0.0103755476            0.000447292731           
       1.273984              0.0102576605            0.000437801602           
       1.276624              0.0103087583            0.000436212817           
       1.279265             0.00994254697            0.000429330003           
       1.281905             0.00955249007            0.000423418084           
       1.284546               0.010246973            0.000433748894           
       1.287186             0.00987769921            0.000426270723           
       1.289826              0.0107963681            0.000447963617           
       1.292467             0.00989242113            0.000421147145           
       1.295107             0.00935243802             0.00041670946           
       1.297747             0.00971388292            0.000413546144           
       1.300388              0.0102834494            0.000436423885           
       1.303028             0.00990044409            0.000417330226           
       1.305669              0.0100212454            0.000425293248           
       1.308309              0.0109121525            0.000437122534           
       1.310949              0.0104468406            0.000433032049           
       1.313590             0.00980168843            0.000412956588           
       1.316230             0.00989472096            0.000422380176           
       1.318871             0.00952464916            0.000405465987           
       1.321511               0.010222064            0.000422153295           
       1.324151              0.0104148744            0.000427799837           
       1.326792              0.0101377997            0.000418651928           
       1.329432              0.0105433658            0.000429171031           
       1.332072             0.00999506476            0.000410697337           
       1.334713              0.0105861172            0.000427907967           
       1.337353              0.0106766062            0.000423122636           
       1.339994              0.0104555202            0.000424682854           
       1.342634              0.0107864876            0.000421641324           
       1.345274              0.0109196462            0.000429782067           
       1.347915              0.0104063869            0.000420675342           
       1.350555              0.0101407717            0.000413649549           
       1.353195              0.0104127028            0.000411140314           
       1.355836              0.0115476041            0.000441135637           
       1.358476              0.0100373559            0.000410121653           
       1.361117              0.0102846043            0.000404727924           
       1.363757              0.0106557089            0.000425618041           
       1.366397              0.0103251323            0.000405917073           
       1.369038              0.0109602311             0.00042702955           
       1.371678              0.0111126224            0.000421305636           
       1.374319              0.0101827089            0.000406491533           
       1.376959             0.00976467967            0.000392580211           
       1.379599              0.0107101211            0.000419160553           
       1.382240              0.0105280278            0.000407688609           
       1.384880              0.0105889182            0.000413885911           
       1.387520              0.0100679408            0.000398857313           
       1.390161              0.0109816505            0.000415431134           
       1.392801              0.0102680243            0.000404100577           
       1.395442             0.00995877442             0.00039384524           
       1.398082              0.0102813986             0.00040154333           
       1.400722              0.0103027024             0.00040014324           
       1.403363              0.0100984706            0.000399833602           
       1.406003              0.0111387941            0.000409612584           
       1.408644              0.0105947483            0.000407870784           
       1.411284              0.0108334944            0.000410178839           
       1.413924              0.0109776877            0.000407806984           
       1.416565              0.0108657217            0.000405245013           
       1.419205              0.0104465315            0.000401265234           
       1.421845              0.0108926739            0.000404592914           
       1.424486              0.0114148093            0.000416004884           
       1.427126              0.0110840738            0.000409675227           
       1.429767              0.0106278879            0.000394974416           
       1.432407              0.0106329129            0.000405020096           
       1.435047              0.0104282497             0.00038904983           
       1.437688              0.0101683078            0.000392677772           
       1.440328               0.010662972            0.000394323282           
       1.442968              0.0102849785            0.000392631974           
       1.445609              0.0102802178            0.000386084548           
       1.448249              0.0103301864            0.000389524154           
       1.450890              0.0107862555            0.000395190513           
       1.453530             0.00979948567            0.000379470323           
       1.456170             0.00985753958            0.000379735837           
       1.458811              0.0100803551            0.000380948496           
       1.461451              0.0109065207            0.000399164799           
       1.464092              0.0107658761            0.000393125865           
       1.466732              0.0101279399            0.000378961871           
       1.469372              0.0107614017            0.000389432636           
       1.472013             0.00970340515            0.000376410078           
       1.474653              0.0105261736            0.000382363406           
       1.477293             0.00967325796            0.000372714918           
       1.479934              0.0104972378            0.000384200944           
       1.482574             0.00988081253            0.000371829713           
       1.485215              0.0116234541            0.000404326523           
       1.487855             0.00977813841             0.00037076864           
       1.490495              0.0100600626            0.000375266229           
       1.493136              0.0101659572            0.000372289005           
       1.495776             0.00998812235            0.000375452078           
       1.498416             0.00975697709            0.000363873214           
       1.501057              0.0102089137            0.000375406457           
       1.503697             0.00967210751            0.000361890109           
       1.506338             0.00985416873             0.00036796652           
       1.508978              0.0108521512            0.000383870205           
       1.511618              0.0099604361            0.000367575136           
       1.514259             0.00982465247            0.000365720412           
       1.516899              0.0104046322            0.000376535704           
       1.519540              0.0105765943            0.000377527799           
       1.522180              0.0100777542            0.000363915149           
       1.524820             0.00982755441            0.000366627685           
       1.527461             0.00954531361            0.000353331498           
       1.530101              0.0101778817            0.000368623657           
       1.532741             0.00990529067            0.000361930848           
       1.535382              0.0106673116            0.000376421867           
       1.538022              0.0101079181            0.000363177274           
       1.540663              0.0100453703            0.000365473612           
       1.543303             0.00979966682            0.000356484221           
       1.545943              0.0105125197            0.000371291671           
       1.548584              0.0103057577            0.000369579829           
       1.551224              0.0097546371            0.000350343925           
       1.553864              0.0099029509             0.00036221876           
       1.556505              0.0100445722            0.000359187883           
       1.559145             0.00962834695            0.000352480151           
       1.561786             0.00970995086            0.000352367121           
       1.564426             0.00901527326            0.000339221881           
       1.567066             0.00966431545            0.000348479262           
       1.569707             0.00969818767            0.000354143344           
       1.572347             0.00913036194            0.000339161297           
       1.574988             0.00981878981            0.000350323912           
       1.577628             0.00906441552            0.000344175777           
       1.580268             0.00971358933            0.000343991839           
       1.582909             0.00883954024            0.000334288279           
       1.585549             0.00963771428             0.00034579255           
       1.588189             0.00932098043            0.000343861183           
       1.590830             0.00949348888            0.000341071648           
       1.593470             0.00928447146            0.000340050533           
       1.596111             0.00933923566            0.000338105005           
       1.598751             0.00877038915            0.000330995821           
       1.601391             0.00948452188            0.000342007161           
       1.604032             0.00888449404            0.000328247837           
       1.606672             0.00911879858            0.000339241113           
       1.609312             0.00895042661            0.000326094047           
       1.611953             0.00884789504            0.000328919608           
       1.614593             0.00911046269             0.00033122587           
       1.617234              0.0090288439            0.000331607926           
       1.619874             0.00857261457            0.000319319946           
       1.622514             0.00910198135            0.000331941421           
       1.625155             0.00887630698            0.000326989852           
       1.627795             0.00822688742             0.00031161974           
       1.630436             0.00845006698            0.000318992699           
       1.633076             0.00815209356            0.000311726067           
       1.635716             0.00814173725            0.000310984732           
       1.638357             0.00861158972            0.000318473333           
       1.640997             0.00930651371            0.000333663001           
       1.643637             0.00858051386            0.000314435047           
       1.646278              0.0085158785             0.00031793734           
       1.648918             0.00859756162            0.000315340031           
       1.651559             0.00851635009            0.000317793232           
       1.654199             0.00848707713            0.000312897999           
       1.656839              0.0088159957            0.000318817716           
       1.659480              0.0091020179            0.000326801314           
       1.662120             0.00830071151            0.000307902747           
       1.664761             0.00850987597             0.00031513339           
       1.667401             0.00816209159            0.000305751602           
       1.670041             0.00839500303            0.000310438195           
       1.672682              0.0083834308            0.000307304997           
       1.675322             0.00823577022            0.000309972012           
       1.677962             0.00904784168            0.000318442463           
       1.680603              0.0077138486            0.000296641134           
       1.683243             0.00877281955             0.00031400798           
       1.685884             0.00798948163            0.000300801429           
       1.688524             0.00847688538            0.000308969169           
       1.691164             0.00803742696            0.000300080524           
       1.693805             0.00863358413            0.000313525383           
       1.696445             0.00860105996            0.000308590947           
       1.699085             0.00843245921            0.000306771308           
       1.701726             0.00883367717            0.000309900455           
       1.704366             0.00820263299            0.000305892578           
       1.707007             0.00821268149             0.00029954833           
       1.709647             0.00862168201            0.000310730081           
       1.712287             0.00798484054             0.00029403646           
       1.714928             0.00872483496            0.000310450123           
       1.717568              0.0079284983            0.000293222043           
       1.720209             0.00834557873            0.000302693397           
       1.722849             0.00801564548            0.000297125381           
       1.725489             0.00823659034            0.000296391893           
       1.728130             0.00907905947            0.000317515636           
       1.730770             0.00823254936            0.000295960348           
       1.733410             0.00824304379            0.000300036668           
       1.736051             0.00841303181            0.000298409639           
       1.738691             0.00863995916            0.000305494127           
       1.741332             0.00823553463            0.000296422538           
       1.743972             0.00790512937            0.000290523232           
       1.746612             0.00781875951            0.000288998245           
       1.749253             0.00859731621            0.000304355065           
       1.751893             0.00856823406            0.000302016974           
       1.754533             0.00870516353            0.000300242567           
       1.757174             0.00838083903            0.000300104441           
       1.759814             0.00847380684            0.000297163802           
       1.762455             0.00795215691            0.000290322563           
       1.765095             0.00876332563            0.000300490436           
       1.767735             0.00848821768            0.000300761413           
       1.770376             0.00832275258            0.000293299098           
       1.773016             0.00823415969            0.000292194306           
       1.775657             0.00846371341            0.000296846163           
       1.778297             0.00855157316            0.000299842624           
       1.780937             0.00886042134            0.000303784907           
       1.783578             0.00834181698            0.000293376424           
       1.786218             0.00896261805            0.000308949768           
       1.788858             0.00880516912            0.000298615826           
       1.791499             0.00850605859            0.000298909284           
       1.794139             0.00787902195             0.00028236882           
       1.796780              0.0089888906            0.000303393665           
       1.799420             0.00886403946            0.000300895729           
       1.802060             0.00917429032            0.000302351234           
       1.804701             0.00929587252            0.000308431176           
       1.807341             0.00933937484            0.000306164805           
       1.809981             0.00985534952            0.000316597224           
       1.812622             0.00908650454            0.000302340893           
       1.815262             0.00879779279            0.000298559631           
       1.817903              0.0082591534            0.000285701858           
       1.820543             0.00866062592            0.000296179464           
       1.823183             0.00890016591             0.00029562124           
       1.825824             0.00868165538            0.000296360482           
       1.828464             0.00819439897            0.000287040404           
       1.831105             0.00861795485            0.000295504907           
       1.833745              0.0088249581            0.000298846211           
       1.836385             0.00852097117            0.000292511921           
       1.839026             0.00867224539            0.000299533017           
       1.841666              0.0080063285            0.000284066163           
       1.844306             0.00911168875             0.00030686739           
       1.846947             0.00895034462             0.00030022993           
       1.849587             0.00907092709            0.000306344882           
       1.852228             0.00846604174            0.000292806808           
       1.854868             0.00850469826            0.000298857064           
       1.857508             0.00904441992            0.000302503422           
       1.860149             0.00829574466            0.000292034943           
       1.862789             0.00911339163            0.000307443014           
       1.865429             0.00845200561            0.000296969519           
       1.868070              0.0085649032            0.000297913334           
       1.870710             0.00881319887            0.000303023713           
       1.873351             0.00878495997            0.000304469285           
       1.875991             0.00899199065            0.000309702295           
       1.878631             0.00892611686            0.000305697806           
       1.881272             0.00913823798             0.00030858425           
       1.883912             0.00934588417            0.000315730407           
       1.886553             0.00866486679            0.000300362761           
       1.889193             0.00863215123            0.000303258314           
       1.891833             0.00910846794            0.000307967796           
       1.894474             0.00921103922            0.000312148061           
       1.897114             0.00902505409            0.000306583945           
       1.899754             0.00890777209            0.000308001258           
       1.902395               0.008624104            0.000303122037           
       1.905035             0.00894578472            0.000307513673           
       1.907676             0.00914875029             0.00031134414           
       1.910316             0.00923663906            0.000314830744           
       1.912956             0.00906078271            0.000311806918           
       1.915597             0.00891219964            0.000306015824           
       1.918237             0.00925857387            0.000316640487           
       1.920878             0.00895168327            0.000305838367           
       1.923518             0.00943781184            0.000322376404           
       1.926158             0.00905513422            0.000308516878           
       1.928799             0.00905678577            0.000312645103           
       1.931439             0.00895938531            0.000308467392           
       1.934079             0.00918815355            0.000315544198           
       1.936720             0.00885571082            0.000307959844           
       1.939360             0.00842689681            0.000303306575           
       1.942001             0.00891058066            0.000310689835           
       1.944641             0.00837133788            0.000299844444           
       1.947281             0.00825195547            0.000299137033           
       1.949922             0.00952590099            0.000321801457           
       1.952562             0.00874691774            0.000311016649           
       1.955202             0.00875601242            0.000303360022           
       1.957843             0.00907663736            0.000318675862           
       1.960483             0.00865507768            0.000306223838           
       1.963124             0.00829440051            0.000299553113           
       1.965764             0.00798672522            0.000294049842           
       1.968404             0.00898733916            0.000317504322           
       1.971045             0.00784443456            0.000289194209           
       1.973685             0.00775137195            0.000292838289           
       1.976326             0.00884028529            0.000311368093           
       1.978966             0.00826765271            0.000302539656           
       1.981606             0.00863240252            0.000305871963           
       1.984247              0.0085675513             0.00030737793           
       1.986887             0.00838760784            0.000306977251           
       1.989527             0.00845086735            0.000301713237           
       1.992168             0.00859170954            0.000311556873           
       1.994808             0.00793678526              0.0002959639           
       1.997449             0.00870662955            0.000309530969           
       2.000089             0.00802262313            0.000295374117           
       2.002729              0.0080852398            0.000303319266           
       2.005370             0.00849823378            0.000305058199           
       2.008010             0.00855503185            0.000310139601           
       2.010650             0.00762242921            0.000291909979           
       2.013291              0.0081963189            0.000304422413           
       2.015931             0.00865011951             0.00031049798           
       2.018572             0.00789059117            0.000300491675           
       2.021212             0.00791654099            0.000298284128           
       2.023852             0.00828916736            0.000306826831           
       2.026493             0.00788328256            0.000297909272           
       2.029133             0.00763602424            0.000290963443           
       2.031774             0.00768229776            0.000294673919           
       2.034414             0.00794872126            0.000297951248           
       2.037054             0.00802659946            0.000303182586           
       2.039695             0.00826544288            0.000301600237           
       2.042335             0.00750792445            0.000292340275           
       2.044975              0.0081376634            0.000301921251           
       2.047616             0.00810016847            0.000302515652           
       2.050256             0.00721532361            0.000282156371           
       2.052897             0.00779101601            0.000301880271           
       2.055537             0.00778215011            0.000293482713           
       2.058177             0.00769952247            0.000294499128           
       2.060818             0.00773925939            0.000296144507           
       2.063458             0.00766899599            0.000295203153           
       2.066098             0.00763032886            0.000293151268           
       2.068739             0.00768091501            0.000297188112           
       2.071379             0.00784166666            0.000295847424           
       2.074020             0.00706853092             0.00028473116           
       2.076660             0.00778051554            0.000296702171           
       2.079300             0.00755497253            0.000292327759           
       2.081941             0.00734286498            0.000289947034           
       2.084581             0.00741405959            0.000291565085           
       2.087222             0.00770752846            0.000297482077           
       2.089862              0.0072849273            0.000285606955           
       2.092502             0.00732912744            0.000291677266           
       2.095143             0.00767985695            0.000294307514           
       2.097783             0.00771717263             0.00029951094           
       2.100423             0.00751521584            0.000289898531           
       2.103064             0.00707775564            0.000286192001           
       2.105704             0.00785215111            0.000300288983           
       2.108345              0.0075212701            0.000295243228           
       2.110985             0.00768421783            0.000294232655           
       2.113625             0.00738788557            0.000293049099           
       2.116266             0.00815398952            0.000305589908           
       2.118906             0.00786286082            0.000299866767           
       2.121546             0.00790820972            0.000300491482           
       2.124187             0.00803937969            0.000307163913           
       2.126827             0.00739137003              0.0002899055           
       2.129468             0.00750890348            0.000295250683           
       2.132108             0.00766593066            0.000297704568           
       2.134748             0.00789521388            0.000300985241           
       2.137389             0.00730118549             0.00029186518           
       2.140029             0.00725032557            0.000290140533           
       2.142670             0.00757229646            0.000296997301           
       2.145310             0.00758053317            0.000298294076           
       2.147950             0.00741231232            0.000296106051           
       2.150591             0.00788870035            0.000302671766           
       2.153231             0.00719251722            0.000293280621           
       2.155871             0.00783228959            0.000301626413           
       2.158512             0.00735283477            0.000297514677           
       2.161152             0.00678714065            0.000278700674           
       2.163793              0.0075081259            0.000297899699           
       2.166433             0.00777042761            0.000297803369           
       2.169073              0.0073834365            0.000297070568           
       2.171714             0.00749382112            0.000293189997           
       2.174354             0.00828120331            0.000312917943           
       2.176995             0.00793143129             0.00030369802           
       2.179635               0.007747758            0.000305841557           
       2.182275             0.00699995056            0.000284936531           
       2.184916             0.00727239542            0.000296566773           
       2.187556             0.00714169274            0.000289158316           
       2.190196             0.00696538643            0.000290055309           
       2.192837             0.00701998363            0.000288001176           
       2.195477             0.00754934448            0.000301543548           
       2.198118             0.00759058599            0.000296783867           
       2.200758             0.00719586493            0.000293451674           
       2.203398             0.00748046265            0.000294236691           
       2.206039             0.00713302302            0.000291714032           
       2.208679             0.00756226147            0.000297422706           
       2.211319             0.00741768723            0.000295952457           
       2.213960             0.00757619931            0.000295917781           
       2.216600             0.00723012171            0.000295891264           
       2.219241             0.00723793575            0.000291747015           
       2.221881              0.0076357726            0.000301219739           
       2.224521             0.00756075415            0.000298696774           
       2.227162             0.00768061456            0.000305783718           
       2.229802             0.00764419161            0.000300105997           
       2.232443             0.00727801116             0.00029398101           
       2.235083             0.00736851275            0.000294029454           
       2.237723             0.00720848411            0.000293047758           
       2.240364             0.00731371347            0.000293677563           
       2.243004             0.00776286841            0.000303475038           
       2.245644             0.00694696937            0.000286421427           
       2.248285              0.0072511324            0.000294524125           
       2.250925              0.0073660816            0.000295461306           
       2.253566             0.00738112161            0.000296485987           
       2.256206             0.00793400099            0.000306468789           
       2.258846             0.00761986917            0.000300343168           
       2.261487             0.00726093786            0.000293691233           
       2.264127             0.00748484732            0.000301006562           
       2.266767             0.00751337417            0.000296705206           
       2.269408             0.00688163533            0.000287330103           
       2.272048             0.00756501924            0.000299406047           
       2.274689              0.0072855247            0.000294978514           
       2.277329             0.00718811115            0.000292610486           
       2.279969             0.00691599859            0.000287888472           
       2.282610             0.00748507367            0.000296577925           
       2.285250             0.00726083454             0.00029669572           
       2.287891             0.00772471153            0.000302938436           
       2.290531             0.00747321607            0.000299435574           
       2.293171             0.00675626733            0.000284696172           
       2.295812             0.00732098513            0.000294782562           
       2.298452             0.00732581241            0.000296768355           
       2.301092             0.00717236443            0.000295509107           
       2.303733             0.00726756857            0.000291580218           
       2.306373             0.00743789815            0.000302192192           
       2.309014             0.00755734115             0.00029873907           
       2.311654             0.00734692305             0.00029734626           
       2.314294             0.00676899664            0.000284788681           
       2.316935             0.00701653219             0.00029109511           
       2.319575             0.00710358168            0.000291798477           
       2.322215             0.00712195987             0.00029633914           
       2.324856             0.00745248798            0.000295525155           
       2.327496             0.00728856669            0.000299419548           
       2.330137             0.00737910874            0.000295717337           
       2.332777             0.00703930337            0.000291987221           
       2.335417             0.00693345262            0.000288913637           
       2.338058             0.00756628083            0.000303018542           
       2.340698             0.00710862282            0.000290819503           
       2.343339             0.00763130151            0.000307071527           
       2.345979             0.00656540817              0.0002791369           
       2.348619             0.00683650319            0.000290220743           
       2.351260             0.00766152891            0.000300702986           
       2.353900             0.00723491602            0.000298400908           
       2.356540             0.00772507928            0.000304102824           
       2.359181              0.0075940663            0.000305544968           
       2.361821              0.0070505759             0.00029082127           
       2.364462             0.00697219182             0.00029403352           
       2.367102             0.00704652111            0.000287048725           
       2.369742             0.00648662842            0.000285278546           
       2.372383             0.00669817761            0.000281442488           
       2.375023             0.00728758333            0.000301212778           
       2.377663             0.00657620309             0.00028005334           
       2.380304             0.00743252858            0.000301859224           
       2.382944             0.00700688288            0.000290221666           
       2.385585             0.00716895475            0.000296334157           
       2.388225             0.00721896315             0.00029602236           
       2.390865             0.00732169737            0.000298884694           
       2.393506             0.00729485639            0.000296961471           
       2.396146             0.00721691847            0.000296349857           
       2.398787             0.00720697412            0.000296404651           
       2.401427             0.00675478183             0.00028521288           
       2.404067             0.00699883368            0.000294750723           
       2.406708             0.00720594606            0.000295320976           
       2.409348             0.00744289895            0.000302395068           
       2.411988             0.00656717862            0.000283141681           
       2.414629             0.00626870692            0.000277537735           
       2.417269             0.00759873475            0.000302790097           
       2.419910             0.00694899276            0.000293207112           
       2.422550             0.00721967802            0.000294326549           
       2.425190             0.00702386728            0.000299448091           
       2.427831              0.0074360804            0.000296522132           
       2.430471             0.00731074457            0.000302606963           
       2.433112             0.00678232745            0.000284588242           
       2.435752             0.00666543392            0.000289267465           
       2.438392             0.00740649321            0.000299798855           
       2.441033             0.00744107935            0.000301875023           
       2.443673             0.00684283089            0.000290258737           
       2.446313             0.00691239186            0.000290175998           
       2.448954             0.00718079947            0.000298351262           
       2.451594             0.00671476822             0.00028677633           
       2.454235             0.00757545109            0.000303653712           
       2.456875             0.00788511901            0.000311367132           
       2.459515              0.0078223847            0.000310604214           
       2.462156             0.00757247318            0.000304026963           
       2.464796             0.00764757172             0.00031092016           
       2.467436             0.00718495873            0.000295050228           
       2.470077             0.00782754415            0.000312208267           
       2.472717             0.00815361221            0.000314657606           
       2.475358             0.00733660524            0.000301858535           
       2.477998             0.00702924386            0.000293891466           
       2.480638             0.00785852977            0.000311499445           
       2.483279             0.00717039667            0.000298827074           
       2.485919             0.00752707542             0.00030402541           
       2.488560             0.00715599337            0.000297666122           
       2.491200               0.007385365            0.000301984454           
       2.493840              0.0070031076            0.000292464391           
       2.496481             0.00675413758            0.000290974503           
       2.499121             0.00715225621            0.000295440647           
       2.501761             0.00669633236            0.000290723316           
       2.504402               0.007315158            0.000298036594           
       2.507042             0.00759849945            0.000308803139           
       2.509683             0.00695897344            0.000292831096           
       2.512323              0.0072581407            0.000300230284           
       2.514963              0.0135070721            0.000410379143           
       2.517604              0.0187043575            0.000481030378           
       2.520244             0.00999384156            0.000351691832           
       2.522884             0.00765744586            0.000307175778           
       2.525525             0.00802882177             0.00031712002           
       2.528165              0.0172555425            0.000462779442           
       2.530806              0.0293891501            0.000601686086           
       2.533446              0.0140969365            0.000420417944           
       2.536086               0.009993432            0.000351007102           
       2.538727              0.0104422398             0.00036110269           
       2.541367              0.0101987293            0.000355846993           
       2.544008              0.0072832785            0.000300968797           
       2.546648             0.00692685925            0.000293845517           
       2.549288             0.00744051496            0.000304589478           
       2.551929             0.00697719883            0.000295928049           
       2.554569             0.00673422288            0.000288072896           
       2.557209              0.0068131823            0.000293030711           
       2.559850             0.00745074502            0.000302910991           
       2.562490             0.00715286602            0.000298955088           
       2.565131             0.00628244321            0.000280662994           
       2.567771             0.00680495211            0.000290553099           
       2.570411              0.0065836014            0.000289266235           
       2.573052              0.0068061673              0.0002906819           
       2.575692             0.00755743811             0.00030711747           
       2.578332             0.00737961082            0.000302586205           
       2.580973             0.00682666816            0.000293389024           
       2.583613              0.0070771146            0.000296000049           
       2.586254             0.00731185878            0.000303530849           
       2.588894             0.00708706674            0.000297234578           
       2.591534             0.00694018964            0.000294679441           
       2.594175             0.00708393788            0.000299443733           
       2.596815             0.00701947387            0.000295306756           
       2.599456             0.00757266831            0.000309231975           
       2.602096             0.00667972814            0.000289341703           
       2.604736             0.00707853036            0.000298635001           
       2.607377             0.00630945487            0.000280867246           
       2.610017             0.00746653885            0.000305430977           
       2.612657              0.0073463232            0.000305102298           
       2.615298             0.00688184532            0.000292411098           
       2.617938             0.00702625056            0.000298047822           
       2.620579             0.00715772689             0.00029836614           
       2.623219             0.00675267197             0.00029443656           
       2.625859             0.00671432624            0.000288651113           
       2.628500             0.00735098783            0.000306853387           
       2.631140             0.00722074612            0.000298759823           
       2.633780             0.00675040565            0.000292575988           
       2.636421             0.00700536137            0.000295337765           
       2.639061             0.00774865376            0.000314324795           
       2.641702              0.0073724194            0.000303321313           
       2.644342             0.00700221798            0.000298032584           
       2.646982             0.00723784259            0.000302748249           
       2.649623             0.00720355342            0.000303840895           
       2.652263             0.00684643865             0.00029385668           
       2.654904             0.00698348054            0.000298394561           
       2.657544             0.00671096896            0.000290456584           
       2.660184             0.00728010784            0.000302909346           
       2.662825             0.00748047983            0.000307785544           
       2.665465              0.0070187424            0.000298686523           
       2.668105             0.00665047697              0.0002908602           
       2.670746             0.00733982878            0.000302977586           
       2.673386             0.00651848803             0.00028898333           
       2.676027             0.00737309019            0.000304730829           
       2.678667              0.0070972622            0.000300530785           
       2.681307              0.0074749616            0.000305998615           
       2.683948             0.00627848412            0.000283226705           
       2.686588             0.00732451901            0.000303104656           
       2.689229             0.00775961422            0.000314777334           
       2.691869             0.00726232451            0.000301484166           
       2.694509              0.0071139119            0.000302479745           
       2.697150             0.00707776751            0.000296894936           
       2.699790             0.00735114828            0.000308859589           
       2.702430             0.00674085197            0.000290090392           
       2.705071             0.00733167445            0.000306676823           
       2.707711              0.0067139364            0.000290562726           
       2.710352             0.00707024999            0.000299870402           
       2.712992             0.00655223643            0.000289614779           
       2.715632             0.00694478914             0.00029646814           
       2.718273             0.00707268831            0.000300178885           
       2.720913             0.00667364654            0.000292074713           
       2.723553             0.00662598584            0.000290018608           
       2.726194             0.00707112068            0.000301046948           
       2.728834              0.0067244575            0.000290965096           
       2.731475             0.00687411004            0.000296756084           
       2.734115             0.00695900237            0.000296803688           
       2.736755             0.00654558759            0.000289755413           
       2.739396             0.00644134426            0.000285918896           
       2.742036             0.00665324183            0.000292567097           
       2.744677             0.00697914406            0.000300085083           
       2.747317             0.00737454418            0.000306969965           
       2.749957             0.00711436667            0.000303693609           
       2.752598             0.00668060858            0.000295176248           
       2.755238             0.00675336772            0.000296645536           
       2.757878             0.00710857461            0.000303480358           
       2.760519             0.00761758725            0.000310840891           
       2.763159             0.00748081674            0.000313046388           
       2.765800             0.00713081563            0.000300458105           
       2.768440             0.00697190511            0.000301005103           
       2.771080             0.00686466946             0.00029616424           
       2.773721              0.0070644341            0.000304128387           
       2.776361             0.00668548099             0.00029268125           
       2.779001             0.00710882587             0.00030497821           
       2.781642             0.00669333527            0.000293912195           
       2.784282             0.00662034067            0.000292407136           
       2.786923             0.00649810985            0.000287491983           
       2.789563             0.00689668977            0.000296772807           
       2.792203             0.00694867828            0.000299785475           
       2.794844             0.00678809384            0.000294952971           
       2.797484             0.00663937036            0.000292114957           
       2.800125             0.00680034763            0.000295252996           
       2.802765              0.0071525078            0.000308414789           
       2.805405             0.00670483295            0.000294296619           
       2.808046             0.00626119688            0.000288754459           
       2.810686             0.00711052968            0.000304437778           
       2.813326              0.0071143648            0.000308287444           
       2.815967             0.00638432549            0.000290201521           
       2.818607             0.00704436224             0.00030788095           
       2.821248             0.00651811604            0.000292464929           
       2.823888             0.00622110824            0.000290326032           
       2.826528             0.00638923645            0.000292467578           
       2.829169             0.00668283978            0.000297791413           
       2.831809             0.00684120215            0.000301563101           
       2.834449             0.00657105968            0.000290390373           
       2.837090             0.00688461565            0.000299026793           
       2.839730             0.00700840755            0.000299560668           
       2.842371              0.0067476875            0.000295983857           
       2.845011             0.00659163732            0.000291888856           
       2.847651             0.00639085133            0.000287936723           
       2.850292             0.00717837304            0.000303428294           
       2.852932             0.00648699973            0.000288963571           
       2.855573             0.00706771129            0.000304269296           
       2.858213             0.00671009608            0.000293145111           
       2.860853             0.00710464649            0.000303898161           
       2.863494             0.00717884647            0.000306216535           
       2.866134             0.00700186603            0.000306660316           
       2.868774             0.00733914687             0.00030915343           
       2.871415             0.00668162252            0.000297899328           
       2.874055             0.00646428798            0.000294465791           
       2.876696             0.00717832725            0.000307508951           
       2.879336             0.00695197217            0.000304630573           
       2.881976             0.00725934303            0.000311035922           
       2.884617             0.00626772368            0.000287407111           
       2.887257             0.00683206364            0.000297974988           
       2.889897             0.00676568726            0.000299922761           
       2.892538              0.0068734059             0.00030020492           
       2.895178             0.00656087936            0.000290309523           
       2.897819             0.00643553957            0.000290480254           
       2.900459             0.00735501948            0.000307967802           
       2.903099             0.00684407033            0.000298629258           
       2.905740             0.00729930253            0.000304958524           
       2.908380             0.00630285767             0.00028715745           
       2.911021             0.00718295672            0.000307133913           
       2.913661             0.00708207154            0.000301613296           
       2.916301             0.00651490117            0.000293399217           
       2.918942             0.00684987312            0.000296308746           
       2.921582             0.00678919021            0.000298088312           
       2.924222              0.0064848041            0.000289639691           
       2.926863             0.00693485798            0.000300317387           
       2.929503             0.00724069911            0.000310274765           
       2.932144             0.00714580131            0.000303179447           
       2.934784             0.00696635614            0.000300620691           
       2.937424             0.00705936295            0.000303180538           
       2.940065             0.00701034743            0.000302372056           
       2.942705             0.00702031189            0.000303506299           
       2.945346             0.00741410895            0.000310060355           
       2.947986              0.0082780566            0.000328773674           
       2.950626             0.00965829434            0.000356218401           
       2.953267             0.00925012653             0.00034490668           
       2.955907             0.00813259173            0.000327677334           
       2.958547             0.00728389379            0.000306928745           
       2.961188             0.00733328478            0.000310656105           
       2.963828             0.00638494718            0.000288231273           
       2.966469             0.00657448809            0.000292550989           
       2.969109             0.00713280933            0.000306278394           
       2.971749             0.00890288819            0.000341171098           
       2.974390             0.00942222812            0.000351944075           
       2.977030             0.00824729361            0.000328643665           
       2.979670             0.00797687472            0.000321127053           
       2.982311             0.00739116374            0.000311343584           
       2.984951             0.00748781349            0.000314182864           
       2.987592             0.00796823751            0.000323011358           
       2.990232             0.00820295043             0.00032857103           
       2.992872             0.00927229464              0.0003465985           
       2.995513              0.0107354018            0.000375872293           
       2.998153              0.0172700268            0.000479811388           
       3.000794              0.0265963321            0.000586771276           
       3.003434              0.0237213097            0.000560025907           
       3.006074              0.0168614053            0.000473677844           
       3.008715              0.0154710263            0.000457183181           
       3.011355              0.0165263049            0.000477432258           
       3.013995              0.0157779735            0.000464216408           
       3.016636              0.0290182878            0.000630731169           
       3.019276               0.198650774             0.00168970149           
       3.021917                0.38132399             0.00230135245           
       3.024557               0.143305126             0.00142206792           
       3.027197              0.0786372013             0.00107110524           
       3.029838               0.175217749             0.00159120241           
       3.032478               0.108588645              0.0012601318           
       3.035118              0.0844878799             0.00111725092           
       3.037759              0.0742788053             0.00104942206           
       3.040399              0.0681302943             0.00101655092           
       3.043040              0.0672890472             0.00102006763           
       3.045680              0.0520614077            0.000883433977           
       3.048320              0.0760409911             0.00108481011           
       3.050961              0.0692159641             0.00104536065           
       3.053601               0.104028526             0.00127589335           
       3.056242              0.0742245933             0.00108465794           
       3.058882               0.112373193              0.0013544505           
       3.061522               0.272427321             0.00209429398           
       3.064163              0.0639730953             0.00101671804           
       3.066803              0.0218514392            0.000605702951           
       3.069443              0.0250642436            0.000644384094           
       3.072084              0.0753479416             0.00112720286           
       3.074724              0.0659150344             0.00106051197           
       3.077365              0.0140951691            0.000490057941           
       3.080005             0.00950459003            0.000406882008           
       3.082645             0.00931916172            0.000404944856           
       3.085286             0.00836959833             0.00038383005           
       3.087926             0.00847392977            0.000388672255           
       3.090566             0.00733366564            0.000365302204           
       3.093207             0.00753585933            0.000366302951           
       3.095847             0.00789958611            0.000382900041           
       3.098488             0.00838625761            0.000393803123           
       3.101128             0.00827816755            0.000393388364           
       3.103768             0.00827815275            0.000395604268           
       3.106409             0.00898727903            0.000414961253           
       3.109049              0.0103935039            0.000449715153           
       3.111690              0.0144307944            0.000527822962           
       3.114330              0.0210994976            0.000643911771           
       3.116970              0.0163970377            0.000575536706           
       3.119611                 0.0121332            0.000491861568           
       3.122251             0.00970901721            0.000443593393           
       3.124891             0.00801907648            0.000405100631           
       3.127532             0.00819462028            0.000416887456           
       3.130172             0.00952953304            0.000440314415           
       3.132813             0.00823990191            0.000417771021           
       3.135453             0.00684130831            0.000388698381           
       3.138093             0.00636459269            0.000366015627           
       3.140734             0.00612324586            0.000365690383           
       3.143374             0.00696077118            0.000395858585           
       3.146014             0.00639733857            0.000376744579           
       3.148655              0.0063785549            0.000379152898           
       3.151295             0.00702530527            0.000401060453           
       3.153936             0.00656841345            0.000393524636           
       3.156576             0.00501014411            0.000339744549           
       3.159216             0.00656645745            0.000392130404           
       3.161857             0.00582174081            0.000373754634           
       3.164497             0.00612157406            0.000391339549           
       3.167138             0.00563429976            0.000366433957           
       3.169778             0.00645429216            0.000399274977           
       3.172418             0.00565458885            0.000375905484           
       3.175059             0.00627980786            0.000401326644           
       3.177699             0.00596820297            0.000389697694           
       3.180339             0.00657195829            0.000412589471           
       3.182980             0.00648269612            0.000415309869           
       3.185620             0.00652495181            0.000421214354           
       3.188261             0.00682550934            0.000425162142           
       3.190901             0.00583093491            0.000399022276           
       3.193541             0.00579330372            0.000399043211           
       3.196182             0.00618082327            0.000420749263           
       3.198822             0.00667269187              0.0004318708           
       3.201463             0.00490017546            0.000374877421           
       3.204103             0.00636675616            0.000432999672           
       3.206743             0.00576810101            0.000415624619           
       3.209384             0.00621719124            0.000429577604           
       3.212024             0.00624774778            0.000432161756           
       3.214664             0.00641667713            0.000446313041           
       3.217305             0.00546136962            0.000421357919           
       3.219945             0.00613084712            0.000442704324           
       3.222586             0.00593902035            0.000438189323           
       3.225226             0.00571492723            0.000439526532           
       3.227866             0.00617729691            0.000460495984           
       3.230507             0.00643241811            0.000475516309           
       3.233147              0.0055977405            0.000437031749           
       3.235787             0.00546636298            0.000431990181           
       3.238428             0.00579372267            0.000452591821           
       3.241068             0.00644422588            0.000487002969           
       3.243709             0.00572232844            0.000456368211           
       3.246349             0.00526243834            0.000435196892           
       3.248989             0.00538718473             0.00045038936           
       3.251630             0.00542563204            0.000453993372           
       3.254270             0.00598747855            0.000491580806           
       3.256911             0.00579938545             0.00047167584           
       3.259551             0.00613945565            0.000496032138           
       3.262191             0.00534191758            0.000466950291           
       3.264832             0.00626325072            0.000510361568           
       3.267472             0.00560197634            0.000489513163           
       3.270112             0.00490284888            0.000459253594           
       3.272753             0.00472412809            0.000456345442           
       3.275393             0.00601779008            0.000517703499           
       3.278034             0.00572235289            0.000515119538           
       3.280674             0.00542676624            0.000503094852           
       3.283314             0.00472873747            0.000472220683           
       3.285955             0.00559888124            0.000523485619           
       3.288595             0.00557816804            0.000528345629           
       3.291235             0.00542459925            0.000524082748           
       3.293876             0.00557720433             0.00053454989           
       3.296516             0.00495896806            0.000514333181           
       3.299157             0.00495293788            0.000521789488           
       3.301797             0.00624743024            0.000586271944           
       3.304437             0.00532693214            0.000551508616           
       3.307078             0.00553275255            0.000567522346           
       3.309718             0.00506883704            0.000548630856           
       3.312359             0.00514624299            0.000563973808           
       3.314999              0.0062398917            0.000627530081           
       3.317639             0.00569330144            0.000605870194           
       3.320280             0.00538745209             0.00059797824           
       3.322920             0.00481948906            0.000574042277           
       3.325560             0.00451145385             0.00056611909           
       3.328201             0.00570318991            0.000639205427           
       3.330841              0.0059700267            0.000669893353           
       3.333482             0.00450101563            0.000589050261           
       3.336122             0.00502875221            0.000636158448           
       3.338762             0.00545116247            0.000668396089           
       3.341403             0.00673190288            0.000749667374           
       3.344043             0.00599027423            0.000734159415           
       3.346683             0.00592469378            0.000737534975           
       3.349324             0.00562111206            0.000729511562           
       3.351964             0.00490059252            0.000703052114           
       3.354605             0.00551285261            0.000754122089           
       3.357245             0.00458819096            0.000712159632           
       3.359885             0.00428209654            0.000688241583           
       3.362526             0.00481719068            0.000767302319           
       3.365166             0.00468630888            0.000747463138           
       3.367807             0.00592720685            0.000899853441           
       3.370447             0.00433197641            0.000769587718           
       3.373087             0.00601766534            0.000957294438           
       3.375728             0.00489460753            0.000856830728           
       3.378368             0.00606793845             0.00103088811           
       3.381008             0.00376809057            0.000805282388           
       3.383649             0.00395750432            0.000893134398           
       3.386289             0.00474572888            0.000978445523           
       3.388930             0.00309029817            0.000867132363           
       3.391570             0.00432389151             0.00102613538           
       3.394210             0.00551987586             0.00124226783           
       3.396851             0.00452098871             0.00121784039           
       3.399491             0.00464478489             0.00125680497           
       3.402131             0.00562580037             0.00163728788           
       3.404772             0.00508998898             0.00155803568           
       3.407412             0.00286994098             0.00145172101           
       3.410053             0.00455483007             0.00190436224           
       3.412693             0.00750670705             0.00345887791           
       3.415333             0.00656188082             0.00396229577           
