################################################################################
# EDF_DataBlockID                     0.Image.Psd
# EDF_BinarySize                      2105344
# EDF_HeaderSize                      2560
# ByteOrder                           LowByteFirst
# DataType                            FloatValue
# Dim_1                               512
# Dim_2                               1028
# Image                               0
# HeaderID                            EH:000000:000000:000000
# Size                                2105344
# Center_1                            304.9000
# Center_2                            588.7000
# Comment                             Xenocs_Cell_Window - front_window_open_only
# DDummy                              0.6
# Date                                2025-10-18T20:52:15
# Delta                               21.910000
# Dummy                               -1.5
# ExposureTime                        360
# Gamma                               15.360000
# Intensity1                          8.97457e-10
# PSize_1                             7.5e-05
# PSize_2                             7.5e-05
# Pressure                            0.0332489
# SampleDistance                      0.115750
# SampleEnvKind                       large
# SampleEnvPN                         ElectroChemical cell
# SampleEnvSN                         1141
# Thickness                           0
# Wavelength                          1.541891e-10
# Wavelength                          1.54189e-10
# aux                                 0
# aux_dial                            0.002375
# beamx                               588.429
# beamx_dial                          588.429
# beamz                               657.855
# beamz_dial                          657.855
# det0x                               -0.000396875
# det0x_dial                          6.36905
# det0xvd                             -0.0005
# det0xvd_dial                        -0.0005
# det0y                               450.002
# det0y_dial                          481.635
# det0z                               0
# det0z_dial                          1.2295
# det0zvd                             0
# det0zvd_dial                        0
# mag                                 1.818
# mag_dial                            1.818
# om                                  0.2499
# om_dial                             -0.610199
# phi                                 -0.0120535
# phi_dial                            0
# ry                                  0.599993
# ry_dial                             0.599993
# s1bot                               0.8
# s1bot_dial                          -1.66094
# s1hl                                0.8
# s1hl_dial                           -0.608437
# s1hr                                0.8
# s1hr_dial                           0.970938
# s1top                               0.8
# s1top_dial                          -0.461562
# s2bot                               0.45
# s2bot_dial                          1.36109
# s2hl                                0.45
# s2hl_dial                           -0.83375
# s2hr                                0.45
# s2hr_dial                           -0.118594
# s2top                               0.45
# s2top_dial                          1.44734
# w2theta                             32
# w2theta_dial                        32
# waxsch                              19.2605
# waxsch_dial                         -32.7238
# waxsh                               137.085
# waxsh_dial                          -43.5335
# waxsth                              26.0607
# waxsth_dial                         -19.4068
# waxsz                               67.0407
# waxsz_dial                          -23.7962
# wind                                65.9854
# wind_dial                           66.0041
# wpsi                                124
# wpsi_dial                           124
# wstod                               115
# wstod_dial                          115
# x                                   0
# x_dial                              1.00969
# z                                   0
# z_dial                              13.3172
# CountCutoff                         6807993
# DetectorModel                       Dectris EIGER2 Si 500K, S/N E-01-0554
# ThresholdSetting                    4023.88989258
# Saturation                          0
# FlatField                           Corrected
# BackgroundReductionExtra            0.02
# BackgroundCorrectionConstant        0.0026712
# Detector                            0
# Monitor                             0
# Pil_Roi0                            0
# SumForIntensity1                    3.23085e+08
# TransmittedFlux                     897457
# det                                 0
# mon                                 0
# pilai0                              3.23085e+08
# pilai1                              703057
# pilct0                              5.59477e+08
# pilct1                              703057
# pilroi0                             0
# pilroi1                             0
# sec                                 1
# title                               20251017__1_00243.edf
# usaxs0                              0
# Operation                           Azimuthal average I(q)
# Error_model                         ErrorModel.poisson
# Geometrical_correction              True
# Transmission_correction             True
# Thickness_correction                False
# Binning mode                        Uniform
# Binning factor                      1.0
# Psi                                 0.0
# Omega                               0.2499
# MaskInvalidPixels                   True
# DetectorEdge                        3
# MaskFiles                           ['20251017__1_00233_mask.edf']
################################################################################
    q(A⁻¹)                Intensity(a.u.)            Sigma_I(a.u.)            
       0.690460             0.00768460009              0.0080687955           
       0.693100              0.0015176263             0.00160312815           
       0.695741             0.00576039605             0.00263862767           
       0.698381             0.00715949952             0.00275130944           
       0.701021             0.00618776651             0.00208751657           
       0.703662             0.00580301497             0.00187125148           
       0.706302             0.00718012488             0.00201023653           
       0.708942             0.00606149917             0.00164064687           
       0.711583             0.00742428409              0.0018154021           
       0.714223             0.00626192486             0.00145285975           
       0.716864             0.00483555119             0.00130282015           
       0.719504             0.00651686136              0.0013997729           
       0.722144             0.00769949278             0.00146945094           
       0.724785             0.00720956637             0.00139862572           
       0.727425             0.00480005254             0.00105854128           
       0.730065             0.00513500208             0.00112654015           
       0.732706             0.00570210413             0.00106750958           
       0.735346             0.00670106904              0.0012500247           
       0.737987             0.00605639334             0.00102858818           
       0.740627              0.0053957765             0.00106357781           
       0.743267              0.0060004232            0.000964758826           
       0.745908             0.00636276887             0.00106471665           
       0.748548             0.00738074051             0.00106952551           
       0.751189              0.0067905573             0.00101620871           
       0.753829             0.00673015864              0.0010208054           
       0.756469             0.00594989226            0.000902744578           
       0.759110             0.00640643963            0.000968907461           
       0.761750             0.00548054161            0.000820169944           
       0.764390             0.00771856537             0.00104481686           
       0.767031             0.00744771322            0.000928701621           
       0.769671             0.00620894249            0.000899285742           
       0.772312             0.00764191557            0.000909151436           
       0.774952             0.00603233748            0.000865952838           
       0.777592             0.00744045432            0.000879642556           
       0.780233             0.00548378518            0.000796110902           
       0.782873             0.00653751696             0.00079487446           
       0.785513             0.00608406418            0.000815705556           
       0.788154             0.00560087745             0.00071886873           
       0.790794             0.00714688415            0.000840442924           
       0.793435             0.00695973813            0.000796598044           
       0.796075             0.00806375374            0.000861985385           
       0.798715             0.00594572768            0.000735948415           
       0.801356             0.00580719626            0.000707859862           
       0.803996             0.00673219261            0.000774332851           
       0.806637             0.00726484668            0.000760353874           
       0.809277             0.00683574074            0.000771604439           
       0.811917             0.00668203311             0.00072190621           
       0.814558             0.00658996843             0.00073443419           
       0.817198             0.00710889504            0.000727333095           
       0.819838             0.00733810101            0.000770820088           
       0.822479             0.00802169289             0.00074270268           
       0.825119             0.00723886464            0.000757923443           
       0.827760             0.00706030647            0.000693578206           
       0.830400             0.00594242876            0.000670428384           
       0.833040             0.00708228743            0.000683079757           
       0.835681             0.00689115331            0.000705611595           
       0.838321             0.00768603737             0.00069749039           
       0.840961             0.00696130709            0.000693824932           
       0.843602             0.00665765247            0.000639142474           
       0.846242             0.00606688029            0.000631667841           
       0.848883             0.00699173535            0.000659646285           
       0.851523             0.00672347657             0.00065171568           
       0.854163             0.00693186633            0.000654050511           
       0.856804             0.00683394959            0.000632798052           
       0.859444             0.00708477551            0.000648938632           
       0.862085             0.00637319434            0.000606534276           
       0.864725             0.00728865494            0.000646253757           
       0.867365             0.00679193417            0.000619376527           
       0.870006             0.00640405338            0.000609821791           
       0.872646             0.00782952895            0.000644939273           
       0.875286             0.00698752311             0.00063003388           
       0.877927             0.00620867468            0.000568619624           
       0.880567             0.00695434679             0.00061355432           
       0.883208             0.00787579409            0.000634081229           
       0.885848             0.00684052063            0.000606263476           
       0.888488             0.00705583032            0.000585449423           
       0.891129             0.00622827478             0.00057819694           
       0.893769             0.00654080928            0.000560084604           
       0.896410             0.00683907007            0.000590353655           
       0.899050             0.00726556976            0.000586696962           
       0.901690              0.0063830658            0.000561391281           
       0.904331             0.00677499297            0.000558177011           
       0.906971             0.00653716554            0.000566164421           
       0.909611             0.00710553061            0.000566553938           
       0.912252               0.006596581            0.000555345809           
       0.914892             0.00719953321            0.000565476226           
       0.917533             0.00704215284            0.000571880667           
       0.920173              0.0068441276            0.000540807798           
       0.922813             0.00631125745            0.000542707163           
       0.925454             0.00723038643            0.000551292152           
       0.928094             0.00752931122            0.000574648219           
       0.930734             0.00726883033            0.000551145524           
       0.933375               0.007929742            0.000587928159           
       0.936015              0.0054268825            0.000465370323           
       0.938656             0.00781076279            0.000581721669           
       0.941296             0.00637596567            0.000506660681           
       0.943936              0.0053823766            0.000473896166           
       0.946577             0.00708873435            0.000523762822           
       0.949217             0.00694026729            0.000536551523           
       0.951858             0.00690080606            0.000505802298           
       0.954498             0.00739326111            0.000550785611           
       0.957138             0.00723731223             0.00052377365           
       0.959779              0.0076122791            0.000548920188           
       0.962419             0.00733965695              0.0005188941           
       0.965059             0.00775949769            0.000548683116           
       0.967700              0.0079021259            0.000535797274           
       0.970340             0.00715188397            0.000524051517           
       0.972981             0.00680711603            0.000493640221           
       0.975621             0.00684018468            0.000505198836           
       0.978261             0.00758175485            0.000507479788           
       0.980902             0.00774517878            0.000537342733           
       0.983542             0.00661487275             0.00048212896           
       0.986182             0.00649924331            0.000484190066           
       0.988823             0.00688486881            0.000482268057           
       0.991463              0.0076917373            0.000521920141           
       0.994104             0.00801998584            0.000514976378           
       0.996744              0.0071141431            0.000500751106           
       0.999384             0.00712016668            0.000483960183           
       1.002025             0.00705455829            0.000495137936           
       1.004665             0.00713033002            0.000477399443           
       1.007306             0.00857254983             0.00054099838           
       1.009946             0.00767755571            0.000492284282           
       1.012586             0.00752086137            0.000501250315           
       1.015227             0.00744541755            0.000483633607           
       1.017867             0.00777873168            0.000508506821           
       1.020507             0.00764007322            0.000484982621           
       1.023148             0.00751084472            0.000486671589           
       1.025788             0.00763333709            0.000485600172           
       1.028429             0.00810495398            0.000511315087           
       1.031069             0.00839455041            0.000501350493           
       1.033709             0.00786220923            0.000494510688           
       1.036350             0.00812086986            0.000489400755           
       1.038990             0.00682347025            0.000459682085           
       1.041630             0.00816575464             0.00049319253           
       1.044271             0.00769200564            0.000478725858           
       1.046911             0.00724021006            0.000455824492           
       1.049552             0.00777509511            0.000489384781           
       1.052192             0.00759471062            0.000461924392           
       1.054832             0.00729745212            0.000461599776           
       1.057473              0.0089937038            0.000505959934           
       1.060113             0.00763349258            0.000471179128           
       1.062754             0.00749615339            0.000461757057           
       1.065394             0.00796747215            0.000471043511           
       1.068034             0.00766113793            0.000460111141           
       1.070675             0.00752618895             0.00046406199           
       1.073315             0.00869438015            0.000483532505           
       1.075955             0.00725714688            0.000449171953           
       1.078596             0.00760524244            0.000458909368           
       1.081236             0.00765684992            0.000453634122           
       1.083877             0.00932324728            0.000516206522           
       1.086517             0.00857589599            0.000483885361           
       1.089157             0.00861694933             0.00048859837           
       1.091798             0.00837793571            0.000471566949           
       1.094438             0.00915311573            0.000500734269           
       1.097078             0.00782650053            0.000451128701           
       1.099719             0.00850879473            0.000482437383           
       1.102359             0.00834912531            0.000452713892           
       1.105000             0.00829651946            0.000469058695           
       1.107640             0.00786361802            0.000441771409           
       1.110280             0.00867025903            0.000473165005           
       1.112921              0.0081378246            0.000450111922           
       1.115561             0.00780137221            0.000446301816           
       1.118202             0.00869395297            0.000457390852           
       1.120842             0.00729520644            0.000432185408           
       1.123482             0.00853534245            0.000454365088           
       1.126123             0.00832290092            0.000451475085           
       1.128763             0.00840565791            0.000451463709           
       1.131403             0.00823684767            0.000446212627           
       1.134044             0.00824751553            0.000445726504           
       1.136684             0.00821577333            0.000448211199           
       1.139325              0.0085649635            0.000444742973           
       1.141965             0.00904435622            0.000462997068           
       1.144605             0.00853288208            0.000452356466           
       1.147246             0.00794730079            0.000428290898           
       1.149886             0.00849663007            0.000445995108           
       1.152527             0.00815591998             0.00043739939           
       1.155167             0.00873936243            0.000446408083           
       1.157807                0.00882819            0.000448980109           
       1.160448             0.00964339392            0.000475672546           
       1.163088             0.00910669497             0.00044509719           
       1.165728             0.00836544474            0.000444181727           
       1.168369             0.00819749128            0.000424003121           
       1.171009              0.0089299772            0.000446210286           
       1.173650             0.00870090632            0.000437273894           
       1.176290             0.00843587314             0.00043561471           
       1.178930             0.00853168972            0.000425766656           
       1.181571             0.00842375787             0.00043688292           
       1.184211             0.00811416117            0.000415829615           
       1.186851             0.00844166134            0.000428049158           
       1.189492              0.0078604889            0.000415345425           
       1.192132             0.00995472505            0.000460488915           
       1.194773             0.00972025596             0.00045228828           
       1.197413             0.00867014873              0.0004306437           
       1.200053             0.00913103579             0.00043916098           
       1.202694             0.00962719466            0.000447536525           
       1.205334              0.0094596267             0.00044847408           
       1.207975             0.00893172878            0.000427242284           
       1.210615             0.00914958445            0.000441565421           
       1.213255             0.00889576776            0.000423879092           
       1.215896             0.00970174634              0.0004510558           
       1.218536              0.0089265589            0.000420198941           
       1.221176             0.00880531132            0.000427296744           
       1.223817              0.0102084602            0.000450497186           
       1.226457             0.00873191283            0.000421937553           
       1.229098             0.00935786634            0.000430172656           
       1.231738             0.00905642863            0.000429146668           
       1.234378             0.00887699526            0.000416618644           
       1.237019             0.00956545069            0.000435960716           
       1.239659              0.0100234144            0.000446033462           
       1.242299             0.00938815697            0.000429461085           
       1.244940              0.0100157677            0.000438795721           
       1.247580              0.0101152552            0.000442916713           
       1.250221             0.00931719878            0.000432024379           
       1.252861             0.00940821477            0.000417955256           
       1.255501             0.00984896743            0.000439707172           
       1.258142              0.0100331303            0.000435025231           
       1.260782              0.0100159892            0.000439563166           
       1.263423             0.00906607044            0.000409914598           
       1.266063             0.00945868202            0.000426500263           
       1.268703             0.00958377565            0.000418494787           
       1.271344              0.0101084079            0.000439157714           
       1.273984             0.00979227272            0.000425488423           
       1.276624              0.0100244008            0.000427875348           
       1.279265              0.0103782991            0.000436313164           
       1.281905              0.0103427054             0.00043824906           
       1.284546              0.0094555048            0.000414453446           
       1.287186              0.0100664608            0.000428044401           
       1.289826              0.0103995478            0.000437324632           
       1.292467             0.00976140743             0.00041613246           
       1.295107              0.0103449307            0.000435940827           
       1.297747             0.00958968624             0.00040871686           
       1.300388             0.00936702271             0.00041431695           
       1.303028               0.011072164            0.000438997016           
       1.305669              0.0103633035            0.000430199162           
       1.308309              0.0101001336            0.000418315882           
       1.310949              0.0104611223            0.000431031993           
       1.313590              0.0101190472            0.000417365527           
       1.316230              0.0100341822            0.000423092721           
       1.318871              0.0104633813            0.000422725817           
       1.321511             0.00937207589            0.000402079189           
       1.324151              0.0111634969            0.000440561493           
       1.326792              0.0102185122            0.000418088178           
       1.329432             0.00961118217            0.000407588553           
       1.332072              0.0111864369            0.000432183101           
       1.334713             0.00999427736            0.000413571434           
       1.337353              0.0111903537            0.000430887964           
       1.339994             0.00943565977            0.000401301563           
       1.342634              0.0107482759             0.00041866375           
       1.345274               0.011464168            0.000438034268           
       1.347915              0.0117157406            0.000443991603           
       1.350555             0.00981343893            0.000404762693           
       1.353195              0.0109635287            0.000419639458           
       1.355836              0.0115254505            0.000438377208           
       1.358476              0.0105773286            0.000418777988           
       1.361117               0.010676364            0.000410179427           
       1.363757               0.011178787            0.000433629687           
       1.366397              0.0108114254            0.000413165256           
       1.369038              0.0104050293            0.000413868657           
       1.371678              0.0102131352            0.000401755049           
       1.374319              0.0103185564            0.000407025972           
       1.376959              0.0115047186            0.000423867594           
       1.379599              0.0101984999            0.000406859231           
       1.382240               0.010553564            0.000406020022           
       1.384880              0.0107521833            0.000414854674           
       1.387520              0.0112845836            0.000420032421           
       1.390161              0.0109743057            0.000413091796           
       1.392801              0.0104596106            0.000405692143           
       1.395442              0.0103857104            0.000400067773           
       1.398082               0.010252539            0.000398854818           
       1.400722              0.0103017754             0.00039800521           
       1.403363              0.0106833014            0.000409069442           
       1.406003              0.0110143782            0.000405160414           
       1.408644              0.0103930334            0.000401828974           
       1.411284              0.0101451812            0.000394831401           
       1.413924              0.0104418662            0.000395622603           
       1.416565              0.0102174635             0.00039088837           
       1.419205              0.0101305661            0.000393056644           
       1.421845              0.0109772253            0.000404008146           
       1.424486              0.0111796641             0.00040951639           
       1.427126              0.0105980444            0.000398470043           
       1.429767              0.0100284521            0.000381641194           
       1.432407              0.0102910547            0.000396344831           
       1.435047              0.0108782113            0.000395249268           
       1.437688              0.0112939391            0.000411649421           
       1.440328             0.00982379133            0.000376483251           
       1.442968              0.0104314023              0.0003933219           
       1.445609              0.0101945131            0.000382434725           
       1.448249               0.010112245            0.000383351279           
       1.450890              0.0107961708            0.000393277266           
       1.453530              0.0100946351            0.000383101894           
       1.456170              0.0104520119             0.00038894669           
       1.458811              0.0107085781             0.00039055937           
       1.461451              0.0107317212            0.000393855235           
       1.464092              0.0110914112            0.000396911008           
       1.466732              0.0101321134            0.000377031632           
       1.469372              0.0112830821            0.000396647398           
       1.472013              0.0101015653            0.000382020184           
       1.474653              0.0106162136             0.00038196071           
       1.477293              0.0102959983            0.000382487663           
       1.479934              0.0104965945             0.00038215358           
       1.482574              0.0110050246             0.00039033373           
       1.485215                0.01008087            0.000374547106           
       1.487855               0.010563094            0.000383321596           
       1.490495             0.00974348102            0.000367357596           
       1.493136              0.0105057265             0.00037645401           
       1.495776              0.0103020827             0.00037928696           
       1.498416               0.010593151            0.000377135866           
       1.501057             0.00989693195            0.000367667359           
       1.503697             0.00977009661            0.000361791531           
       1.506338              0.0107198046            0.000381754843           
       1.508978              0.0104169464            0.000374101554           
       1.511618              0.0100718516            0.000367666804           
       1.514259              0.0101025307            0.000368891375           
       1.516899             0.00973232243            0.000362237872           
       1.519540             0.00981069187            0.000361675126           
       1.522180             0.00973807269            0.000355834105           
       1.524820              0.0105488633            0.000377831508           
       1.527461             0.00980045308            0.000356125558           
       1.530101              0.0105142711            0.000372680699           
       1.532741              0.0100897267            0.000363349444           
       1.535382              0.0095617191              0.0003544934           
       1.538022              0.0100495374            0.000360208248           
       1.540663             0.00959459943            0.000355286975           
       1.543303              0.0102303342            0.000362303373           
       1.545943              0.0101042623            0.000362081982           
       1.548584             0.00955115513            0.000353906922           
       1.551224             0.00949741781            0.000343862341           
       1.553864              0.0104394824            0.000369931165           
       1.556505              0.0104755773            0.000364869659           
       1.559145             0.00996391692            0.000356670064           
       1.561786             0.00983855173            0.000352813553           
       1.564426             0.00892369337            0.000335706338           
       1.567066             0.00977457087            0.000348604549           
       1.569707             0.00918670954            0.000342851928           
       1.572347             0.00937497771            0.000341853652           
       1.574988             0.00949351586            0.000342647172           
       1.577628             0.00876444802            0.000336639827           
       1.580268             0.00923430049            0.000333620772           
       1.582909             0.00934495217            0.000341890996           
       1.585549             0.00916073102            0.000335340869           
       1.588189             0.00890294875            0.000334281316           
       1.590830              0.0086180791            0.000323244204           
       1.593470             0.00885187614            0.000330274727           
       1.596111             0.00856928358            0.000322152126           
       1.598751             0.00880526888            0.000329896115           
       1.601391             0.00904331704            0.000332188174           
       1.604032             0.00869748014            0.000323053951           
       1.606672             0.00919456514            0.000338842655           
       1.609312             0.00867115828            0.000319265779           
       1.611953             0.00829487391              0.0003167871           
       1.614593             0.00897143252             0.00032694729           
       1.617234             0.00969984447            0.000341888133           
       1.619874             0.00877605611            0.000321374864           
       1.622514             0.00859482808              0.0003208521           
       1.625155             0.00912890935            0.000329852953           
       1.627795             0.00890711388            0.000322528797           
       1.630436             0.00866225823            0.000321261765           
       1.633076              0.0088112335            0.000322366356           
       1.635716             0.00883187353            0.000322180876           
       1.638357             0.00854010633            0.000315468397           
       1.640997             0.00828253509            0.000313104273           
       1.643637             0.00802051847            0.000302390631           
       1.646278             0.00817504656            0.000309859444           
       1.648918             0.00840627487            0.000310160195           
       1.651559             0.00869115454            0.000319337145           
       1.654199             0.00853366824            0.000312093267           
       1.656839             0.00870205248            0.000315072444           
       1.659480             0.00848411107            0.000313841908           
       1.662120             0.00890084082            0.000317149647           
       1.664761             0.00905289208            0.000323310113           
       1.667401             0.00794748031            0.000300106603           
       1.670041             0.00809499535            0.000303225579           
       1.672682             0.00799113734             0.00029843918           
       1.675322             0.00818951502            0.000307462585           
       1.677962             0.00817384837            0.000301067987           
       1.680603              0.0081305744            0.000302934853           
       1.683243             0.00811709508            0.000300444469           
       1.685884              0.0084136054            0.000307046729           
       1.688524             0.00834308652            0.000304897016           
       1.691164             0.00853394243            0.000307572113           
       1.693805             0.00870280412             0.00031311189           
       1.696445             0.00844023514            0.000304072593           
       1.699085             0.00780101722            0.000293498606           
       1.701726             0.00810359781            0.000295245443           
       1.704366             0.00789276915            0.000298469398           
       1.707007             0.00748087402            0.000284376297           
       1.709647              0.0085479087            0.000307758492           
       1.712287             0.00826592933             0.00029758204           
       1.714928             0.00816086983            0.000298658076           
       1.717568             0.00830300996            0.000298477595           
       1.720209             0.00792273451            0.000293362826           
       1.722849             0.00813853398            0.000297808029           
       1.725489             0.00850577317            0.000299600337           
       1.728130             0.00859882738            0.000307366911           
       1.730770              0.0080988865            0.000291992586           
       1.733410             0.00843946696            0.000301981856           
       1.736051             0.00819954104            0.000293038151           
       1.738691             0.00840855051            0.000299778444           
       1.741332             0.00810595558            0.000292523152           
       1.743972             0.00815987619            0.000293603327           
       1.746612             0.00843228932            0.000298532652           
       1.749253              0.0084002537            0.000299252712           
       1.751893             0.00833162983            0.000296239854           
       1.754533             0.00842045017            0.000293727267           
       1.757174             0.00789436599            0.000289721091           
       1.759814             0.00819673835            0.000290716696           
       1.762455             0.00823527024            0.000293880018           
       1.765095             0.00852519511            0.000294809283           
       1.767735             0.00887025682            0.000305826258           
       1.770376             0.00844059362            0.000293803214           
       1.773016             0.00793069798            0.000285240128           
       1.775657             0.00902965191            0.000304985562           
       1.778297              0.0080316321            0.000289044744           
       1.780937             0.00790076378             0.00028534243           
       1.783578             0.00820063977            0.000289342054           
       1.786218             0.00857108958            0.000300525451           
       1.788858              0.0088837718            0.000298356482           
       1.791499             0.00861881057             0.00029928965           
       1.794139             0.00826243598            0.000287625541           
       1.796780             0.00874515245            0.000297666502           
       1.799420             0.00889187225            0.000299770989           
       1.802060              0.0091422205             0.00030022314           
       1.804701             0.00895028968            0.000301040237           
       1.807341             0.00916758762             0.00030172876           
       1.809981              0.0090489444            0.000301760825           
       1.812622             0.00938140733            0.000305580245           
       1.815262              0.0089799396            0.000300036258           
       1.817903             0.00905221394            0.000297519554           
       1.820543             0.00883636818              0.0002975843           
       1.823183               0.008969999             0.00029520628           
       1.825824             0.00815858018            0.000285771639           
       1.828464             0.00849451512            0.000290701042           
       1.831105             0.00845049672            0.000291069379           
       1.833745             0.00858751032            0.000293236398           
       1.836385             0.00888181658            0.000297059013           
       1.839026             0.00860353805            0.000296763357           
       1.841666             0.00844844057            0.000290257794           
       1.844306             0.00856594325            0.000295959107           
       1.846947             0.00876993635            0.000295614095           
       1.849587             0.00871009887            0.000298599546           
       1.852228             0.00913746181            0.000302584423           
       1.854868              0.0094770524            0.000313807647           
       1.857508             0.00962607704            0.000310425516           
       1.860149             0.00902899827            0.000303053795           
       1.862789             0.00875421254            0.000299727069           
       1.865429             0.00871030943            0.000299875918           
       1.868070             0.00863775085            0.000297592416           
       1.870710             0.00853216399            0.000296573429           
       1.873351             0.00908388049            0.000307965531           
       1.875991              0.0088711744            0.000305984812           
       1.878631             0.00914022318            0.000307703367           
       1.881272             0.00866655823            0.000298922541           
       1.883912             0.00884313414            0.000305493609           
       1.886553             0.00864750861            0.000298471903           
       1.889193             0.00954768038            0.000317245114           
       1.891833             0.00948480843            0.000312600545           
       1.894474             0.00913403796            0.000309193633           
       1.897114             0.00912634141            0.000306666028           
       1.899754             0.00913413081            0.000310237553           
       1.902395             0.00865606961            0.000302074246           
       1.905035             0.00896133946            0.000306150156           
       1.907676             0.00924213743            0.000311271122           
       1.910316             0.00892718714            0.000307872061           
       1.912956             0.00916288294             0.00031189741           
       1.915597             0.00918819835             0.00030907183           
       1.918237             0.00896373902            0.000309907303           
       1.920878             0.00885041618            0.000302492262           
       1.923518             0.00883253498            0.000310215207           
       1.926158             0.00880206634            0.000302563553           
       1.928799             0.00838591184            0.000299248885           
       1.931439             0.00866296726            0.000301714583           
       1.934079             0.00854344875            0.000302660327           
       1.936720              0.0088554792             0.00030632414           
       1.939360             0.00881620882            0.000308589918           
       1.942001             0.00829763719            0.000298225018           
       1.944641             0.00838021123            0.000298413773           
       1.947281             0.00823379699            0.000297224518           
       1.949922             0.00881549984            0.000307929472           
       1.952562             0.00883841083             0.00031098255           
       1.955202             0.00838860572            0.000295354006           
       1.957843             0.00837157513            0.000304426937           
       1.960483             0.00844548146            0.000300890536           
       1.963124             0.00861886608            0.000303738059           
       1.965764             0.00806905636            0.000293995555           
       1.968404             0.00853742269            0.000307815355           
       1.971045             0.00799800441            0.000290464058           
       1.973685             0.00821111847            0.000299800631           
       1.976326             0.00787817496            0.000292379277           
       1.978966             0.00866964603            0.000308165978           
       1.981606             0.00792320489            0.000291485586           
       1.984247             0.00843406301            0.000303358073           
       1.986887              0.0076975458            0.000292520351           
       1.989527             0.00812297921            0.000294234914           
       1.992168             0.00815897024            0.000302000755           
       1.994808             0.00798153977            0.000295224624           
       1.997449             0.00834463966            0.000301422508           
       2.000089             0.00832751482            0.000299340003           
       2.002729              0.0081039129            0.000302060361           
       2.005370             0.00791583264            0.000292859609           
       2.008010             0.00780581645            0.000294678456           
       2.010650              0.0080046745            0.000297554752           
       2.013291             0.00788246726            0.000296955312           
       2.015931             0.00798273598             0.00029669923           
       2.018572             0.00829206743            0.000306409268           
       2.021212             0.00728931668            0.000284707319           
       2.023852             0.00807445904            0.000301222501           
       2.026493             0.00762539522            0.000291443561           
       2.029133             0.00772311218             0.00029106753           
       2.031774             0.00752730548            0.000290140739           
       2.034414             0.00753170919            0.000288493582           
       2.037054             0.00790704832             0.00029932188           
       2.039695             0.00772693775            0.000290064868           
       2.042335             0.00767927809            0.000294090986           
       2.044975             0.00814130382            0.000300388715           
       2.047616             0.00757995094            0.000291089696           
       2.050256             0.00737072119            0.000283667615           
       2.052897             0.00751170371             0.00029484904           
       2.055537             0.00826300913            0.000300811649           
       2.058177             0.00830144126            0.000304173713           
       2.060818              0.0078235649            0.000296175504           
       2.063458             0.00791340293             0.00029828141           
       2.066098             0.00792820049            0.000297235222           
       2.068739             0.00803898196            0.000302425419           
       2.071379              0.0077324369            0.000292223143           
       2.074020              0.0080146664            0.000301582371           
       2.076660             0.00816960696            0.000302419597           
       2.079300             0.00743141893            0.000288391394           
       2.081941             0.00758674853            0.000293161244           
       2.084581             0.00690684316            0.000279923969           
       2.087222             0.00730368048             0.00028804937           
       2.089862             0.00762399395            0.000290629872           
       2.092502             0.00808628252            0.000304749998           
       2.095143             0.00787693571            0.000296480576           
       2.097783             0.00765809598             0.00029678148           
       2.100423             0.00755080279            0.000289044468           
       2.103064             0.00688201702             0.00028071162           
       2.105704             0.00734022504            0.000288796931           
       2.108345             0.00737548634            0.000290818811           
       2.110985             0.00756361887            0.000290367942           
       2.113625              0.0073282559            0.000290317647           
       2.116266               0.008035271            0.000301749813           
       2.118906              0.0072968489            0.000287341617           
       2.121546             0.00796300042            0.000299933004           
       2.124187             0.00707817539            0.000286689899           
       2.126827             0.00704590929            0.000281549861           
       2.129468             0.00749496632            0.000293413644           
       2.132108             0.00715216774            0.000286032058           
       2.134748             0.00745050988              0.0002908366           
       2.137389              0.0067037624            0.000278187564           
       2.140029             0.00785252984            0.000300349739           
       2.142670             0.00734341673            0.000290924701           
       2.145310             0.00730014596            0.000291174498           
       2.147950             0.00743109905             0.00029491018           
       2.150591              0.0076116594            0.000295734277           
       2.153231             0.00764181398            0.000300700364           
       2.155871             0.00775838113            0.000298609326           
       2.158512             0.00696626521            0.000288053931           
       2.161152             0.00743868097            0.000290225369           
       2.163793             0.00730137985            0.000292213027           
       2.166433             0.00723944991            0.000285925403           
       2.169073             0.00767796939            0.000301332763           
       2.171714             0.00704701438            0.000282808773           
       2.174354             0.00827909722            0.000311220392           
       2.176995             0.00756038946            0.000294938232           
       2.179635             0.00754711055            0.000300255961           
       2.182275             0.00795691446            0.000302180059           
       2.184916             0.00764503847            0.000302458921           
       2.187556             0.00729635823            0.000290724071           
       2.190196             0.00713470968            0.000292004251           
       2.192837             0.00713956218            0.000288904836           
       2.195477             0.00743971465             0.00029776001           
       2.198118             0.00744299307            0.000292327219           
       2.200758             0.00739705688            0.000295949343           
       2.203398             0.00712595858            0.000285658437           
       2.206039             0.00748428057            0.000297227062           
       2.208679             0.00682655476            0.000281087722           
       2.211319             0.00741622709            0.000294355403           
       2.213960             0.00753448765            0.000293538479           
       2.216600             0.00688429469            0.000287198308           
       2.219241             0.00721375765            0.000289716109           
       2.221881             0.00733144409            0.000293592198           
       2.224521             0.00697391701            0.000285350851           
       2.227162             0.00721148776             0.00029472815           
       2.229802             0.00739148491            0.000293540176           
       2.232443             0.00791383692            0.000304929386           
       2.235083             0.00751811418            0.000295425641           
       2.237723             0.00757845434            0.000298881862           
       2.240364             0.00751538186            0.000296121631           
       2.243004             0.00713658162            0.000289434163           
       2.245644             0.00722336842            0.000290516301           
       2.248285             0.00697301162              0.0002872903           
       2.250925             0.00753290175            0.000297205138           
       2.253566             0.00718047233             0.00029087896           
       2.256206             0.00752743627            0.000296931644           
       2.258846             0.00729272955            0.000292268402           
       2.261487             0.00721017966            0.000291112247           
       2.264127             0.00727701962            0.000295225641           
       2.266767             0.00726415557            0.000290197079           
       2.269408             0.00746509832             0.00029767741           
       2.272048             0.00743550397            0.000295259286           
       2.274689             0.00771083913            0.000301858632           
       2.277329              0.0077324634            0.000301879931           
       2.279969             0.00698428384            0.000287773354           
       2.282610             0.00764106181            0.000298064634           
       2.285250             0.00689655522            0.000287625199           
       2.287891             0.00718500284            0.000290616004           
       2.290531             0.00688512402            0.000285889576           
       2.293171             0.00678441072            0.000283776934           
       2.295812             0.00715541715             0.00028988605           
       2.298452             0.00722078647            0.000293072288           
       2.301092             0.00718971055            0.000294298609           
       2.303733             0.00748099194            0.000294263159           
       2.306373             0.00738608327            0.000299542215           
       2.309014             0.00734905389            0.000293032667           
       2.311654             0.00715592962            0.000291900996           
       2.314294             0.00714037738            0.000290947057           
       2.316935             0.00725498089            0.000294431721           
       2.319575             0.00723971819            0.000293020479           
       2.322215             0.00708561241            0.000294015863           
       2.324856             0.00706581424            0.000286231701           
       2.327496             0.00688189591            0.000289404943           
       2.330137              0.0065644846            0.000277439287           
       2.332777             0.00678981792            0.000285246864           
       2.335417             0.00730638878            0.000295010494           
       2.338058             0.00720251676            0.000294078264           
       2.340698             0.00735187467             0.00029418644           
       2.343339             0.00692881295            0.000291046561           
       2.345979             0.00714456013            0.000289645606           
       2.348619             0.00755760338             0.00030352628           
       2.351260               0.007709858             0.00030005165           
       2.353900             0.00694119782            0.000290732388           
       2.356540             0.00780344441            0.000304021965           
       2.359181             0.00810120708            0.000313910341           
       2.361821              0.0070691739            0.000289661659           
       2.364462             0.00750879079            0.000303521872           
       2.367102             0.00684274383            0.000281368966           
       2.369742              0.0071760466            0.000298466119           
       2.372383             0.00707976495            0.000287815092           
       2.375023             0.00682593449            0.000289971619           
       2.377663             0.00723385394            0.000292166775           
       2.380304             0.00657586009            0.000282426375           
       2.382944             0.00734237867            0.000295514369           
       2.385585              0.0068920357            0.000289014988           
       2.388225             0.00743134661            0.000298753963           
       2.390865             0.00669153222            0.000284219183           
       2.393506             0.00716158066            0.000292677265           
       2.396146             0.00738006792            0.000298093024           
       2.398787             0.00778533898            0.000306436228           
       2.401427             0.00745293113            0.000298002451           
       2.404067             0.00740552155            0.000301587043           
       2.406708             0.00681427744            0.000285661366           
       2.409348             0.00724070248            0.000296678999           
       2.411988             0.00678187355            0.000286208183           
       2.414629             0.00699092839            0.000291536741           
       2.417269             0.00725774513            0.000294350442           
       2.419910             0.00760648936            0.000305139558           
       2.422550             0.00698391992            0.000287947266           
       2.425190             0.00722723312            0.000302142795           
       2.427831             0.00718528384             0.00028993447           
       2.430471             0.00670229885            0.000288205867           
       2.433112             0.00695436905            0.000286648223           
       2.435752              0.0069033833            0.000292825693           
       2.438392             0.00690653742            0.000287969606           
       2.441033             0.00729337171            0.000297280346           
       2.443673             0.00726899294            0.000297575609           
       2.446313             0.00698790034            0.000290210736           
       2.448954             0.00674633465            0.000287652552           
       2.451594             0.00704414098            0.000292169327           
       2.454235             0.00771835939            0.000304880505           
       2.456875             0.00751722355            0.000302405847           
       2.459515             0.00798782418            0.000312208568           
       2.462156             0.00739704732            0.000298892653           
       2.464796             0.00789067038            0.000314149857           
       2.467436             0.00784925813            0.000306754493           
       2.470077             0.00721469883            0.000298149133           
       2.472717             0.00817567947            0.000313413679           
       2.475358             0.00695109085            0.000292263902           
       2.477998             0.00790377198             0.00030998643           
       2.480638             0.00724933714            0.000297597025           
       2.483279             0.00731901658            0.000300308433           
       2.485919             0.00740248822            0.000299901351           
       2.488560             0.00738500637            0.000300789515           
       2.491200             0.00740246738            0.000300732017           
       2.493840             0.00715633249            0.000294080118           
       2.496481             0.00683457209            0.000291151116           
       2.499121             0.00670639896            0.000284568102           
       2.501761             0.00707386315             0.00029722306           
       2.504402             0.00745537372            0.000299285211           
       2.507042             0.00713623226            0.000297676868           
       2.509683              0.0068588605            0.000289176768           
       2.512323             0.00757933413            0.000305175837           
       2.514963              0.0142831094            0.000419767551           
       2.517604              0.0323394113            0.000629158361           
       2.520244              0.0252446815            0.000555998744           
       2.522884             0.00878241315            0.000327223693           
       2.525525             0.00926259445            0.000338810521           
       2.528165              0.0156509307             0.00043840212           
       2.530806              0.0185700722            0.000475747005           
       2.533446              0.0122383556            0.000389648688           
       2.536086              0.0115941793            0.000376072337           
       2.538727              0.0126858299            0.000395900587           
       2.541367              0.0118155305            0.000380986593           
       2.544008             0.00824875548            0.000318599464           
       2.546648             0.00761476911             0.00030645878           
       2.549288              0.0067881265            0.000289388437           
       2.551929             0.00717318944            0.000298465778           
       2.554569             0.00676957552            0.000287297724           
       2.557209             0.00711741161            0.000297914737           
       2.559850             0.00730340513            0.000298311976           
       2.562490             0.00723472619            0.000299067875           
       2.565131             0.00689746196            0.000292521867           
       2.567771             0.00693448514            0.000291751366           
       2.570411             0.00706520757            0.000298072048           
       2.573052             0.00694940833            0.000292168511           
       2.575692              0.0065901327            0.000285270664           
       2.578332             0.00736186771            0.000300620927           
       2.580973             0.00755213663            0.000306949688           
       2.583613             0.00690732979            0.000290878469           
       2.586254             0.00647175369            0.000284048657           
       2.588894             0.00693983996            0.000292572571           
       2.591534             0.00668471597            0.000287672574           
       2.594175             0.00707024175            0.000297569078           
       2.596815             0.00670994585            0.000287192716           
       2.599456             0.00658798428            0.000286898987           
       2.602096             0.00739723617            0.000302872047           
       2.604736             0.00639630924            0.000282375293           
       2.607377             0.00715142096             0.00029743643           
       2.610017             0.00684741767            0.000290944155           
       2.612657             0.00716939514            0.000299808908           
       2.615298             0.00696349593             0.00029258218           
       2.617938             0.00639271718            0.000282787164           
       2.620579             0.00714665669            0.000296555679           
       2.623219             0.00622572218            0.000281217011           
       2.625859             0.00643491895            0.000281084158           
       2.628500             0.00725182999            0.000303161947           
       2.631140             0.00724725001            0.000297721767           
       2.633780             0.00716472035             0.00029982385           
       2.636421             0.00712984558              0.0002963716           
       2.639061             0.00739095029            0.000305357411           
       2.641702             0.00715781118             0.00029729037           
       2.644342             0.00767324181            0.000310333164           
       2.646982             0.00639561339            0.000283081173           
       2.649623             0.00699420805            0.000297807012           
       2.652263             0.00713474602            0.000298390696           
       2.654904             0.00693326142            0.000295744406           
       2.657544             0.00740132413            0.000303414361           
       2.660184             0.00669505937            0.000288944076           
       2.662825             0.00739932159            0.000304489452           
       2.665465             0.00641592992            0.000284059026           
       2.668105             0.00688245044            0.000294321683           
       2.670746             0.00733547985            0.000301282989           
       2.673386             0.00699944046            0.000297867985           
       2.676027             0.00698212476            0.000294970261           
       2.678667             0.00803304539            0.000318036131           
       2.681307             0.00732321762            0.000301271992           
       2.683948              0.0074249235            0.000306369553           
       2.686588             0.00760341476            0.000307185141           
       2.689229             0.00747456781            0.000307304727           
       2.691869             0.00764262121            0.000307638483           
       2.694509             0.00742780601            0.000307443379           
       2.697150             0.00746482349            0.000303289396           
       2.699790             0.00685231155            0.000296616195           
       2.702430             0.00654200771            0.000284265586           
       2.705071             0.00702138033            0.000298526871           
       2.707711              0.0068675152            0.000292310163           
       2.710352             0.00665575288            0.000289406061           
       2.712992             0.00734511762            0.000305012844           
       2.715632             0.00681542762            0.000292137873           
       2.718273             0.00670213516            0.000290661347           
       2.720913             0.00693893009             0.00029624527           
       2.723553              0.0066245819            0.000288451406           
       2.726194             0.00637650751            0.000284363829           
       2.728834             0.00678702389            0.000290766768           
       2.731475             0.00667711985            0.000290923489           
       2.734115             0.00650561482              0.0002854518           
       2.736755             0.00649992911            0.000287213176           
       2.739396             0.00713193627            0.000299261701           
       2.742036             0.00661039377            0.000290078342           
       2.744677             0.00686471243            0.000296037898           
       2.747317              0.0078599104            0.000315231713           
       2.749957             0.00772988698            0.000314881332           
       2.752598             0.00716887313            0.000304152684           
       2.755238             0.00702011581             0.00030084484           
       2.757878             0.00807853523            0.000321809194           
       2.760519              0.0069090113            0.000294462632           
       2.763159             0.00737304424            0.000309136596           
       2.765800              0.0075758282            0.000308050693           
       2.768440             0.00648932793            0.000288862255           
       2.771080             0.00657922825            0.000288405203           
       2.773721             0.00672014108            0.000295053164           
       2.776361             0.00728081183            0.000303816451           
       2.779001             0.00694117089            0.000299763708           
       2.781642             0.00655069135            0.000289222913           
       2.784282             0.00707485743            0.000300676479           
       2.786923             0.00665880158            0.000289482999           
       2.789563             0.00645188013            0.000285522091           
       2.792203             0.00705167878            0.000300399051           
       2.794844             0.00680976817            0.000293858212           
       2.797484             0.00683764747             0.00029487402           
       2.800125             0.00660197758            0.000289373389           
       2.802765             0.00687877294            0.000300852984           
       2.805405              0.0064410875            0.000286921903           
       2.808046             0.00665643324            0.000296151284           
       2.810686             0.00685853141            0.000297410258           
       2.813326             0.00664871807            0.000296448694           
       2.815967              0.0067578017            0.000296987183           
       2.818607             0.00677570058            0.000300352943           
       2.821248             0.00689762586            0.000299264622           
       2.823888             0.00682026609            0.000302374784           
       2.826528             0.00623310068            0.000287341352           
       2.829169             0.00670259617            0.000296651114           
       2.831809             0.00703895938            0.000304269927           
       2.834449             0.00734468219            0.000305382273           
       2.837090             0.00643835221            0.000287640762           
       2.839730              0.0065945519            0.000289041746           
       2.842371             0.00645903648            0.000288049566           
       2.845011             0.00683717972            0.000295700576           
       2.847651             0.00663106235             0.00029174409           
       2.850292             0.00696982972            0.000297404105           
       2.852932             0.00682436683            0.000294811994           
       2.855573             0.00656529405             0.00029170148           
       2.858213             0.00663438883            0.000289942285           
       2.860853             0.00674789061            0.000294600624           
       2.863494             0.00701997216            0.000301204747           
       2.866134             0.00694411552            0.000303774951           
       2.868774             0.00710658512            0.000302603936           
       2.871415             0.00634587562            0.000288780021           
       2.874055             0.00648644977             0.00029340725           
       2.876696             0.00678959484            0.000297482125           
       2.879336             0.00658422805            0.000294893173           
       2.881976             0.00637815027            0.000290002722           
       2.884617             0.00708831582            0.000304023343           
       2.887257             0.00682457872            0.000296233789           
       2.889897             0.00694302334            0.000302218183           
       2.892538              0.0066663635            0.000294082456           
       2.895178             0.00659592645              0.0002895416           
       2.897819             0.00717203416            0.000305026884           
       2.900459             0.00665503702            0.000291394566           
       2.903099             0.00659459028            0.000291582761           
       2.905740             0.00696407043            0.000296295109           
       2.908380             0.00678112017            0.000296274906           
       2.911021             0.00654328257            0.000291586086           
       2.913661             0.00642370586             0.00028573008           
       2.916301             0.00656372249            0.000292936138           
       2.918942             0.00667895698            0.000291038431           
       2.921582             0.00656226142            0.000291511394           
       2.924222             0.00683801687            0.000295847253           
       2.926863             0.00685816471            0.000297069768           
       2.929503             0.00706798305            0.000304927621           
       2.932144             0.00763294989            0.000311683136           
       2.934784             0.00823034893            0.000325025898           
       2.937424             0.00664238987            0.000292532118           
       2.940065             0.00679338733            0.000296079188           
       2.942705             0.00714473901            0.000304561849           
       2.945346             0.00644939073            0.000287653004           
       2.947986             0.00753365008            0.000311981162           
       2.950626             0.00833477331            0.000329159079           
       2.953267              0.0105807936            0.000366927026           
       2.955907             0.00935833525            0.000349642347           
       2.958547             0.00831183288            0.000326134674           
       2.961188             0.00752896749            0.000313105819           
       2.963828             0.00669358968            0.000293551835           
       2.966469             0.00671671963            0.000294131826           
       2.969109             0.00730572779            0.000308326326           
       2.971749             0.00743910165            0.000310212884           
       2.974390             0.00896763782             0.00034152987           
       2.977030              0.0095236747             0.00035128906           
       2.979670             0.00914445504            0.000342004825           
       2.982311             0.00734302101            0.000308683706           
       2.984951              0.0079307694             0.00032162919           
       2.987592             0.00793618543            0.000320653049           
       2.990232              0.0067525112            0.000296530721           
       2.992872              0.0082925066            0.000326038428           
       2.995513              0.0083851239            0.000330429424           
       2.998153               0.010540297            0.000372857841           
       3.000794              0.0181467879            0.000482115023           
       3.003434              0.0375202313            0.000700590671           
       3.006074              0.0306539473            0.000635290268           
       3.008715              0.0192072413            0.000506705934           
       3.011355              0.0201861107            0.000524859443           
       3.013995              0.0162619793            0.000468785736           
       3.016636              0.0284530705            0.000621249114           
       3.019276               0.140263966             0.00141231225           
       3.021917               0.421457384             0.00240660999           
       3.024557               0.148154419             0.00143826726           
       3.027197              0.0837767639             0.00109969619           
       3.029838              0.0963273707             0.00117355661           
       3.032478              0.0855836844             0.00111278706           
       3.035118              0.0527342784            0.000877996592           
       3.037759              0.0948647706             0.00117967676           
       3.040399              0.0807927242             0.00110112835           
       3.043040               0.052695557            0.000897917812           
       3.045680              0.0560657371            0.000911922065           
       3.048320               0.084594274             0.00113813331           
       3.050961               0.222453673              0.0018641275           
       3.053601               0.102228554             0.00125810553           
       3.056242              0.0466286895            0.000855142126           
       3.058882               0.209134273             0.00183796481           
       3.061522               0.222426885             0.00188234301           
       3.064163              0.0311460608            0.000705661173           
       3.066803               0.019021152            0.000562122393           
       3.069443               0.036537256            0.000773888309           
       3.072084               0.095484144             0.00126219027           
       3.074724              0.0353316837            0.000772321829           
       3.077365              0.0116392509            0.000442963163           
       3.080005             0.00952011269            0.000405056539           
       3.082645             0.00933414807            0.000403123037           
       3.085286              0.0087263584            0.000389848618           
       3.087926             0.00808290468            0.000377587536           
       3.090566             0.00744589826            0.000366136563           
       3.093207             0.00763568369            0.000366767464           
       3.095847              0.0077547336            0.000377363157           
       3.098488              0.0080543469             0.00038388667           
       3.101128              0.0078925558            0.000382081531           
       3.103768             0.00888610684            0.000407701986           
       3.106409             0.00932946652            0.000420547107           
       3.109049             0.00950152056            0.000427706546           
       3.111690              0.0128721252            0.000495862311           
       3.114330              0.0150589563            0.000541103763           
       3.116970              0.0173909896            0.000589583456           
       3.119611               0.015341143            0.000550144635           
       3.122251              0.0111560672            0.000472983298           
       3.124891             0.00895477853            0.000425815021           
       3.127532              0.0075427636            0.000397843686           
       3.130172             0.00859562512             0.00041596677           
       3.132813             0.00820768099            0.000414744214           
       3.135453             0.00816995712            0.000422518617           
       3.138093             0.00660886752             0.00037099722           
       3.140734             0.00645068987            0.000373352086           
       3.143374             0.00643048014            0.000378465155           
       3.146014             0.00622007574            0.000369520037           
       3.148655             0.00649884603            0.000380683598           
       3.151295             0.00718644325            0.000403484681           
       3.153936             0.00703145519            0.000405001939           
       3.156576              0.0065011514            0.000384959764           
       3.159216             0.00621875929            0.000379585517           
       3.161857             0.00594338495            0.000375638324           
       3.164497             0.00670698761            0.000407454153           
       3.167138             0.00604470019             0.00037753388           
       3.169778             0.00637157268             0.00039460621           
       3.172418              0.0055696538             0.00037109496           
       3.175059             0.00618419439            0.000396149574           
       3.177699             0.00641070554            0.000401746193           
       3.180339             0.00627202794            0.000400929068           
       3.182980             0.00557748541            0.000383183193           
       3.185620             0.00583441681            0.000396192313           
       3.188261             0.00593572658            0.000394381749           
       3.190901             0.00517063699            0.000373760051           
       3.193541             0.00600644962             0.00040416482           
       3.196182             0.00630715338            0.000422775399           
       3.198822             0.00477425813            0.000363369997           
       3.201463             0.00552376161            0.000395907512           
       3.204103             0.00647360967            0.000434304696           
       3.206743              0.0058024671            0.000414652216           
       3.209384             0.00540016747            0.000398236391           
       3.212024             0.00607861156            0.000424013412           
       3.214664             0.00705408834             0.00046547648           
       3.217305             0.00591534799            0.000436197665           
       3.219945             0.00673214103            0.000461448177           
       3.222586             0.00614287113            0.000443284859           
       3.225226             0.00638991843            0.000462296081           
       3.227866             0.00563092662            0.000437330085           
       3.230507             0.00520882061            0.000425638393           
       3.233147             0.00535891612            0.000425341637           
       3.235787             0.00516812511            0.000417814938           
       3.238428             0.00653065295            0.000477968157           
       3.241068             0.00612333524            0.000472207696           
       3.243709             0.00558293255            0.000448386983           
       3.246349             0.00642506328            0.000478325782           
       3.248989             0.00622657986            0.000481642476           
       3.251630             0.00618716146            0.000482239611           
       3.254270             0.00560566731            0.000473128819           
       3.256911             0.00565206454            0.000463179161           
       3.259551               0.004909529            0.000441222456           
       3.262191              0.0056370557            0.000477134733           
       3.264832             0.00558453029             0.00047936266           
       3.267472             0.00581213438            0.000495968819           
       3.270112             0.00651842098            0.000526735178           
       3.272753             0.00528466515            0.000480103015           
       3.275393             0.00608372194            0.000517773802           
       3.278034             0.00542868772            0.000499069404           
       3.280674             0.00604357318            0.000528103468           
       3.283314                0.00527619            0.000496164202           
       3.285955             0.00578507007            0.000529299216           
       3.288595             0.00473012945            0.000483951285           
       3.291235             0.00530816593            0.000515680952           
       3.293876             0.00548553584             0.00052732979           
       3.296516             0.00687605578            0.000602436663           
       3.299157             0.00572746059            0.000558133063           
       3.301797             0.00529450859            0.000536851342           
       3.304437             0.00644090189            0.000603225751           
       3.307078             0.00507799003            0.000540817924           
       3.309718             0.00536295353            0.000561333412           
       3.312359             0.00599530484            0.000605497337           
       3.314999             0.00673754773            0.000648619142           
       3.317639             0.00466185025            0.000545342656           
       3.320280             0.00547294712            0.000599510932           
       3.322920             0.00523563216            0.000595142211           
       3.325560              0.0047566104             0.00057821738           
       3.328201             0.00604749352            0.000654729718           
       3.330841             0.00546710941            0.000637660075           
       3.333482             0.00560688609            0.000653959375           
       3.336122             0.00520427591             0.00064373652           
       3.338762             0.00557430203            0.000672322114           
       3.341403             0.00533457298            0.000663807769           
       3.344043             0.00680260209            0.000778211001           
       3.346683             0.00602728066             0.00073995138           
       3.349324             0.00517676984            0.000696375201           
       3.351964             0.00581201055            0.000761586488           
       3.354605             0.00608666879            0.000788199432           
       3.357245             0.00464503029            0.000712760619           
       3.359885             0.00574889981            0.000793227683           
       3.362526             0.00634514948            0.000875958098           
       3.365166             0.00465949333            0.000741372518           
       3.367807             0.00572082832             0.00087936466           
       3.370447             0.00576037045            0.000882740606           
       3.373087             0.00568014943            0.000925133083           
       3.375728             0.00659512317            0.000989328141           
       3.378368             0.00463128028            0.000895847926           
       3.381008             0.00387318755            0.000812109535           
       3.383649             0.00431483409            0.000927643229           
       3.386289             0.00551081207             0.00104878339           
       3.388930             0.00641482392             0.00124271169           
       3.391570             0.00453077581             0.00104483176           
       3.394210             0.00596676108             0.00128473252           
       3.396851             0.00411736809             0.00115604921           
       3.399491             0.00360880125             0.00110194363           
       3.402131              0.0064361555             0.00174196315           
       3.404772             0.00692298623             0.00180741767           
       3.407412             0.00557316924             0.00201229018           
       3.410053             0.00523777944             0.00203132721           
       3.412693             0.00740253009             0.00341659421           
       3.415333             0.00648655136              0.0039186138           
