################################################################################
# EDF_DataBlockID                     0.Image.Psd
# EDF_BinarySize                      4366944
# EDF_HeaderSize                      2560
# ByteOrder                           LowByteFirst
# DataType                            FloatValue
# Dim_1                               1028
# Dim_2                               1062
# Image                               0
# HeaderID                            EH:000000:000000:000000
# Size                                4366944
# Center_1                            607.5320
# Center_2                            651.4720
# Comment                             Xenocs_Cell_Window - front_window_open_only
# DDummy                              0.6
# Date                                2025-10-19T13:29:05
# Delta                               0
# Dummy                               -1.5
# ExposureTime                        360
# Gamma                               0
# Intensity1                          8.85108e-10
# PSize_1                             7.5e-05
# PSize_2                             7.5e-05
# Pressure                            0.0329876
# SampleDistance                      0.450002
# SampleEnvKind                       large
# SampleEnvPN                         ElectroChemical cell
# SampleEnvSN                         1141
# Thickness                           0
# Wavelength                          1.541891e-10
# Wavelength                          1.54189e-10
# aux                                 0
# aux_dial                            0.002375
# beamx                               588.429
# beamx_dial                          588.429
# beamz                               657.855
# beamz_dial                          657.855
# det0x                               -0.000396875
# det0x_dial                          6.36905
# det0xvd                             -0.0005
# det0xvd_dial                        -0.0005
# det0y                               450.002
# det0y_dial                          481.635
# det0z                               0
# det0z_dial                          1.2295
# det0zvd                             0
# det0zvd_dial                        0
# mag                                 1.818
# mag_dial                            1.818
# om                                  0.2499
# om_dial                             -0.610199
# phi                                 -0.0120535
# phi_dial                            0
# ry                                  0.599993
# ry_dial                             0.599993
# s1bot                               0.8
# s1bot_dial                          -1.66094
# s1hl                                0.8
# s1hl_dial                           -0.608437
# s1hr                                0.8
# s1hr_dial                           0.970938
# s1top                               0.8
# s1top_dial                          -0.461562
# s2bot                               0.45
# s2bot_dial                          1.36109
# s2hl                                0.45
# s2hl_dial                           -0.83375
# s2hr                                0.45
# s2hr_dial                           -0.118594
# s2top                               0.45
# s2top_dial                          1.44734
# w2theta                             32
# w2theta_dial                        32
# waxsch                              19.2605
# waxsch_dial                         -32.7238
# waxsh                               137.085
# waxsh_dial                          -43.5335
# waxsth                              26.0607
# waxsth_dial                         -19.4068
# waxsz                               67.0407
# waxsz_dial                          -23.7962
# wind                                65.9854
# wind_dial                           66.0041
# wpsi                                124
# wpsi_dial                           124
# wstod                               115
# wstod_dial                          115
# x                                   0
# x_dial                              1.00969
# z                                   0
# z_dial                              13.3172
# CountCutoff                         15302352
# DetectorModel                       Dectris EIGER2 Si 1M, S/N E-02-0362
# ThresholdSetting                    4023.88989258
# Saturation                          0
# FlatField                           Corrected
# BackgroundReductionExtra            0.02
# BackgroundCorrectionConstant        0.0026712
# Detector                            0
# Monitor                             0
# Pil_Roi0                            0
# SumForIntensity1                    3.18639e+08
# TransmittedFlux                     885108
# det                                 0
# mon                                 0
# pilai0                              3.18639e+08
# pilai1                              691980
# pilct0                              5.51455e+08
# pilct1                              691980
# pilroi0                             0
# pilroi1                             0
# sec                                 1
# title                               20251017__0_00394.edf
# usaxs0                              0
# Operation                           Azimuthal average I(q)
# Error_model                         ErrorModel.poisson
# Geometrical_correction              True
# Transmission_correction             True
# Thickness_correction                False
# Binning mode                        Uniform
# Binning factor                      1.0
# Psi                                 0.0
# Omega                               0.2499
# MaskInvalidPixels                   True
# DetectorEdge                        3
# MaskFiles                           ['SAXS_correted.edf']
################################################################################
    q(A⁻¹)                Intensity(a.u.)            Sigma_I(a.u.)            
       0.000340                353383.491                115.362937           
       0.001019                352024.419                70.5091078           
       0.001698                348688.063                49.6206445           
       0.002377                331712.697                43.2882424           
       0.003056                299423.643                34.7590585           
       0.003735                260452.094                28.5901702           
       0.004415                204555.497                25.3371927           
       0.005094                152884.767                18.9699322           
       0.005773                101556.106                14.3140802           
       0.006452                61098.9941                 10.726203           
       0.007131                33096.6621                7.64375738           
       0.007810                16316.6251                 5.2850387           
       0.008490                8506.71062                3.38256676           
       0.009169                3303.43855                2.08324008           
       0.009848                1311.18567                 1.2621074           
       0.010527                   372.474               0.676332134           
       0.011206                 127.77377               0.374376417           
       0.011885                51.5231398               0.224987708           
       0.012564                24.9943204               0.157389271           
       0.013244                16.8360056               0.122868764           
       0.013923                 12.441526               0.107340718           
       0.014602                9.43482834               0.086038678           
       0.015281                7.56850424              0.0792946608           
       0.015960                6.06091905              0.0701892514           
       0.016639                4.94458289              0.0592755332           
       0.017319                4.20790021              0.0538419098           
       0.017998                3.34518524              0.0466064059           
       0.018677                2.87018355              0.0444675851           
       0.019356                2.51853708              0.0409129536           
       0.020035                2.12967694              0.0354011924           
       0.020714                1.87568819              0.0336644639           
       0.021394                1.55002573              0.0288098493           
       0.022073                1.43713546              0.0290811498           
       0.022752                1.25762088              0.0257080756           
       0.023431                1.04694447              0.0229290003           
       0.024110                1.02332882              0.0236913151           
       0.024789               0.893425749              0.0206381555           
       0.025469               0.802228714              0.0200267911           
       0.026148               0.722555383              0.0179991702           
       0.026827               0.669535999              0.0174654198           
       0.027506               0.634573586              0.0175798681           
       0.028185               0.550403178              0.0156783205           
       0.028864               0.511010607              0.0149021313           
       0.029544               0.477905143              0.0141158524           
       0.030223               0.450048928              0.0141492917           
       0.030902               0.400426037              0.0137878063           
       0.031581               0.382354088              0.0126261674           
       0.032260               0.353436294              0.0126642675           
       0.032939                0.31803327               0.012037477           
       0.033619               0.304052583              0.0121953513           
       0.034298                0.27781459              0.0112963156           
       0.034977               0.239379507              0.0104016267           
       0.035656               0.218968224              0.0104401402           
       0.036335               0.208144355             0.00992003089           
       0.037014               0.180859892             0.00974950453           
       0.037693               0.190790508             0.00974534221           
       0.038373               0.190819686               0.010181519           
       0.039052               0.182796235             0.00980162511           
       0.039731               0.158054137             0.00942626423           
       0.040410               0.137168733             0.00878143137           
       0.041089               0.143210097             0.00937809859           
       0.041768               0.135944242             0.00961976296           
       0.042448               0.132413791             0.00882785339           
       0.043127               0.120107884             0.00878152005           
       0.043806               0.130404804             0.00953741572           
       0.044485               0.137382273             0.00939185962           
       0.045164               0.107205275             0.00878419567           
       0.045843               0.107465267             0.00812400475           
       0.046523              0.0921856041             0.00773754444           
       0.047202               0.117270881             0.00915828333           
       0.047881               0.111000844             0.00882671096           
       0.048560              0.0977639942             0.00841544614           
       0.049239              0.0809558549             0.00727197578           
       0.049918              0.0923863126             0.00872963741           
       0.050598              0.0925480264             0.00821432148           
       0.051277              0.0888963322             0.00782663953           
       0.051956              0.0790728563             0.00819680515           
       0.052635              0.0684691696             0.00780555514           
       0.053314              0.0770967802             0.00783309579           
       0.053993              0.0842866433             0.00855989865           
       0.054673              0.0750415692             0.00778304145           
       0.055352              0.0923372901              0.0091368707           
       0.056031               0.073516287             0.00812029594           
       0.056710              0.0717761588             0.00802364359           
       0.057389              0.0805916662             0.00850213792           
       0.058068              0.0814347772             0.00831857746           
       0.058748               0.063295105             0.00736155539           
       0.059427              0.0754670643             0.00732408257           
       0.060106              0.0591621397               0.007832191           
       0.060785              0.0559458039             0.00689499893           
       0.061464              0.0661907122             0.00786291642           
       0.062143              0.0531674404             0.00664711121           
       0.062822              0.0647717561              0.0078433302           
       0.063502              0.0506748073              0.0072487926           
       0.064181              0.0589451792             0.00767837967           
       0.064860              0.0494496808             0.00755187918           
       0.065539              0.0453028118             0.00708517444           
       0.066218               0.055780788             0.00823361604           
       0.066897               0.053539805             0.00789849017           
       0.067577              0.0515289814             0.00804447753           
       0.068256              0.0495362518              0.0075586394           
       0.068935              0.0631840372             0.00876312768           
       0.069614              0.0490970152             0.00741251739           
       0.070293               0.043062574             0.00739529744           
       0.070972               0.055400672             0.00799368619           
       0.071652              0.0466499821             0.00757070402           
       0.072331               0.043262374             0.00776996678           
       0.073010              0.0426423755             0.00807073733           
       0.073689              0.0370099578             0.00701552329           
       0.074368               0.050275424             0.00794637075           
       0.075047              0.0469901929             0.00795203315           
       0.075727               0.040910479              0.0081867016           
       0.076406              0.0316106671             0.00747214397           
       0.077085              0.0438642998             0.00802473091           
       0.077764              0.0305188545             0.00702032922           
       0.078443              0.0380017972              0.0073279353           
       0.079122              0.0385451273             0.00772591482           
       0.079802              0.0375521714             0.00820872671           
       0.080481              0.0335814766             0.00702158927           
       0.081160              0.0292171215             0.00782086694           
       0.081839              0.0320922398             0.00758865573           
       0.082518              0.0332803782             0.00727951224           
       0.083197              0.0457868888             0.00936664555           
       0.083876              0.0387958536             0.00722594779           
       0.084556              0.0713680881              0.0118975816           
       0.085235              0.0529591274             0.00952455778           
       0.085914              0.0354764349             0.00741236982           
       0.086593              0.0328890803             0.00756345124           
       0.087272              0.0345339836             0.00721515635           
       0.087951              0.0262095315             0.00702764168           
       0.088631              0.0272884918             0.00683715868           
       0.089310              0.0338054789             0.00738932593           
       0.089989              0.0284887618             0.00638536636           
       0.090668              0.0345914905             0.00775698628           
       0.091347              0.0215963674             0.00627569718           
       0.092026              0.0327717096             0.00656402266           
       0.092706              0.0286815367              0.0076787782           
       0.093385              0.0334607584             0.00768869568           
       0.094064              0.0267540989             0.00692950439           
       0.094743                0.02854806             0.00674277772           
       0.095422               0.022331261             0.00648729194           
       0.096101              0.0306276989             0.00887188371           
       0.096781              0.0334453753             0.00787391409           
       0.097460              0.0213004153              0.0064442164           
       0.098139              0.0347514253             0.00869315478           
       0.098818              0.0241673333             0.00648415074           
       0.099497              0.0327786493             0.00820941173           
       0.100176              0.0207061086             0.00600195905           
       0.100856              0.0245311756             0.00710200698           
       0.101535              0.0263368283             0.00796047305           
       0.102214              0.0221393517             0.00593829839           
       0.102893               0.037099039             0.00791325822           
       0.103572              0.0220292543             0.00592359043           
       0.104251               0.020138454             0.00611033558           
       0.104931              0.0149657383              0.0057051524           
       0.105610              0.0416709075              0.0090928824           
       0.106289              0.0369634671             0.00871827487           
       0.106968             0.00978143288             0.00374210449           
       0.107647              0.0242734851              0.0067642807           
       0.108326              0.0225056608             0.00680296979           
       0.109005              0.0227097255             0.00570202875           
       0.109685              0.0235697296             0.00683879866           
       0.110364              0.0313171379              0.0070140262           
       0.111043              0.0100604773              0.0045485578           
       0.111722              0.0215202491             0.00577445279           
       0.112401              0.0196076978             0.00593327383           
       0.113080              0.0331098751             0.00803562565           
       0.113760                0.02129565             0.00644449686           
       0.114439              0.0263462268             0.00606564949           
       0.115118              0.0253166072              0.0061792549           
       0.115797              0.0204954817             0.00571434859           
       0.116476              0.0322959604             0.00761507091           
       0.117155              0.0246667205             0.00660295999           
       0.117835              0.0221481457             0.00616130861           
       0.118514              0.0104014752             0.00428782394           
       0.119193              0.0177582784               0.005395832           
       0.119872              0.0280391766             0.00727097225           
       0.120551              0.0174948334             0.00556101263           
       0.121230              0.0213748877             0.00619546496           
       0.121910              0.0203478036             0.00590584615           
       0.122589              0.0224438228             0.00602279306           
       0.123268              0.0243700673             0.00632129131           
       0.123947              0.0224834704             0.00563886732           
       0.124626              0.0210815904             0.00546028408           
       0.125305              0.0241622179             0.00607805185           
       0.125985              0.0277978072             0.00675143046           
       0.126664              0.0221280086             0.00615910757           
       0.127343              0.0203917225             0.00647690506           
       0.128022              0.0211606338             0.00589067516           
       0.128701              0.0149849815             0.00454726251           
       0.129380              0.0246618115             0.00660320486           
       0.130059              0.0183951274             0.00584146904           
       0.130739              0.0162226653             0.00544132363           
       0.131418              0.0265998145             0.00646570242           
       0.132097              0.0131127141             0.00467130286           
       0.132776              0.0107601907             0.00443163423           
       0.133455              0.0125458882             0.00478528741           
       0.134134              0.0216067076             0.00578748158           
       0.134814              0.0172357436             0.00500066799           
       0.135493              0.0220826171             0.00640065272           
       0.136172              0.0160025657             0.00484972497           
       0.136851              0.0169998075              0.0049349133           
       0.137530              0.0150231167             0.00479334668           
       0.138209              0.0181456215             0.00526803835           
       0.138889              0.0212637287             0.00570277494           
       0.139568              0.0196711877             0.00548511328           
       0.140247              0.0221127386              0.0059372002           
       0.140926              0.0177157237             0.00494499865           
       0.141605              0.0151453236             0.00460038507           
       0.142284              0.0237118357             0.00614828996           
       0.142964              0.0212089996             0.00569572695           
       0.143643              0.0194565305             0.00564958696           
       0.144322              0.0128136655             0.00458484462           
       0.145001              0.0145099696             0.00487893343           
       0.145680              0.0198060991             0.00513582469           
       0.146359              0.0117161452             0.00417743513           
       0.147039              0.0166144481             0.00504144581           
       0.147718              0.0250411287             0.00670792746           
       0.148397              0.0244809873             0.00633761375           
       0.149076               0.017057476             0.00517882561           
       0.149755              0.0195933517             0.00507865606           
       0.150434              0.0143562456             0.00481858206           
       0.151114              0.0253054886             0.00598431405           
       0.151793              0.0221237942             0.00593959313           
       0.152472              0.0183206897             0.00512409543           
       0.153151              0.0170870776             0.00518360546           
       0.153830              0.0233904157             0.00568303521           
       0.154509              0.0224339575              0.0056348198           
       0.155188              0.0237779885             0.00580121486           
       0.155868              0.0229727547             0.00528866014           
       0.156547              0.0171820871             0.00547098805           
       0.157226              0.0305661907             0.00638116225           
       0.157905              0.0277007076             0.00674239328           
       0.158584              0.0117867716             0.00396264479           
       0.159263              0.0217436963             0.00630191177           
       0.159943              0.0244316553              0.0057735526           
       0.160622              0.0198934186             0.00534012192           
       0.161301              0.0147416726             0.00495488234           
       0.161980              0.0227439699             0.00537968532           
       0.162659              0.0221726286             0.00594705757           
       0.163338              0.0118513401             0.00399734307           
       0.164018              0.0167075502             0.00505675659           
       0.164697              0.0237611223             0.00562677973           
       0.165376               0.021605417             0.00560111324           
       0.166055              0.0189081801             0.00507961222           
       0.166734              0.0180649246             0.00484962294           
       0.167413              0.0127588509             0.00407568076           
       0.168093              0.0174676577             0.00506909572           
       0.168772              0.0144715349             0.00439147694           
       0.169451              0.0238216219             0.00616486982           
       0.170130               0.019911414             0.00534329527           
       0.170809              0.0093488547             0.00386212427           
       0.171488             0.00944094003             0.00361145299           
       0.172168              0.0184817747             0.00535545001           
       0.172847              0.0133509052             0.00475125187           
       0.173526             0.00855006257              0.0035467801           
       0.174205               0.011930306             0.00401130189           
       0.174884              0.0106507732             0.00406567736           
       0.175563              0.0219496336             0.00534641801           
       0.176243              0.0163692977             0.00456492231           
       0.176922              0.0169815603             0.00493506816           
       0.177601              0.0145804936             0.00423755505           
       0.178280             0.00837264948             0.00346533824           
       0.178959              0.0165863247               0.004621321           
       0.179638              0.0146912036             0.00445169959           
       0.180317              0.0132011825             0.00401057797           
       0.180997              0.0158181876             0.00441399061           
       0.181676              0.0157418927             0.00478225688           
       0.182355               0.015481265             0.00432011607           
       0.183034              0.0134758116             0.00409654867           
       0.183713              0.0135176422             0.00429613361           
       0.184392              0.0169204176             0.00472201552           
       0.185072              0.0133416612             0.00424269018           
       0.185751             0.00821279127             0.00314675198           
       0.186430              0.0200910822             0.00520652674           
       0.187109              0.0267928649             0.00571425031           
       0.187788              0.0178645253             0.00479678546           
       0.188467              0.0122325988             0.00390336901           
       0.189147              0.0140910334              0.0050350882           
       0.189826              0.0106485838             0.00381345115           
       0.190505              0.0258640838             0.00552623025           
       0.191184              0.0148378491             0.00414279898           
       0.191863              0.0134820851             0.00429107265           
       0.192542              0.0263526429             0.00563741053           
       0.193222              0.0202752161             0.00455048441           
       0.193901              0.0210162044             0.00563622168           
       0.194580              0.0134761717             0.00409740956           
       0.195259             0.00902914523             0.00374467467           
       0.195938              0.0187056042             0.00502462394           
       0.196617              0.0134668741             0.00409614461           
       0.197297              0.0155253257             0.00469075715           
       0.197976              0.0271514432             0.00566283587           
       0.198655               0.015463928             0.00431891468           
       0.199334             0.00998138321             0.00336417915           
       0.200013              0.0155011013             0.00432420604           
       0.200692              0.0149221035             0.00474983753           
       0.201371               0.021733602             0.00514782848           
       0.202051              0.0172596941             0.00463768109           
       0.202730              0.0149107964             0.00433450586           
       0.203409               0.018717272              0.0050268691           
       0.204088             0.00959225479             0.00323418619           
       0.204767              0.0177271622             0.00495153077           
       0.205446              0.0148852572             0.00433100729           
       0.206126              0.0236251681             0.00505162054           
       0.206805              0.0184831134             0.00464884485           
       0.207484              0.0176406409             0.00474144668           
       0.208163              0.0123905562             0.00395164825           
       0.208842              0.0158137196             0.00411362004           
       0.209521              0.0163163183             0.00423894608           
       0.210201              0.0142397188             0.00397943998           
       0.210880              0.0159477754             0.00484709418           
       0.211559              0.0110802226             0.00354532846           
       0.212238              0.0130116169             0.00378559962           
       0.212917               0.015235116             0.00409635771           
       0.213596              0.0150539314             0.00405235458           
       0.214276              0.0148404354             0.00450390697           
       0.214955             0.00971219289             0.00347975788           
       0.215634               0.017277874             0.00464131224           
       0.216313               0.023281878             0.00535842648           
       0.216992              0.0180893533             0.00469783984           
       0.217671              0.0169370048              0.0047271908           
       0.218351              0.0203061189             0.00495095788           
       0.219030               0.010912186             0.00366866081           
       0.219709              0.0131787304             0.00419448441           
       0.220388              0.0160229329             0.00447000183           
       0.221067              0.0113839507              0.0036307532           
       0.221746              0.0139415559             0.00405965198           
       0.222426              0.0128765678             0.00374850623           
       0.223105              0.0147935125             0.00429532437           
       0.223784              0.0148528253             0.00414742413           
       0.224463             0.00997755604             0.00336515375           
       0.225142              0.0102724946             0.00328567862           
       0.225821              0.0111332086             0.00338936809           
       0.226500              0.0165082766              0.0044411977           
       0.227180              0.0127841602             0.00371756304           
       0.227859              0.0198648954             0.00497789237           
       0.228538              0.0132665327             0.00357245688           
       0.229217             0.00908456585             0.00306190103           
       0.229896              0.0105333668             0.00354783191           
       0.230575               0.012031461             0.00365937079           
       0.231255               0.010655222             0.00358732827           
       0.231934               0.019146914             0.00480889358           
       0.232613              0.0173177963             0.00450221521           
       0.233292              0.0156459007             0.00437049899           
       0.233971              0.0230182445             0.00516418785           
       0.234650              0.0218245278             0.00502856199           
       0.235330               0.015245396             0.00443526015           
       0.236009               0.014708033             0.00410730654           
       0.236688              0.0073927156             0.00284111705           
       0.237367             0.00901612498             0.00323226704           
       0.238046              0.0126828092             0.00385334791           
       0.238725              0.0155518769             0.00404391462           
       0.239405               0.013174294             0.00382994611           
       0.240084             0.00921116617             0.00311229674           
       0.240763             0.00590384744              0.0030101871           
       0.241442              0.0103819258             0.00331967332           
       0.242121              0.0177220157             0.00475572005           
       0.242800              0.0133578305             0.00373091855           
       0.243480              0.0179947023             0.00452105861           
       0.244159              0.0104328564             0.00318260655           
       0.244838              0.0197363794             0.00466547298           
       0.245517             0.00927376454             0.00354140789           
       0.246196              0.0111112828              0.0035528408           
       0.246875              0.0139374466              0.0040612182           
       0.247554              0.0169036737             0.00454418818           
       0.248234             0.00803829214             0.00308432217           
       0.248913              0.0257203617             0.00576259042           
       0.249592              0.0128849127             0.00375189799           
       0.250271             0.00714800331             0.00297120207           
       0.250950               0.017402651             0.00451504602           
       0.251629             0.00610914418             0.00279281477           
       0.252309             0.00914138621             0.00327245455           
       0.252988               0.016332002             0.00439687817           
       0.253667              0.0220031062             0.00521333227           
       0.254346              0.0157399903             0.00408869275           
       0.255025              0.0103929625             0.00350763497           
       0.255704             0.00834699595             0.00299157286           
       0.256384              0.0208418654             0.00479561407           
       0.257063              0.0132801913             0.00386583172           
       0.257742              0.0128285281             0.00389727081           
       0.258421             0.00734280695             0.00263727509           
       0.259100              0.0160511759             0.00486777081           
       0.259779              0.0132029277             0.00401719145           
       0.260459              0.0130931973              0.0036618199           
       0.261138              0.0068139832             0.00284058439           
       0.261817              0.0153074634             0.00444693016           
       0.262496             0.00724586372             0.00300871539           
       0.263175              0.0186163974             0.00499001857           
       0.263854              0.0128021206               0.003893823           
       0.264534              0.0142715876             0.00398854178           
       0.265213              0.0131157625             0.00382368536           
       0.265892              0.0115809137             0.00389048641           
       0.266571              0.0111315683             0.00375021298           
       0.267250              0.0124155632             0.00396066663           
       0.267929              0.0247583289             0.00541550041           
       0.268609             0.00975092568             0.00349078454           
       0.269288              0.0160720334              0.0043186728           
       0.269967             0.00527399256             0.00270456666           
       0.270646              0.0148939459             0.00415751895           
       0.271325              0.0122655308             0.00391536423           
       0.272004              0.0207246064             0.00465035636           
       0.272683              0.0152672906             0.00463022557           
       0.273363               0.012971248             0.00394094515           
       0.274042              0.0146714953             0.00394933465           
       0.274721              0.0107882206             0.00363261369           
       0.275400              0.0191205297             0.00481037674           
       0.276079             0.00889056535             0.00340962001           
       0.276758              0.0171365843             0.00430898657           
       0.277438              0.0132762925             0.00424047444           
       0.278117              0.0105328114             0.00375478748           
       0.278796              0.0107965606             0.00363439425           
       0.279475              0.0130830559             0.00439690094           
       0.280154              0.0128150105             0.00456410335           
       0.280833             0.00860434307             0.00356587693           
       0.281513              0.0169265069             0.00602845103           
       0.282192              0.0120918985             0.00407170016           
       0.282871              0.0169339003             0.00513797435           
       0.283550              0.0148512116             0.00498550559           
       0.284229              0.0197666509             0.00597567839           
       0.284908              0.0165110312             0.00500557907           
       0.285588               0.010121582             0.00386798222           
       0.286267              0.0165394461             0.00526162251           
       0.286946             0.00970513459              0.0044023471           
       0.287625             0.00966672517             0.00399340826           
       0.288304              0.0160481235             0.00487082758           
       0.288983             0.00989012332             0.00379924882           
       0.289663              0.0172232589             0.00521847049           
       0.290342             0.00411010893             0.00299974371           
       0.291021              0.0130538157             0.00497691514           
       0.291700             0.00880307723             0.00398861614           
       0.292379              0.0115190065             0.00410055784           
       0.293058             0.00896498117             0.00405760057           
       0.293738             0.00682406151             0.00348441134           
       0.294417              0.0103099903             0.00424990048           
       0.295096             0.00592100049             0.00346990368           
       0.295775             0.00912581708             0.00412755276           
       0.296454              0.0283827347             0.00733974652           
       0.297133             0.00870808815             0.00393649482           
       0.297812              0.0109971373             0.00393226641           
       0.298492               0.017344683             0.00551289436           
       0.299171              0.0156272346             0.00497206362           
       0.299850              0.0074609718             0.00379525624           
       0.300529              0.0202132514             0.00543311247           
       0.301208              0.0214208813             0.00574233291           
       0.301887              0.0138303781             0.00464567784           
       0.302567              0.0235021167             0.00746851914           
       0.303246              0.0120371398             0.00459319401           
       0.303925             0.00925760423             0.00419268292           
       0.304604              0.0124076484             0.00511651933           
       0.305283              0.0142114791              0.0050697174           
       0.305962             0.00371796733             0.00272620101           
       0.306642             0.00835465195             0.00423815642           
       0.307321             0.00790788723             0.00401138718           
       0.308000              0.0131779355             0.00469933342           
       0.308679              0.0122607923             0.00504025356           
       0.309358             0.00928757008             0.00469584384           
       0.310037              0.0115617771             0.00476640303           
       0.310717              0.0111322138             0.00459849466           
       0.311396             0.00803287724             0.00408002078           
       0.312075             0.00345753124              0.0025417605           
       0.312754              0.0111167069             0.00503417205           
       0.313433             0.00855766447             0.00387395152           
       0.314112              0.0106433271             0.00438844129           
       0.314792              0.0173701876             0.00712559025           
       0.315471               0.017227105             0.00653410577           
       0.316150              0.0406763512              0.0102662442           
       0.316829              0.0140843028             0.00633597836           
       0.317508              0.0156221949             0.00596856669           
       0.318187              0.0079410471             0.00464309064           
       0.318866             0.00901380798             0.00457991636           
       0.319546              0.0226896836             0.00859786377           
       0.320225             0.00255642733             0.00269963895           
       0.320904             0.00456933392             0.00332969235           
       0.321583              0.0127092268             0.00522946198           
       0.322262             0.00768320089              0.0045141997           
       0.322941             0.00373428311             0.00273350121           
       0.323621              0.0168070813             0.00638643479           
       0.324300             0.00996707536             0.00502627958           
       0.324979              0.0109441391             0.00494748082           
       0.325658              0.0106677938             0.00538269385           
       0.326337              0.0053381158             0.00385388186           
       0.327016             0.00429389058              0.0031300077           
       0.327696             0.00645617718             0.00380028269           
       0.328375             0.00647804517             0.00466235007           
       0.329054              0.0146533269             0.00663296824           
       0.329733             0.00470409001             0.00341584846           
       0.330412              0.0179686605             0.00640356687           
       0.331091              0.0033731319             0.00352366255           
       0.331771              0.0133837148             0.00603017692           
       0.332450              0.0226776509             0.00928779738           
       0.333129             0.00543054148             0.00393618604           
       0.333808             0.00812734824             0.00475636772           
       0.334487              0.0125041495             0.00629618546           
       0.335166             0.00564220039             0.00406352596           
       0.335846             0.00734670066             0.00528695771           
       0.336525              0.0128918363             0.00648414203           
       0.337204              0.0090658025             0.00459561509           
       0.337883             0.00383856422             0.00282261025           
       0.338562              0.0106646597             0.00538401054           
       0.339241              0.0206071453             0.00844339221           
       0.339921              0.0169395826             0.00695336725           
       0.340600              0.0132086319             0.00543785035           
       0.341279             0.00860436783             0.00501903349           
       0.341958             0.00984294356             0.00574943524           
       0.342637              0.0121405415             0.00612110661           
       0.343316              0.0121349997             0.00611983375           
       0.343995              0.0146069076             0.00602184332           
       0.344675             0.00257696894             0.00271245864           
       0.345354             0.00712731779             0.00512423618           
       0.346033               0.011222937             0.00566082213           
       0.346712              0.0081077453             0.00475251669           
       0.347391              0.0217241544             0.00726604023           
       0.348070             0.00530243176              0.0038435264           
       0.348750              0.0056198374              0.0040571732           
       0.349429           -0.000305148923                         0           
       0.350108             0.00859418407             0.00614508714           
       0.350787              0.0503576358              0.0136230182           
       0.351466               0.011809504             0.00595875247           
       0.352145              0.0077321521             0.00453269962           
       0.352825              0.0101375882             0.00592462078           
       0.353504             0.00626804599             0.00452367743           
       0.354183              0.0188306145             0.00773124513           
       0.354862              0.0182321522             0.00819816898           
       0.355541           -0.000305269643                         0           
       0.356220             0.00299638134             0.00312796479           
       0.356900             0.00900152174             0.00527306802           
       0.357579             0.00364775713             0.00379167105           
       0.358258              0.0206332069             0.00845380186           
       0.358937              0.0132113623             0.00666453768           
       0.359616              0.0151606185             0.00760052296           
       0.360295              0.0233832907             0.00960083207           
       0.360975              0.0129528768             0.00754676536           
       0.361654              0.0125484627             0.00631275981           
       0.362333             0.00735337947             0.00432236052           
       0.363012              0.0043233231             0.00444665329           
       0.363691              0.0037962168             0.00393730987           
       0.364370              0.0206146084              0.0103511742           
       0.365050             0.00850539219             0.00611621872           
       0.365729              0.0106698602             0.00762258449           
       0.366408             0.00396460707             0.00409788995           
       0.367087             0.00230786758             0.00244924489           
       0.367766              0.0116142353             0.00676798373           
       0.368445              0.0101529699             0.00726536902           
       0.369124             0.00543865963             0.00557714838           
       0.369804             0.00397720466             0.00410486835           
       0.370483              0.0044803043             0.00462114624           
       0.371162               0.020359795             0.00912050523           
       0.371841           -0.000305597895                         0           
       0.372520             0.00411080708             0.00425313379           
       0.373199             0.00469986246             0.00483525979           
       0.373879             0.00766742725              0.0055001772           
       0.374558             0.00346204124             0.00357475806           
       0.375237           -0.000305667707                         0           
       0.375916           -0.000305681904                         0           
       0.376595             0.00742180966              0.0053209034           
       0.377274             0.00767293749             0.00550279101           
       0.377954             0.00395010013             0.00409198073           
       0.378633           -0.000305738351                         0           
       0.379312             0.00576004239             0.00589070169           
       0.379991           -0.000305766132                         0           
       0.380670             0.00738574809             0.00530871794           
       0.381349             0.00603008877             0.00619282262           
       0.382029              0.0169872441             0.00986093357           
       0.382708             0.00380294177             0.00394333398           
       0.383387              0.0066781454             0.00481354206           
       0.384066             0.00495416129             0.00507782852           
       0.384745             0.00448229907             0.00462444106           
       0.385424              0.0217435187             0.00978593633           
       0.386104              0.0168268259             0.00844798432           
       0.386783              0.0284579003              0.0127653118           
       0.387462             0.00820268852             0.00589861712           
       0.388141             0.00785396519             0.00566800623           
       0.388820             0.00545178418             0.00558764569           
       0.389499             0.00794503219             0.00570104579           
       0.390178             0.00468986454              0.0048329304           
       0.390858               0.015003984             0.00756918603           
       0.391537           -0.000306014034                         0           
       0.392216           -0.000306028603                         0           
       0.392895              0.0179194175              0.0103949722           
       0.393574             0.00550013417             0.00561332371           
       0.394253           -0.000306074087                         0           
       0.394933              0.0170379619             0.00988015333           
       0.395612              0.0125339128             0.00729360317           
       0.396291               0.014148181              0.0100665878           
       0.396970            -0.00030613347                         0           
       0.397649             0.00859722389             0.00870602414           
       0.398328             0.00382045603             0.00395459367           
       0.399008             0.00450886914               0.004640475           
       0.399687             0.00974085163             0.00696754432           
       0.400366             0.00429510087             0.00443784192           
       0.401045           -0.000306223926                         0           
       0.401724              0.0068839526             0.00702320447           
       0.402403              0.0118725006             0.00846412373           
       0.403083             0.00928584683             0.00666043845           
       0.403762              0.0271507367              0.0121756268           
       0.404441               0.004528913             0.00465170315           
       0.405120              0.0285641185              0.0127975154           
       0.405799             0.00474456314             0.00486378678           
       0.406478              0.0107039415             0.00764566201           
       0.407158             0.00650918102             0.00662676662           
       0.407837              0.0130743419             0.00759445519           
       0.408516             0.00747190237             0.00755884851           
       0.409195             0.00521193702             0.00533563743           
       0.409874              0.0086091939             0.00871600798           
       0.410553           -0.000306438682                         0           
       0.411233             0.00797776958              0.0080854825           
       0.411912             0.00609106954             0.00623090372           
       0.412591           -0.000306485323                         0           
       0.413270              0.0118537999             0.00846086369           
       0.413949           -0.000306515462                         0           
       0.414628           -0.000306533455                         0           
       0.415307           -0.000306548195                         0           
       0.415987              0.0200846503              0.0116443445           
       0.416666             0.00972709894             0.00696703777           
       0.417345           -0.000306594223                         0           
       0.418024              0.0161735758              0.0115154369           
       0.418703           -0.000306628512                         0           
       0.419382           -0.000306640029                         0           
       0.420062             0.00795594313             0.00807709995           
       0.420741           -0.000306675521                         0           
       0.421420              0.0119179906             0.00848636701           
       0.422099           -0.000306706661                         0           
       0.422778             0.00521275439              0.0053387912           
       0.423457               0.015907435              0.0161540603           
       0.424137              0.0102168217             0.00730279047           
       0.424816             0.00694012987              0.0070579322           
       0.425495             0.00929937806              0.0094341086           
       0.426174              0.0189917644              0.0134824361           
       0.426853              0.0112234785               0.011354033           
       0.427532               0.018963917              0.0134732437           
       0.428212              0.0112728386              0.0113796196           
       0.428891              0.0163306355              0.0163709342           
       0.429570           -0.000306882644                         0           
       0.430249           -0.000306897902                         0           
       0.430928           -0.000306913441                         0           
       0.431607              0.0132981725             0.00948069175           
       0.432287           -0.000306948394                         0           
       0.432966           -0.000306966428                         0           
       0.433645           -0.000306980145                         0           
       0.434324              0.0125479664              0.0126584353           
       0.435003           -0.000307012692                         0           
       0.435682           -0.000307031253                         0           
       0.436361           -0.000307047582                         0           
       0.437041           -0.000307065276                         0           
       0.437720              0.0126775262              0.0127252631           
       0.438399           -0.000307095796                         0           
       0.439078            -0.00030711416                         0           
       0.439757              0.0112742186               0.011385458           
       0.440436           -0.000307150271                         0           
       0.441116              0.0430011912              0.0248614616           
       0.441795           -0.000307178983                         0           
       0.442474              0.0105278209               0.010491265           
       0.443153              0.0126377952              0.0127081013           
       0.443832           -0.000307229922                         0           
       0.444511           -0.000307248759                         0           
       0.445191              0.0209210292              0.0147910262           
       0.445870               0.011233731              0.0113678481           
       0.446549             0.00934357246              0.0094643517           
       0.447228           -0.000307313916                         0           
       0.447907           -0.000307333006                         0           
       0.448586              0.0141517022              0.0142667402           
       0.449266              0.0229656174              0.0162560849           
       0.449945           -0.000307380404                         0           
       0.450624               0.156398103              0.0404500108           
       0.451303              0.0190983301              0.0191396737           
       0.451982              0.0288722561              0.0288225965           
       0.452661           -0.000307447922                         0           
       0.453341           -0.000307469079                         0           
       0.454020              0.0162828614              0.0163634579           
       0.454699              0.0579109668              0.0577342878           
       0.455378           -0.000307520449                         0           
       0.456057              0.0112820242              0.0113970068           
       0.456736           -0.000307557699                         0           
       0.457416           -0.000307571989                         0           
       0.458095              0.0286994637              0.0287434643           
       0.458774           -0.000307608574                         0           
       0.459453              0.0287092301              0.0287500487           
       0.460132           -0.000307642071                         0           
       0.460811           -0.000307660941                         0           
       0.461490           -0.000307678077                         0           
       0.462170           -0.000307693316                         0           
       0.462849           -0.000307714395                         0           
       0.463528           -0.000307725526                         0           
       0.464207           -0.000307745304                         0           
       0.464886           -0.000307757756                         0           
       0.465565           -0.000307784209                         0           
       0.466245           -0.000307809765                         0           
       0.466924           -0.000307815804                         0           
       0.467603           -0.000307839509                         0           
       0.468282           -0.000307852123                         0           
       0.468961            -0.00030787507                         0           
       0.469640           -0.000307889655                         0           
       0.470320                       nan                       nan           
       0.470999           -0.000307929532                         0           
       0.471678           -0.000307944688                         0           
       0.472357           -0.000307956458                         0           
       0.473036             -0.0003079784                         0           
       0.473715           -0.000307995207                         0           
       0.474395           -0.000308013023                         0           
       0.475074                       nan                       nan           
       0.475753            -0.00030804921                         0           
       0.476432           -0.000308071918                         0           
       0.477111              0.0386247553               0.038535254           
       0.477790                       nan                       nan           
       0.478470           -0.000308128676                         0           
       0.479149            -0.00030814302                         0           
       0.479828           -0.000308163474                         0           
       0.480507           -0.000308178569                         0           
       0.481186           -0.000308199091                         0           
       0.481865           -0.000308214798                         0           
       0.482545           -0.000308233277                         0           
       0.483224           -0.000308248931                         0           
       0.483903                       nan                       nan           
       0.484582                       nan                       nan           
       0.485261           -0.000308308435                         0           
