################################################################################
# EDF_DataBlockID                     0.Image.Psd
# EDF_BinarySize                      2105344
# EDF_HeaderSize                      2560
# ByteOrder                           LowByteFirst
# DataType                            FloatValue
# Dim_1                               512
# Dim_2                               1028
# Image                               0
# HeaderID                            EH:000000:000000:000000
# Size                                2105344
# Center_1                            304.9000
# Center_2                            588.7000
# Comment                             Xenocs_Cell_Window - front_window_open_only
# DDummy                              0.6
# Date                                2025-10-17T20:53:07
# Delta                               21.910000
# Dummy                               -1.5
# ExposureTime                        360
# Gamma                               15.360000
# Intensity1                          9.81587e-10
# PSize_1                             7.5e-05
# PSize_2                             7.5e-05
# Pressure                            0.0373316
# SampleDistance                      0.115750
# SampleEnvKind                       large
# SampleEnvPN                         ElectroChemical cell
# SampleEnvSN                         1141
# Thickness                           0
# Wavelength                          1.541891e-10
# Wavelength                          1.54189e-10
# aux                                 0
# aux_dial                            0.002375
# beamx                               588.429
# beamx_dial                          588.429
# beamz                               657.855
# beamz_dial                          657.855
# det0x                               -0.000396875
# det0x_dial                          6.36905
# det0xvd                             -0.0005
# det0xvd_dial                        -0.0005
# det0y                               450.002
# det0y_dial                          481.635
# det0z                               0
# det0z_dial                          1.2295
# det0zvd                             0
# det0zvd_dial                        0
# mag                                 1.818
# mag_dial                            1.818
# om                                  0.2499
# om_dial                             -0.610199
# phi                                 -0.0120535
# phi_dial                            0
# ry                                  0.599993
# ry_dial                             0.599993
# s1bot                               0.8
# s1bot_dial                          -1.66094
# s1hl                                0.8
# s1hl_dial                           -0.608437
# s1hr                                0.8
# s1hr_dial                           0.970938
# s1top                               0.8
# s1top_dial                          -0.461562
# s2bot                               0.45
# s2bot_dial                          1.36109
# s2hl                                0.45
# s2hl_dial                           -0.83375
# s2hr                                0.45
# s2hr_dial                           -0.118594
# s2top                               0.45
# s2top_dial                          1.44734
# w2theta                             32
# w2theta_dial                        32
# waxsch                              19.2605
# waxsch_dial                         -32.7238
# waxsh                               137.085
# waxsh_dial                          -43.5335
# waxsth                              26.0607
# waxsth_dial                         -19.4068
# waxsz                               67.0407
# waxsz_dial                          -23.7962
# wind                                65.9854
# wind_dial                           66.0041
# wpsi                                124
# wpsi_dial                           124
# wstod                               115
# wstod_dial                          115
# x                                   0
# x_dial                              1.00969
# z                                   0
# z_dial                              13.3172
# CountCutoff                         6807993
# DetectorModel                       Dectris EIGER2 Si 500K, S/N E-01-0554
# ThresholdSetting                    4023.88989258
# Saturation                          0
# FlatField                           Corrected
# BackgroundReductionExtra            0.02
# BackgroundCorrectionConstant        0.0026712
# Detector                            0
# Monitor                             0
# Pil_Roi0                            0
# SumForIntensity1                    3.53371e+08
# TransmittedFlux                     981587
# det                                 0
# mon                                 0
# pilai0                              3.53371e+08
# pilai1                              764437
# pilct0                              6.08264e+08
# pilct1                              764437
# pilroi0                             0
# pilroi1                             0
# sec                                 1
# title                               20251017__1_00025.edf
# usaxs0                              0
# Operation                           Azimuthal average I(q)
# Error_model                         ErrorModel.poisson
# Geometrical_correction              True
# Transmission_correction             True
# Thickness_correction                False
# Binning mode                        Uniform
# Binning factor                      1.0
# Psi                                 0.0
# Omega                               0.2499
# MaskInvalidPixels                   True
# DetectorEdge                        3
# MaskFiles                           ['20251017__1_00233_mask.edf']
################################################################################
    q(A⁻¹)                Intensity(a.u.)            Sigma_I(a.u.)            
       0.690460             0.00702596728             0.00737723401           
       0.693100             0.00423886851             0.00256184716           
       0.695741              0.0063856065             0.00265641205           
       0.698381             0.00366257948             0.00188162927           
       0.701021             0.00694478703             0.00211463231           
       0.703662              0.0074770126             0.00203100874           
       0.706302             0.00708135561              0.0019088939           
       0.708942             0.00712845597             0.00170123869           
       0.711583             0.00560482454             0.00150823488           
       0.714223             0.00812953673             0.00158286943           
       0.716864             0.00596790985             0.00138393288           
       0.719504             0.00462553996             0.00112761796           
       0.722144             0.00733900444             0.00137178179           
       0.724785             0.00658488757             0.00127809621           
       0.727425              0.0060984944             0.00114087626           
       0.730065             0.00558800216             0.00112369144           
       0.732706             0.00580660153             0.00103004844           
       0.735346             0.00715339942             0.00123493816           
       0.737987             0.00601686802            0.000980307134           
       0.740627             0.00743570746             0.00119383928           
       0.743267             0.00716326561             0.00100791933           
       0.745908             0.00599937854             0.00098856796           
       0.748548             0.00675454128            0.000978321356           
       0.751189              0.0064760551            0.000948916276           
       0.753829              0.0054722465            0.000880147701           
       0.756469             0.00632603636             0.00089005861           
       0.759110             0.00712595985            0.000977097816           
       0.761750              0.0062245876            0.000835775869           
       0.764390             0.00665407069            0.000927594167           
       0.767031             0.00638462092             0.00082219478           
       0.769671             0.00544684995            0.000805385897           
       0.772312             0.00658652483            0.000807059778           
       0.774952             0.00574097176            0.000807767835           
       0.777592             0.00624946879            0.000770851074           
       0.780233             0.00671049311             0.00084207931           
       0.782873             0.00570454566            0.000709978316           
       0.785513             0.00636773118            0.000797941979           
       0.788154             0.00584861974            0.000702409984           
       0.790794              0.0061039644            0.000742674095           
       0.793435             0.00645322576            0.000733455283           
       0.796075             0.00568570345            0.000692095144           
       0.798715             0.00660249426            0.000741551485           
       0.801356             0.00639986576              0.0007105455           
       0.803996             0.00631785242            0.000717259952           
       0.806637             0.00649976384             0.00068769165           
       0.809277             0.00739541543            0.000767406794           
       0.811917             0.00674139701            0.000693336148           
       0.814558             0.00743582706            0.000745964715           
       0.817198             0.00506513781            0.000587043598           
       0.819838              0.0053115737            0.000627068829           
       0.822479             0.00769489543            0.000695545848           
       0.825119             0.00728845718            0.000727194091           
       0.827760             0.00615421171            0.000619173418           
       0.830400             0.00535414251            0.000608496087           
       0.833040             0.00683033046            0.000641428016           
       0.835681             0.00591694719            0.000625188564           
       0.838321             0.00726811349            0.000648545213           
       0.840961             0.00653886528            0.000642980979           
       0.843602             0.00646699674            0.000602324967           
       0.846242             0.00704582961            0.000650900415           
       0.848883             0.00570776827            0.000569894181           
       0.851523             0.00580220431            0.000578895477           
       0.854163             0.00582845247            0.000573462805           
       0.856804             0.00697346373            0.000611217735           
       0.859444             0.00763274078            0.000644055457           
       0.862085             0.00609426104            0.000567126211           
       0.864725             0.00666406606            0.000590869344           
       0.867365              0.0057444972            0.000544661208           
       0.870006             0.00705989556            0.000612233418           
       0.872646             0.00714734138            0.000589204012           
       0.875286             0.00536604063            0.000527924333           
       0.877927             0.00757258125            0.000600463741           
       0.880567             0.00660676474            0.000571823097           
       0.883208             0.00686164732            0.000565919087           
       0.885848             0.00747012176            0.000605791385           
       0.888488             0.00688972803            0.000553170209           
       0.891129             0.00647715295            0.000563801736           
       0.893769             0.00638120824            0.000528970894           
       0.896410             0.00653527312            0.000551808043           
       0.899050             0.00625909287            0.000520687467           
       0.901690             0.00573844264            0.000508967968           
       0.904331              0.0057677058            0.000492449269           
       0.906971             0.00804325455            0.000600490532           
       0.909611              0.0068174037            0.000530633833           
       0.912252             0.00697220428            0.000545923169           
       0.914892             0.00682535466            0.000526462229           
       0.917533              0.0075551946            0.000566393088           
       0.920173             0.00610469941            0.000488380668           
       0.922813             0.00673701187            0.000536146763           
       0.925454             0.00595610295            0.000478436802           
       0.928094             0.00670323962            0.000518452817           
       0.930734             0.00721910521            0.000525192034           
       0.933375             0.00697248111            0.000527145898           
       0.936015             0.00681834768            0.000498775913           
       0.938656             0.00666756599            0.000513918917           
       0.941296             0.00623107112            0.000478925539           
       0.943936             0.00640553813            0.000494329342           
       0.946577             0.00690065992            0.000494126397           
       0.949217              0.0076598418            0.000538983734           
       0.951858             0.00688362715            0.000483038761           
       0.954498             0.00638365119            0.000489374757           
       0.957138             0.00665813795            0.000480367716           
       0.959779             0.00686602745            0.000498479204           
       0.962419             0.00670249463            0.000474134453           
       0.965059             0.00702007897            0.000499020304           
       0.967700             0.00666448846            0.000470494297           
       0.970340             0.00685524862            0.000490588974           
       0.972981              0.0076901164            0.000501692772           
       0.975621             0.00659984725            0.000474501725           
       0.978261             0.00739617399            0.000479269582           
       0.980902             0.00691739123            0.000485567099           
       0.983542             0.00677744513            0.000466635637           
       0.986182             0.00736436003            0.000492826904           
       0.988823             0.00747125702            0.000480374479           
       0.991463             0.00757550304            0.000495267693           
       0.994104             0.00761051444            0.000479678155           
       0.996744             0.00731140662            0.000485404182           
       0.999384             0.00656892445            0.000444481931           
       1.002025             0.00705330696             0.00047340202           
       1.004665             0.00777728916            0.000476742249           
       1.007306             0.00704181822            0.000468841219           
       1.009946             0.00649346186            0.000432897476           
       1.012586              0.0069653845            0.000461249427           
       1.015227             0.00649399913            0.000431887347           
       1.017867             0.00746130141            0.000476202976           
       1.020507             0.00737734653            0.000455690457           
       1.023148             0.00683250378            0.000443837474           
       1.025788             0.00774311024            0.000467650882           
       1.028429             0.00820623527            0.000491957673           
       1.031069             0.00753638931            0.000454220586           
       1.033709             0.00772912653            0.000468825276           
       1.036350             0.00701094742             0.00043480461           
       1.038990             0.00753791633            0.000461979825           
       1.041630             0.00753925617            0.000453132281           
       1.044271             0.00721872194            0.000443444908           
       1.046911             0.00766250282            0.000448383707           
       1.049552             0.00711096376            0.000447511565           
       1.052192             0.00812443618             0.00045682969           
       1.054832             0.00753611933            0.000448534931           
       1.057473             0.00759072018            0.000444458027           
       1.060113             0.00719936711            0.000437536195           
       1.062754             0.00823029046            0.000462641211           
       1.065394             0.00829220125            0.000459492144           
       1.068034             0.00738223171            0.000431869338           
       1.070675             0.00771617422            0.000449295302           
       1.073315             0.00786653978             0.00043978525           
       1.075955             0.00826007764            0.000458209579           
       1.078596             0.00748427641            0.000435299057           
       1.081236             0.00747054293            0.000428449021           
       1.083877             0.00791949587            0.000454915861           
       1.086517             0.00721174465            0.000424292473           
       1.089157             0.00848264775            0.000463535912           
       1.091798             0.00734884132            0.000422305471           
       1.094438             0.00722518559             0.00042539244           
       1.097078             0.00787389888            0.000432667218           
       1.099719             0.00849548136             0.00046093889           
       1.102359              0.0077238492            0.000416353913           
       1.105000             0.00821722807            0.000446359023           
       1.107640             0.00816619964            0.000430465969           
       1.110280             0.00848952099            0.000447693305           
       1.112921             0.00823398075            0.000432926034           
       1.115561             0.00750936491            0.000418684791           
       1.118202             0.00836583114            0.000429018287           
       1.120842             0.00817019618             0.00043733071           
       1.123482             0.00762844903            0.000410728679           
       1.126123             0.00756388086            0.000411539183           
       1.128763              0.0085102268            0.000434360158           
       1.131403              0.0085221201            0.000433987869           
       1.134044             0.00848096138            0.000432187156           
       1.136684             0.00848833738            0.000435624424           
       1.139325             0.00845440923            0.000422503582           
       1.141965             0.00757719001            0.000405215385           
       1.144605             0.00857077736            0.000433496368           
       1.147246              0.0084709061            0.000422801364           
       1.149886             0.00843093028            0.000424802354           
       1.152527              0.0083980257            0.000424397406           
       1.155167             0.00854144418            0.000421988148           
       1.157807             0.00774111857            0.000402008791           
       1.160448             0.00868806553            0.000431714963           
       1.163088             0.00771984851            0.000391851283           
       1.165728             0.00862157078            0.000431173236           
       1.168369             0.00820624411            0.000405642278           
       1.171009             0.00885256542            0.000424806742           
       1.173650             0.00852737913            0.000413924864           
       1.176290             0.00810525362            0.000408284833           
       1.178930             0.00857859458            0.000408229719           
       1.181571             0.00908089764            0.000433729483           
       1.184211             0.00848207142            0.000406524748           
       1.186851             0.00862502218            0.000413715908           
       1.189492             0.00923183009            0.000430398728           
       1.192132             0.00910763896            0.000421162674           
       1.194773             0.00882941186             0.00041217799           
       1.197413             0.00867177422            0.000411814118           
       1.200053             0.00874952496            0.000411053534           
       1.202694             0.00877076507            0.000408450821           
       1.205334             0.00881184525            0.000413881682           
       1.207975             0.00932685216            0.000417461508           
       1.210615             0.00888333815            0.000416030235           
       1.213255             0.00933547747            0.000415203466           
       1.215896             0.00890367252            0.000413173376           
       1.218536             0.00900356713            0.000403517752           
       1.221176             0.00911635046            0.000415728844           
       1.223817             0.00976186154            0.000421231374           
       1.226457             0.00874722979            0.000403804521           
       1.229098             0.00940547698            0.000412370149           
       1.231738             0.00972368947            0.000425192139           
       1.234378              0.0096215558            0.000414735092           
       1.237019              0.0101105417            0.000428572476           
       1.239659             0.00916066051            0.000407723194           
       1.242299             0.00940376049            0.000410985833           
       1.244940             0.00896865763            0.000397032821           
       1.247580             0.00911975664            0.000402131132           
       1.250221             0.00958999726            0.000419099595           
       1.252861             0.00915080922            0.000394138043           
       1.255501             0.00915993755            0.000405468276           
       1.258142             0.00900894389            0.000394162757           
       1.260782             0.00956171118            0.000410662083           
       1.263423             0.00989732786            0.000409529551           
       1.266063             0.00993532006            0.000417962528           
       1.268703              0.0101280837            0.000411365438           
       1.271344             0.00941066651            0.000405164844           
       1.273984              0.0090766649            0.000391698198           
       1.276624              0.0092219727            0.000392412105           
       1.279265             0.00919441004            0.000392680725           
       1.281905              0.0102507378            0.000417180407           
       1.284546             0.00892200743            0.000384952471           
       1.287186             0.00943807537            0.000396309574           
       1.289826             0.00967807167            0.000403397826           
       1.292467              0.0106423339            0.000415466718           
       1.295107             0.00923442955            0.000393832193           
       1.297747             0.00909890874            0.000380677698           
       1.300388             0.00977962883             0.00040479536           
       1.303028             0.00988997098            0.000396721053           
       1.305669               0.010121525            0.000406523684           
       1.308309              0.0102071072            0.000402100449           
       1.310949               0.010871744            0.000420157773           
       1.313590                0.01049193            0.000406365548           
       1.316230              0.0101517776            0.000406919062           
       1.318871              0.0102750195            0.000400549782           
       1.321511             0.00999218742            0.000396977972           
       1.324151               0.010420336            0.000406995581           
       1.326792              0.0103093007            0.000401542097           
       1.329432              0.0105623154            0.000408559737           
       1.332072              0.0104230188            0.000398897283           
       1.334713              0.0104694029            0.000404741949           
       1.337353             0.00923872125            0.000374361187           
       1.339994              0.0102772272            0.000400465512           
       1.342634              0.0100810005            0.000387694999           
       1.345274              0.0116327042            0.000421909774           
       1.347915              0.0111218373            0.000413638141           
       1.350555              0.0105506851            0.000401303198           
       1.353195              0.0107329238            0.000397011043           
       1.355836              0.0111047555             0.00041144893           
       1.358476              0.0102276389            0.000393754896           
       1.361117             0.00951024694            0.000370169396           
       1.363757              0.0100760134            0.000393648372           
       1.366397              0.0100508166            0.000380912668           
       1.369038              0.0101025186            0.000389940317           
       1.371678              0.0101579357             0.00038311306           
       1.374319              0.0101671221            0.000386326141           
       1.376959             0.00957043424              0.0003696583           
       1.379599             0.00968632684            0.000379138608           
       1.382240              0.0100096541            0.000378094045           
       1.384880               0.010268702            0.000387657204           
       1.387520               0.010906737            0.000394847953           
       1.390161              0.0101056743             0.00037903832           
       1.392801              0.0103728637            0.000386305239           
       1.395442              0.0105543884             0.00038563321           
       1.398082              0.0106020648            0.000387825876           
       1.400722              0.0110002664            0.000393257257           
       1.403363              0.0104188539            0.000386275085           
       1.406003                0.01030978            0.000374812563           
       1.408644              0.0104454475            0.000385190917           
       1.411284             0.00998044414            0.000374454575           
       1.413924              0.0102739762            0.000375235342           
       1.416565              0.0106890305            0.000382289865           
       1.419205              0.0105448775            0.000383443588           
       1.421845                  0.010471            0.000377294382           
       1.424486              0.0107866907             0.00038463026           
       1.427126             0.00983097242            0.000366964011           
       1.429767              0.0101386168            0.000366918892           
       1.432407              0.0110305621            0.000392359798           
       1.435047              0.0106673909            0.000374251767           
       1.437688             0.00997234221            0.000369867183           
       1.440328             0.00988892534            0.000361179482           
       1.442968              0.0103918276            0.000375374853           
       1.445609              0.0104339332            0.000369947865           
       1.448249              0.0104287176            0.000372246827           
       1.450890                0.01062874            0.000373118933           
       1.453530             0.00995275356            0.000363733279           
       1.456170              0.0100903349            0.000365414138           
       1.458811              0.0105411587            0.000370516676           
       1.461451              0.0101248611            0.000365795952           
       1.464092             0.00995351068            0.000359526006           
       1.466732              0.0105815183            0.000368420839           
       1.469372              0.0101866202            0.000360369658           
       1.472013             0.00995198638            0.000362567843           
       1.474653              0.0101810877            0.000357662479           
       1.477293             0.00962154783            0.000353547768           
       1.479934             0.00996786343            0.000356087876           
       1.482574              0.0107027254            0.000368069804           
       1.485215               0.010168531            0.000359690506           
       1.487855                0.01055984            0.000366470321           
       1.490495              0.0103280507            0.000361645912           
       1.493136             0.00989612108            0.000349360507           
       1.495776              0.0106570464            0.000368863982           
       1.498416              0.0099544535            0.000349571801           
       1.501057              0.0105504162            0.000362979422           
       1.503697              0.0107531124            0.000362926337           
       1.506338              0.0102844145            0.000357538926           
       1.508978              0.0101224453            0.000352617971           
       1.511618              0.0102327514            0.000354354863           
       1.514259              0.0103932291            0.000357767666           
       1.516899             0.00999219855             0.00035096076           
       1.519540              0.0101000636            0.000350891868           
       1.522180             0.00968225026            0.000339267018           
       1.524820             0.00980579768            0.000348320656           
       1.527461             0.00980097352            0.000340531349           
       1.530101             0.00991421725            0.000346034146           
       1.532741             0.00993047209            0.000344676895           
       1.535382              0.0105123371            0.000355412116           
       1.538022             0.00984657292            0.000340930296           
       1.540663             0.00960277826            0.000339865232           
       1.543303              0.0100528821             0.00034341178           
       1.545943              0.0109644232            0.000360653315           
       1.548584             0.00993568788            0.000345145729           
       1.551224             0.00939663445              0.0003270472           
       1.553864              0.0103292816            0.000351851107           
       1.556505              0.0102489797            0.000345089312           
       1.559145              0.0103187072            0.000347061693           
       1.561786              0.0100724792            0.000341342439           
       1.564426             0.00985488621            0.000337330379           
       1.567066             0.00958221486             0.00033003468           
       1.569707             0.00966940682            0.000336332585           
       1.572347             0.00905333781            0.000321219492           
       1.574988             0.00911628313            0.000321059067           
       1.577628             0.00974958885            0.000339499224           
       1.580268             0.00950429114            0.000323633427           
       1.582909             0.00939184346            0.000327730582           
       1.585549             0.00945956775            0.000325836319           
       1.588189             0.00921751295            0.000325232899           
       1.590830             0.00969759685            0.000327868729           
       1.593470             0.00861704769            0.000311587016           
       1.596111             0.00922149376            0.000319544839           
       1.598751             0.00995814728            0.000335457563           
       1.601391             0.00930231275            0.000322150036           
       1.604032             0.00946628961            0.000322263154           
       1.606672             0.00879685876            0.000316912022           
       1.609312             0.00884737169            0.000308363791           
       1.611953             0.00871641856            0.000310508904           
       1.614593             0.00882993933            0.000310147389           
       1.617234             0.00957438301            0.000324787619           
       1.619874             0.00879630349            0.000307648454           
       1.622514             0.00868322035            0.000308367873           
       1.625155             0.00859048378            0.000305958249           
       1.627795             0.00870058872            0.000304801247           
       1.630436              0.0086145095            0.000306338218           
       1.633076             0.00840856697            0.000301116652           
       1.635716             0.00880039968            0.000307515465           
       1.638357             0.00868615196            0.000304214812           
       1.640997             0.00892858068            0.000310842928           
       1.643637             0.00828019303              0.0002937851           
       1.646278             0.00875227453            0.000306564958           
       1.648918             0.00844463887            0.000297246832           
       1.651559             0.00845453895            0.000301160557           
       1.654199             0.00818987586            0.000292346303           
       1.656839             0.00882100314            0.000303319958           
       1.659480             0.00885504498            0.000306581238           
       1.662120             0.00848624914            0.000296107242           
       1.664761             0.00855117668             0.00030045607           
       1.667401             0.00834782166            0.000294096481           
       1.670041             0.00844049593            0.000296062867           
       1.672682             0.00812695397            0.000287778183           
       1.675322             0.00863576897            0.000301895136           
       1.677962             0.00866506431            0.000296400963           
       1.680603             0.00854645022            0.000296977767           
       1.683243              0.0080424169            0.000285956264           
       1.685884             0.00834485442            0.000292391816           
       1.688524             0.00834193306            0.000291518135           
       1.691164             0.00832443502            0.000290463731           
       1.693805             0.00781856271            0.000283776118           
       1.696445             0.00801747949            0.000283374886           
       1.699085             0.00832109284            0.000289843146           
       1.701726             0.00883496883            0.000294774017           
       1.704366             0.00832123698             0.00029303634           
       1.707007             0.00819771712            0.000284646674           
       1.709647             0.00811750611            0.000286770086           
       1.712287             0.00842333792            0.000287240326           
       1.714928              0.0082111571            0.000286451198           
       1.717568             0.00818790056             0.00028341489           
       1.720209             0.00804090787            0.000282593714           
       1.722849             0.00824996664            0.000286702734           
       1.725489             0.00799239916            0.000277693943           
       1.728130             0.00880903961            0.000297470706           
       1.730770             0.00847023776            0.000285528454           
       1.733410             0.00800886776             0.00028128808           
       1.736051             0.00783266728            0.000273858773           
       1.738691             0.00833164227            0.000285330084           
       1.741332              0.0079987629            0.000277851005           
       1.743972             0.00813502682            0.000280311624           
       1.746612             0.00827610549            0.000282796821           
       1.749253             0.00821886593            0.000283035081           
       1.751893             0.00835127157            0.000283594126           
       1.754533             0.00847262487             0.00028172671           
       1.757174             0.00820134511            0.000282362133           
       1.759814             0.00814800434            0.000277151663           
       1.762455             0.00781650178            0.000273766164           
       1.765095             0.00848524747            0.000281231312           
       1.767735             0.00809838443            0.000279414084           
       1.770376             0.00795049808            0.000272652598           
       1.773016             0.00808663791            0.000275411037           
       1.775657             0.00836872462            0.000280747463           
       1.778297             0.00792898289            0.000274608729           
       1.780937             0.00824254149            0.000278679365           
       1.783578               0.008309357            0.000278492707           
       1.786218             0.00815238945            0.000280251616           
       1.788858             0.00836182235            0.000276776794           
       1.791499             0.00751378942            0.000267202161           
       1.794139              0.0082636305            0.000275043424           
       1.796780             0.00823340961            0.000276171309           
       1.799420             0.00811335847            0.000273801455           
       1.802060             0.00830565443            0.000273619895           
       1.804701             0.00898253785            0.000288368591           
       1.807341             0.00818673634            0.000272638385           
       1.809981             0.00870566155             0.00028301354           
       1.812622             0.00890153256            0.000284620447           
       1.815262             0.00871142911             0.00028256877           
       1.817903             0.00850118401            0.000275689512           
       1.820543             0.00837076586            0.000276947938           
       1.823183             0.00851986382            0.000275098452           
       1.825824             0.00839226247            0.000277136538           
       1.828464             0.00802532884            0.000270178717           
       1.831105              0.0080720038            0.000272012277           
       1.833745             0.00784912648            0.000268063281           
       1.836385             0.00854139492            0.000278547112           
       1.839026             0.00803212232            0.000274175924           
       1.841666             0.00798130265            0.000269758371           
       1.844306             0.00773002487            0.000268829537           
       1.846947             0.00790336194            0.000268333737           
       1.849587             0.00849014704            0.000281888678           
       1.852228             0.00793114991            0.000269553071           
       1.854868             0.00815015238            0.000278260891           
       1.857508             0.00797684827            0.000270203416           
       1.860149             0.00780018375            0.000269336235           
       1.862789             0.00773456733            0.000269387762           
       1.865429             0.00770047624            0.000269603804           
       1.868070             0.00773417583            0.000269259459           
       1.870710             0.00772202896             0.00026978064           
       1.873351             0.00767433607            0.000270663216           
       1.875991              0.0080090106            0.000277997679           
       1.878631             0.00784780657            0.000272627976           
       1.881272             0.00797673036            0.000274214375           
       1.883912             0.00781594054            0.000274619943           
       1.886553             0.00786905935            0.000272246176           
       1.889193             0.00745512905            0.000268050126           
       1.891833             0.00778486531            0.000270796737           
       1.894474             0.00743134592              0.0002666707           
       1.897114             0.00789565476            0.000272743126           
       1.899754             0.00812212005             0.00027972925           
       1.902395             0.00765038936             0.00027154232           
       1.905035             0.00819129067            0.000279876617           
       1.907676             0.00783446147            0.000274030953           
       1.910316             0.00806038922            0.000279726359           
       1.912956             0.00780519972            0.000275251779           
       1.915597             0.00767153205            0.000270039764           
       1.918237             0.00761457576            0.000273119363           
       1.920878             0.00760418198            0.000268102646           
       1.923518             0.00756339194            0.000274486588           
       1.926158             0.00782590764            0.000272793538           
       1.928799             0.00760480266            0.000272485749           
       1.931439             0.00819302946            0.000280561225           
       1.934079             0.00804975381            0.000280913501           
       1.936720             0.00748452532            0.000269277301           
       1.939360             0.00833229889            0.000286857127           
       1.942001             0.00750865445            0.000271262861           
       1.944641             0.00753547781            0.000270575958           
       1.947281             0.00785553816            0.000277597117           
       1.949922             0.00710314238            0.000264298971           
       1.952562             0.00788151233            0.000280799373           
       1.955202             0.00790951844            0.000274230289           
       1.957843             0.00754466395            0.000276338798           
       1.960483             0.00783996715            0.000277201686           
       1.963124             0.00800645847             0.00027992185           
       1.965764             0.00774896251            0.000275482234           
       1.968404             0.00746587233             0.00027523876           
       1.971045             0.00753879821            0.000269646673           
       1.973685             0.00726884892             0.00026971595           
       1.976326             0.00712701189            0.000265907107           
       1.978966             0.00756696961            0.000275288093           
       1.981606              0.0076228678            0.000273380957           
       1.984247             0.00808200071            0.000283948124           
       1.986887             0.00750385122            0.000276162356           
       1.989527             0.00741114421            0.000268733366           
       1.992168             0.00729512059            0.000273054298           
       1.994808             0.00789054696             0.00028067596           
       1.997449             0.00709806744            0.000265817991           
       2.000089              0.0078050678            0.000277100824           
       2.002729             0.00742049628            0.000276379137           
       2.005370              0.0077102391            0.000276367853           
       2.008010             0.00726648919            0.000271859154           
       2.010650             0.00754932292             0.00027630674           
       2.013291             0.00710541774            0.000269585944           
       2.015931             0.00759435021            0.000276712178           
       2.018572             0.00729667873            0.000274837205           
       2.021212             0.00765687823            0.000279012409           
       2.023852             0.00740162116            0.000275763348           
       2.026493             0.00718809623            0.000270565645           
       2.029133             0.00744670701            0.000273288998           
       2.031774             0.00737829962            0.000274668914           
       2.034414             0.00733236267            0.000272178477           
       2.037054             0.00704183996             0.00027009514           
       2.039695             0.00707374899            0.000265374185           
       2.042335             0.00705974169            0.000269623876           
       2.044975             0.00761809228            0.000277844736           
       2.047616             0.00758937093            0.000278508818           
       2.050256             0.00713862025            0.000266934268           
       2.052897             0.00773459575            0.000286082788           
       2.055537             0.00780515592             0.00027954952           
       2.058177             0.00725239756            0.000271849261           
       2.060818             0.00708539127            0.000269507674           
       2.063458             0.00784849459            0.000284040426           
       2.066098             0.00707404798            0.000268466058           
       2.068739             0.00731633872            0.000275871662           
       2.071379             0.00769564546            0.000278754166           
       2.074020             0.00713053385            0.000271998604           
       2.076660             0.00735807025            0.000274431361           
       2.079300             0.00774117889            0.000281444264           
       2.081941             0.00719836886            0.000273047488           
       2.084581             0.00764427234            0.000281585827           
       2.087222             0.00750872536            0.000279268262           
       2.089862              0.0073301015            0.000272487384           
       2.092502             0.00732090668            0.000277264404           
       2.095143             0.00715052011            0.000270102645           
       2.097783             0.00691627834            0.000269683919           
       2.100423             0.00733923732            0.000272480852           
       2.103064             0.00718128536            0.000274186481           
       2.105704             0.00706486928            0.000270914579           
       2.108345             0.00691367489            0.000269230381           
       2.110985             0.00727428461            0.000272283559           
       2.113625             0.00767864381             0.00028415664           
       2.116266             0.00757156325            0.000280079903           
       2.118906             0.00737392961            0.000276199427           
       2.121546             0.00718354044            0.000272394029           
       2.124187             0.00708364007            0.000274234696           
       2.126827             0.00748523711            0.000277480201           
       2.129468             0.00716393316            0.000274292321           
       2.132108             0.00731443199            0.000276584982           
       2.134748             0.00764729492            0.000281742528           
       2.137389             0.00679397229            0.000267782824           
       2.140029             0.00708826085            0.000272856769           
       2.142670              0.0073681906            0.000278646993           
       2.145310             0.00798316006            0.000291150411           
       2.147950             0.00688941257            0.000271516834           
       2.150591             0.00703363819             0.00027182815           
       2.153231             0.00767272036            0.000288106352           
       2.155871              0.0074231766            0.000279289838           
       2.158512             0.00707272214            0.000277529739           
       2.161152             0.00750247479            0.000278696878           
       2.163793             0.00698743162             0.00027333693           
       2.166433             0.00685677253            0.000266073887           
       2.169073             0.00725745387            0.000280128782           
       2.171714             0.00727547969            0.000274766348           
       2.174354             0.00670825504            0.000267869806           
       2.176995             0.00738207745            0.000278670318           
       2.179635             0.00705028574            0.000277489828           
       2.182275             0.00705470716            0.000272066693           
       2.184916             0.00730955112            0.000282790191           
       2.187556             0.00689845283            0.000270300091           
       2.190196             0.00690393956              0.0002746578           
       2.192837             0.00757631283            0.000284570841           
       2.195477             0.00689140755             0.00027402149           
       2.198118              0.0074489283            0.000279630649           
       2.200758             0.00699890259            0.000275261391           
       2.203398             0.00764034733            0.000282829292           
       2.206039             0.00678903758            0.000270682296           
       2.208679             0.00705751513            0.000273280989           
       2.211319             0.00733877997            0.000279985062           
       2.213960             0.00727913021            0.000275880082           
       2.216600             0.00715810088            0.000280022857           
       2.219241             0.00740622956            0.000280693839           
       2.221881             0.00710769338            0.000276411759           
       2.224521             0.00715956439            0.000276456312           
       2.227162             0.00658505121            0.000269296796           
       2.229802             0.00747436794             0.00028224832           
       2.232443              0.0071169309            0.000276499615           
       2.235083             0.00720445391            0.000276526456           
       2.237723             0.00758525788            0.000285914935           
       2.240364             0.00677477304            0.000268834133           
       2.243004             0.00710347823            0.000276110311           
       2.245644             0.00675176025            0.000268566324           
       2.248285             0.00721940069             0.00027951413           
       2.250925             0.00708631704            0.000275630883           
       2.253566              0.0072525468            0.000279526829           
       2.256206             0.00682459398            0.000270342156           
       2.258846             0.00697085903            0.000273226228           
       2.261487             0.00718966978            0.000277961298           
       2.264127             0.00692648404            0.000275407743           
       2.266767             0.00679700954            0.000268411942           
       2.269408             0.00723837815            0.000280279395           
       2.272048             0.00699032806            0.000273740821           
       2.274689             0.00700324923            0.000275071119           
       2.277329             0.00726557171            0.000279803168           
       2.279969             0.00709171208            0.000277273019           
       2.282610             0.00667097968            0.000266299792           
       2.285250             0.00717088802            0.000280439845           
       2.287891             0.00678246025            0.000269986538           
       2.290531             0.00651768093            0.000265969239           
       2.293171             0.00694436695            0.000274523661           
       2.295812              0.0072705996            0.000279407061           
       2.298452             0.00707871147            0.000277461056           
       2.301092             0.00724597731             0.00028250323           
       2.303733             0.00677207627            0.000267706949           
       2.306373             0.00696466309            0.000278127171           
       2.309014             0.00656227459            0.000264770714           
       2.311654              0.0070914268            0.000277850885           
       2.314294             0.00687525674            0.000272985935           
       2.316935             0.00699521578            0.000276445449           
       2.319575             0.00716234289            0.000278680848           
       2.322215             0.00665012724            0.000272357581           
       2.324856             0.00716765887            0.000275656167           
       2.327496             0.00681190699             0.00027531424           
       2.330137             0.00692384308            0.000272448033           
       2.332777               0.007007312            0.000277083055           
       2.335417             0.00619467918            0.000259739447           
       2.338058             0.00682764631             0.00027377811           
       2.340698             0.00701711162            0.000274818029           
       2.343339              0.0077264626            0.000293877159           
       2.345979             0.00699110116            0.000273964578           
       2.348619              0.0075758562            0.000290577871           
       2.351260             0.00688256521            0.000271075597           
       2.353900             0.00675453843             0.00027423095           
       2.356540              0.0067048852            0.000269463465           
       2.359181             0.00693826562            0.000277778509           
       2.361821             0.00683007916            0.000272246293           
       2.364462             0.00653152856            0.000270679167           
       2.367102             0.00687192681            0.000269614188           
       2.369742             0.00687709453            0.000279381301           
       2.372383             0.00760391376             0.00028521027           
       2.375023             0.00665952096             0.00027386615           
       2.377663             0.00692466468            0.000273330287           
       2.380304              0.0072565832            0.000283685726           
       2.382944             0.00728950378            0.000281547465           
       2.385585             0.00675855382            0.000273662897           
       2.388225             0.00699075198            0.000277066672           
       2.390865             0.00693209854            0.000276608416           
       2.393506             0.00702167054            0.000277106807           
       2.396146             0.00702643624            0.000278119612           
       2.398787             0.00674849024            0.000272801706           
       2.401427              0.0070187874            0.000276522039           
       2.404067             0.00693977002            0.000279157833           
       2.406708             0.00714137967            0.000279624416           
       2.409348              0.0073395865            0.000285610833           
       2.411988             0.00683746634            0.000274787662           
       2.414629             0.00676182627            0.000274157605           
       2.417269             0.00717880722            0.000279919019           
       2.419910             0.00690420655            0.000277974972           
       2.422550             0.00679089261            0.000271499598           
       2.425190             0.00729112678            0.000290178988           
       2.427831             0.00632054667             0.00026001454           
       2.430471             0.00754013182            0.000292295964           
       2.433112             0.00717069443            0.000278319363           
       2.435752             0.00684724762            0.000278855124           
       2.438392             0.00711813019            0.000279538645           
       2.441033             0.00710968162            0.000280652895           
       2.443673               0.006540873            0.000269910943           
       2.446313             0.00698254361            0.000277389091           
       2.448954             0.00744894675            0.000289017508           
       2.451594             0.00751258322            0.000288507877           
       2.454235             0.00781930587            0.000293422683           
       2.456875             0.00807283185            0.000299651758           
       2.459515             0.00759709613              0.0002911366           
       2.462156             0.00748958705            0.000287579155           
       2.464796             0.00833848111             0.00030879184           
       2.467436             0.00811002664            0.000298146827           
       2.470077              0.0078820292            0.000297979161           
       2.472717             0.00757464161            0.000288455942           
       2.475358             0.00777064909            0.000295474339           
       2.477998             0.00735925193            0.000286012321           
       2.480638              0.0080016644            0.000298959273           
       2.483279             0.00758755429            0.000292371135           
       2.485919             0.00763057469            0.000291145854           
       2.488560             0.00743084713            0.000288502012           
       2.491200             0.00754956498            0.000290398792           
       2.493840             0.00715493841             0.00028116793           
       2.496481             0.00717605719            0.000285264787           
       2.499121             0.00743349548            0.000286470886           
       2.501761             0.00755901481            0.000293784716           
       2.504402             0.00716110609            0.000280467812           
       2.507042             0.00786986953            0.000298907486           
       2.509683             0.00727039034            0.000284681145           
       2.512323             0.00749356616            0.000290149159           
       2.514963             0.00845487092            0.000308811453           
       2.517604              0.0123442942            0.000371680242           
       2.520244              0.0405562298            0.000673845102           
       2.522884              0.0179009959            0.000446702962           
       2.525525              0.0115470922            0.000361717321           
       2.528165              0.0168168487            0.000434527528           
       2.530806              0.0283769146            0.000562333917           
       2.533446              0.0171676491            0.000441275203           
       2.536086              0.0226365937            0.000502457516           
       2.538727              0.0165952291             0.00043297294           
       2.541367               0.017762014            0.000446654394           
       2.544008              0.0112135155            0.000355192792           
       2.546648              0.0083355611            0.000306586864           
       2.549288             0.00781662401             0.00029693285           
       2.551929             0.00761336669              0.0002940148           
       2.554569             0.00757417182            0.000290577156           
       2.557209             0.00712599215            0.000285033589           
       2.559850             0.00720924296               0.000283397           
       2.562490             0.00745517668            0.000290288687           
       2.565131             0.00683714048            0.000278479581           
       2.567771             0.00761132847              0.0002922661           
       2.570411             0.00754198237            0.000294471976           
       2.573052             0.00713152553            0.000283004367           
       2.575692              0.0073029375            0.000287144995           
       2.578332             0.00768882004             0.00029376326           
       2.580973             0.00684657257             0.00027945463           
       2.583613             0.00708623111            0.000281712788           
       2.586254             0.00657851679            0.000273834504           
       2.588894             0.00740753198            0.000289026773           
       2.591534             0.00755739502            0.000292472789           
       2.594175             0.00685284972            0.000280122953           
       2.596815             0.00692155146            0.000278906133           
       2.599456             0.00715582101            0.000285907072           
       2.602096             0.00682318145            0.000278138006           
       2.604736             0.00681533181            0.000278707012           
       2.607377             0.00690155101             0.00027939187           
       2.610017             0.00726763885            0.000286606029           
       2.612657             0.00733654654            0.000289995687           
       2.615298             0.00726118508            0.000285680362           
       2.617938             0.00689847898             0.00028088985           
       2.620579             0.00708142733            0.000282265378           
       2.623219             0.00714430923            0.000288050921           
       2.625859             0.00639058517            0.000267841315           
       2.628500             0.00687998582            0.000282349535           
       2.631140              0.0072745507            0.000285213107           
       2.633780             0.00734598782            0.000290291342           
       2.636421              0.0071577002            0.000283939427           
       2.639061             0.00746294795            0.000293397194           
       2.641702             0.00673843004            0.000275811589           
       2.644342             0.00699882981            0.000283396112           
       2.646982             0.00694519632             0.00028206849           
       2.649623             0.00731875905            0.000291290819           
       2.652263             0.00746899619             0.00029192384           
       2.654904             0.00671344306            0.000278267721           
       2.657544             0.00737668248            0.000289637234           
       2.660184             0.00715111773            0.000285539351           
       2.662825             0.00737511542            0.000290671959           
       2.665465             0.00751816586            0.000294020197           
       2.668105             0.00702729113            0.000284372183           
       2.670746             0.00738639392            0.000289080639           
       2.673386             0.00726778047            0.000290225449           
       2.676027             0.00718846688            0.000286183766           
       2.678667             0.00722698441            0.000288441228           
       2.681307             0.00728919323            0.000287402106           
       2.683948             0.00757553375            0.000295902514           
       2.686588             0.00795188275            0.000300381563           
       2.689229             0.00736377145            0.000291654562           
       2.691869             0.00743892867             0.00029021317           
       2.694509             0.00707280522             0.00028686208           
       2.697150             0.00707568044            0.000282341024           
       2.699790             0.00697420478             0.00028613177           
       2.702430             0.00699142985            0.000280992151           
       2.705071             0.00704629381            0.000285953212           
       2.707711             0.00671999692            0.000276484674           
       2.710352             0.00701112737            0.000284017685           
       2.712992             0.00680035927            0.000280625482           
       2.715632             0.00658939357            0.000274666983           
       2.718273             0.00715733346            0.000287209461           
       2.720913             0.00709626788            0.000286459081           
       2.723553             0.00647604975            0.000272703642           
       2.726194             0.00653607241            0.000275285774           
       2.728834              0.0066375233            0.000274947981           
       2.731475             0.00704287077            0.000285694242           
       2.734115             0.00655891394            0.000274060853           
       2.736755             0.00706485689            0.000286315038           
       2.739396             0.00749311433            0.000293306048           
       2.742036             0.00721407183             0.00028975724           
       2.744677             0.00692578335            0.000284323668           
       2.747317              0.0071969326            0.000288427887           
       2.749957             0.00736002606            0.000293793676           
       2.752598             0.00713572837            0.000290153482           
       2.755238             0.00673767006            0.000281817349           
       2.757878             0.00690619962            0.000284507766           
       2.760519             0.00707241771            0.000284871246           
       2.763159             0.00708663759            0.000289794099           
       2.765800             0.00767586347            0.000296492135           
       2.768440             0.00693721685            0.000285578821           
       2.771080             0.00706995338            0.000285868509           
       2.773721              0.0066765503            0.000281209228           
       2.776361             0.00715800052            0.000288044556           
       2.779001             0.00687028093            0.000285162464           
       2.781642             0.00619553901            0.000268949723           
       2.784282             0.00650798171             0.00027574408           
       2.786923             0.00672828117             0.00027823997           
       2.789563             0.00701503976            0.000284678104           
       2.792203             0.00665984072            0.000279142936           
       2.794844             0.00670789159            0.000278873412           
       2.797484             0.00608096353            0.000265895987           
       2.800125             0.00684697584            0.000281782093           
       2.802765             0.00630025834             0.00027530902           
       2.805405             0.00638649433            0.000273185594           
       2.808046             0.00638816253            0.000277410717           
       2.810686             0.00698943405            0.000287080576           
       2.813326             0.00695709391            0.000289959232           
       2.815967             0.00651992453            0.000278932228           
       2.818607             0.00625357735            0.000275906211           
       2.821248             0.00671477208             0.00028233429           
       2.823888             0.00667831378            0.000286101904           
       2.826528             0.00681998234            0.000287395597           
       2.829169              0.0064163668            0.000277530983           
       2.831809             0.00686467529            0.000287314289           
       2.834449             0.00638531088            0.000272264343           
       2.837090             0.00629792845            0.000272022202           
       2.839730              0.0064363362            0.000273042161           
       2.842371             0.00676985645            0.000281978186           
       2.845011             0.00629914848            0.000271391988           
       2.847651             0.00629360541            0.000271770737           
       2.850292              0.0067307433            0.000279453668           
       2.852932             0.00710899635            0.000287713697           
       2.855573             0.00673098236            0.000282418533           
       2.858213             0.00715904226            0.000287992372           
       2.860853             0.00638269401            0.000273964369           
       2.863494             0.00712690259            0.000290193014           
       2.866134             0.00636297588            0.000278045618           
       2.868774             0.00666527659            0.000280217727           
       2.871415             0.00703002421            0.000290631178           
       2.874055             0.00742443019            0.000300152041           
       2.876696             0.00763030383            0.000301545108           
       2.879336             0.00604764021            0.000270238788           
       2.881976             0.00624014333            0.000274280169           
       2.884617             0.00649165945             0.00027819908           
       2.887257             0.00678689163            0.000282471446           
       2.889897             0.00709838895            0.000292192187           
       2.892538             0.00637763136            0.000275040566           
       2.895178             0.00654241551            0.000275730339           
       2.897819             0.00676111402            0.000283183861           
       2.900459             0.00670110549            0.000279590148           
       2.903099             0.00666287751            0.000280247195           
       2.905740             0.00667747164            0.000277422293           
       2.908380             0.00703846428            0.000288619407           
       2.911021             0.00661579892            0.000280351274           
       2.913661              0.0065024978            0.000274881601           
       2.916301             0.00654278985            0.000279654464           
       2.918942             0.00680763452            0.000280954867           
       2.921582             0.00686596814            0.000285116327           
       2.924222             0.00663018347            0.000278552882           
       2.926863             0.00673032464            0.000281394065           
       2.929503             0.00640150234            0.000277480454           
       2.932144             0.00685521603             0.00028243603           
       2.934784             0.00732193947            0.000293132746           
       2.937424             0.00699754641            0.000287095704           
       2.940065             0.00699894662            0.000287358111           
       2.942705             0.00685023849            0.000285152765           
       2.945346             0.00655827347             0.00027736187           
       2.947986             0.00672361302            0.000281818455           
       2.950626             0.00709711591            0.000290430563           
       2.953267             0.00778768882            0.000301000558           
       2.955907              0.0101802592            0.000348695683           
       2.958547              0.0100246714            0.000342472789           
       2.961188             0.00820237091            0.000312489591           
       2.963828             0.00791668541            0.000305259632           
       2.966469             0.00744214869            0.000296043143           
       2.969109              0.0069743336            0.000288053163           
       2.971749             0.00734642879            0.000294767872           
       2.974390             0.00707963748            0.000290160037           
       2.977030             0.00894963614            0.000325617295           
       2.979670              0.0103248987            0.000347487066           
       2.982311             0.00821909141            0.000312270279           
       2.984951             0.00779080237            0.000304811477           
       2.987592             0.00712393224            0.000290490401           
       2.990232             0.00720676441            0.000292920404           
       2.992872             0.00758298922            0.000298118222           
       2.995513             0.00816568388            0.000311790357           
       2.998153             0.00855791126            0.000321250026           
       3.000794             0.00897552649            0.000324207589           
       3.003434              0.0194494509            0.000482311587           
       3.006074              0.0667355165            0.000896292862           
       3.008715              0.0533078693            0.000807163626           
       3.011355              0.0318003826            0.000629905337           
       3.013995              0.0232557485            0.000536037624           
       3.016636              0.0328369197            0.000638153041           
       3.019276               0.177183449             0.00151778994           
       3.021917               0.197131941             0.00157380096           
       3.024557               0.135697957             0.00131616812           
       3.027197               0.151516716             0.00141411142           
       3.029838               0.163522422             0.00146204342           
       3.032478              0.0584921532            0.000879645745           
       3.035118              0.0341018688             0.00067511513           
       3.037759              0.0899503078             0.00109838425           
       3.040399               0.231574021              0.0017825395           
       3.043040               0.112974175             0.00125713408           
       3.045680              0.0543805012            0.000858762327           
       3.048320               0.166269056             0.00152570578           
       3.050961               0.241229174              0.0018561504           
       3.053601              0.0702813658            0.000997455398           
       3.056242              0.0553826338            0.000891129713           
       3.058882               0.202571975             0.00172964388           
       3.061522               0.116177872              0.0013007962           
       3.064163              0.0214058045            0.000559374753           
       3.066803              0.0272812583            0.000643705325           
       3.069443              0.0381379318            0.000756016574           
       3.072084              0.0646420307            0.000993022571           
       3.074724              0.0226359252            0.000591095556           
       3.077365              0.0101078683            0.000394709255           
       3.080005              0.0102901326            0.000402668368           
       3.082645             0.00923664165            0.000383442058           
       3.085286             0.00826256424            0.000362726534           
       3.087926             0.00774779599            0.000353480479           
       3.090566             0.00763262382            0.000354457284           
       3.093207             0.00784369378            0.000355442683           
       3.095847              0.0071489709            0.000346449744           
       3.098488             0.00725029805            0.000348263711           
       3.101128             0.00749907033            0.000356117531           
       3.103768             0.00913324925            0.000395222938           
       3.106409              0.0107915213            0.000432483962           
       3.109049                0.01076661             0.00043534269           
       3.111690              0.0114602282            0.000447378418           
       3.114330             0.00974173035            0.000416143961           
       3.116970              0.0100246792            0.000428016791           
       3.119611              0.0133131418            0.000490039093           
       3.122251              0.0162081561            0.000545129238           
       3.124891              0.0123238921            0.000477650155           
       3.127532             0.00860128341             0.00040622933           
       3.130172             0.00898274569             0.00040659954           
       3.132813             0.00687984847            0.000363079697           
       3.135453             0.00963804249             0.00043880625           
       3.138093             0.00799469321            0.000390166932           
       3.140734             0.00698882225            0.000371586497           
       3.143374             0.00639327928             0.00036083484           
       3.146014             0.00610864525            0.000350150728           
       3.148655             0.00597157186            0.000348925572           
       3.151295             0.00627749024            0.000360583209           
       3.153936             0.00568800668            0.000348302804           
       3.156576             0.00597582267            0.000352907978           
       3.159216             0.00705958367            0.000386713854           
       3.161857             0.00595264481            0.000359459838           
       3.164497             0.00696666348            0.000397072526           
       3.167138             0.00617737343            0.000364932802           
       3.169778             0.00629260937            0.000374971627           
       3.172418             0.00613522102            0.000372416134           
       3.175059             0.00565283852            0.000362154046           
       3.177699             0.00613033516            0.000375649997           
       3.180339             0.00578141879            0.000368063874           
       3.182980             0.00574505382            0.000371857639           
       3.185620             0.00574543119            0.000375933526           
       3.188261             0.00581986401            0.000373403779           
       3.190901             0.00645596331            0.000399340915           
       3.193541             0.00630310201            0.000395885123           
       3.196182             0.00590095483            0.000391017849           
       3.198822             0.00667057485            0.000410695717           
       3.201463             0.00574993588            0.000386233736           
       3.204103             0.00575381487            0.000391508899           
       3.206743             0.00583831178            0.000397707439           
       3.209384             0.00590264941            0.000398110149           
       3.212024               0.005957007            0.000401359807           
       3.214664             0.00619610294            0.000417137306           
       3.217305             0.00563512339            0.000407087088           
       3.219945             0.00522624709            0.000388761928           
       3.222586             0.00590014137            0.000415404149           
       3.225226             0.00651017642            0.000446181295           
       3.227866             0.00567177128            0.000419682829           
       3.230507             0.00669489386            0.000461408264           
       3.233147             0.00596053155            0.000428927943           
       3.235787             0.00617440966            0.000436674267           
       3.238428             0.00609578161            0.000441547863           
       3.241068             0.00553617652            0.000429325251           
       3.243709             0.00540355084            0.000421797355           
       3.246349             0.00613077143            0.000446771101           
       3.248989             0.00589265874             0.00044802069           
       3.251630             0.00637883578            0.000468198795           
       3.254270             0.00555514313            0.000450355836           
       3.256911              0.0068371366            0.000487107717           
       3.259551             0.00478906521            0.000416682724           
       3.262191             0.00545995604            0.000449005715           
       3.264832             0.00515302223            0.000440295563           
       3.267472             0.00508472902            0.000443570732           
       3.270112             0.00568981826            0.000470557548           
       3.272753             0.00665421569            0.000515129663           
       3.275393             0.00591904952            0.000488341696           
       3.278034             0.00508746738            0.000461962539           
       3.280674             0.00574661994            0.000492403114           
       3.283314             0.00567564159            0.000492056667           
       3.285955             0.00488192217            0.000464927024           
       3.288595             0.00579836282            0.000512342347           
       3.291235             0.00508635237            0.000482674652           
       3.293876             0.00541144766            0.000500808781           
       3.296516             0.00705331674            0.000583419335           
       3.299157             0.00630253209            0.000559830627           
       3.301797             0.00593330295             0.00054341535           
       3.304437             0.00523645086             0.00052007679           
       3.307078             0.00495892282             0.00051102395           
       3.309718             0.00532973531            0.000535074338           
       3.312359             0.00559520326            0.000559315637           
       3.314999             0.00663476239            0.000615451659           
       3.317639             0.00492520842            0.000535975629           
       3.320280             0.00536592082            0.000567611305           
       3.322920             0.00551835628            0.000584229502           
       3.325560             0.00566837457            0.000603551102           
       3.328201              0.0059070815            0.000618732965           
       3.330841             0.00622309801            0.000650513164           
       3.333482             0.00679769262            0.000688514499           
       3.336122             0.00605601836            0.000663993777           
       3.338762             0.00638404356            0.000687974743           
       3.341403             0.00555537047            0.000647726163           
       3.344043              0.0044212321            0.000599893166           
       3.346683             0.00524906556            0.000660276592           
       3.349324             0.00559628726            0.000692319069           
       3.351964              0.0042487117            0.000622625767           
       3.354605             0.00582815473            0.000737486788           
       3.357245             0.00575122432            0.000758354033           
       3.359885              0.0053697464             0.00073303516           
       3.362526             0.00544353736            0.000775792242           
       3.365166             0.00502207752            0.000735955013           
       3.367807             0.00414110391            0.000715385348           
       3.370447             0.00660463557            0.000903805027           
       3.373087             0.00503926188            0.000833201841           
       3.375728             0.00551487635            0.000865046041           
       3.378368             0.00577028482            0.000956147317           
       3.381008             0.00555350321            0.000929835847           
       3.383649             0.00486894671            0.000942234202           
       3.386289             0.00594443109             0.00104153909           
       3.388930             0.00453509553            0.000999110814           
       3.391570             0.00652418684             0.00119885235           
       3.394210             0.00426264976             0.00103830667           
       3.396851              0.0037710152             0.00105788398           
       3.399491             0.00417345565             0.00113309996           
       3.402131             0.00549442921             0.00153896739           
       3.404772             0.00500120869             0.00146889822           
       3.407412             0.00577724981             0.00195903633           
       3.410053             0.00548547786             0.00198772336           
       3.412693             0.00813856455             0.00342546585           
       3.415333             0.00789532897             0.00413383439           
