################################################################################
# EDF_DataBlockID                     0.Image.Psd
# EDF_BinarySize                      2105344
# EDF_HeaderSize                      2560
# ByteOrder                           LowByteFirst
# DataType                            FloatValue
# Dim_1                               512
# Dim_2                               1028
# Image                               0
# HeaderID                            EH:000000:000000:000000
# Size                                2105344
# Center_1                            304.9000
# Center_2                            588.7000
# Comment                             Xenocs_Cell_Window - front_window_open_only
# DDummy                              0.6
# Date                                2025-10-18T08:39:21
# Delta                               21.910000
# Dummy                               -1.5
# ExposureTime                        360
# Gamma                               15.360000
# Intensity1                          9.22422e-10
# PSize_1                             7.5e-05
# PSize_2                             7.5e-05
# Pressure                            0.0337477
# SampleDistance                      0.115750
# SampleEnvKind                       large
# SampleEnvPN                         ElectroChemical cell
# SampleEnvSN                         1141
# Thickness                           0
# Wavelength                          1.541891e-10
# Wavelength                          1.54189e-10
# aux                                 0
# aux_dial                            0.002375
# beamx                               588.429
# beamx_dial                          588.429
# beamz                               657.855
# beamz_dial                          657.855
# det0x                               -0.000396875
# det0x_dial                          6.36905
# det0xvd                             -0.0005
# det0xvd_dial                        -0.0005
# det0y                               450.002
# det0y_dial                          481.635
# det0z                               0
# det0z_dial                          1.2295
# det0zvd                             0
# det0zvd_dial                        0
# mag                                 1.818
# mag_dial                            1.818
# om                                  0.2499
# om_dial                             -0.610199
# phi                                 -0.0120535
# phi_dial                            0
# ry                                  0.599993
# ry_dial                             0.599993
# s1bot                               0.8
# s1bot_dial                          -1.66094
# s1hl                                0.8
# s1hl_dial                           -0.608437
# s1hr                                0.8
# s1hr_dial                           0.970938
# s1top                               0.8
# s1top_dial                          -0.461562
# s2bot                               0.45
# s2bot_dial                          1.36109
# s2hl                                0.45
# s2hl_dial                           -0.83375
# s2hr                                0.45
# s2hr_dial                           -0.118594
# s2top                               0.45
# s2top_dial                          1.44734
# w2theta                             32
# w2theta_dial                        32
# waxsch                              19.2605
# waxsch_dial                         -32.7238
# waxsh                               137.085
# waxsh_dial                          -43.5335
# waxsth                              26.0607
# waxsth_dial                         -19.4068
# waxsz                               67.0407
# waxsz_dial                          -23.7962
# wind                                65.9854
# wind_dial                           66.0041
# wpsi                                124
# wpsi_dial                           124
# wstod                               115
# wstod_dial                          115
# x                                   0
# x_dial                              1.00969
# z                                   0
# z_dial                              13.3172
# CountCutoff                         6807993
# DetectorModel                       Dectris EIGER2 Si 500K, S/N E-01-0554
# ThresholdSetting                    4023.88989258
# Saturation                          0
# FlatField                           Corrected
# BackgroundReductionExtra            0.02
# BackgroundCorrectionConstant        0.0026712
# Detector                            0
# Monitor                             0
# Pil_Roi0                            0
# SumForIntensity1                    3.32072e+08
# TransmittedFlux                     922422
# det                                 0
# mon                                 0
# pilai0                              3.32072e+08
# pilai1                              710713
# pilct0                              5.73217e+08
# pilct1                              710713
# pilroi0                             0
# pilroi1                             0
# sec                                 1
# title                               20251017__1_00132.edf
# usaxs0                              0
# Operation                           Azimuthal average I(q)
# Error_model                         ErrorModel.poisson
# Geometrical_correction              True
# Transmission_correction             True
# Thickness_correction                False
# Binning mode                        Uniform
# Binning factor                      1.0
# Psi                                 0.0
# Omega                               0.2499
# MaskInvalidPixels                   True
# DetectorEdge                        3
# MaskFiles                           ['20251017__1_00233_mask.edf']
################################################################################
    q(A⁻¹)                Intensity(a.u.)            Sigma_I(a.u.)            
       0.690460              0.0224738936              0.0136106614           
       0.693100              0.0106815791             0.00419513121           
       0.695741             0.00785878019             0.00303998548           
       0.698381             0.00495598954             0.00225790307           
       0.701021             0.00668986214             0.00214098466           
       0.703662             0.00677571624             0.00199445809           
       0.706302             0.00481836701             0.00162432564           
       0.708942             0.00927231444             0.00200152567           
       0.711583             0.00718916247             0.00176208434           
       0.714223             0.00707730019             0.00152351093           
       0.716864             0.00535415084             0.00135222442           
       0.719504             0.00666535348             0.00139634242           
       0.722144             0.00612029674             0.00129226705           
       0.724785             0.00497182807             0.00114563688           
       0.727425             0.00514578479               0.001081067           
       0.730065             0.00879851653             0.00145453136           
       0.732706             0.00519178502             0.00100474201           
       0.735346             0.00670194569              0.0012330736           
       0.737987             0.00738995187             0.00112072045           
       0.740627             0.00708898101             0.00120247539           
       0.743267             0.00447692899            0.000821977484           
       0.745908             0.00704163184             0.00110481517           
       0.748548             0.00460656829            0.000833435382           
       0.751189             0.00585205448            0.000930521434           
       0.753829              0.0049224874            0.000861121856           
       0.756469             0.00725044653            0.000982957439           
       0.759110             0.00677463326            0.000982785691           
       0.761750             0.00664144394            0.000890564469           
       0.764390             0.00614003191            0.000919177089           
       0.767031              0.0047947262            0.000735002195           
       0.769671             0.00500439012            0.000796354551           
       0.772312             0.00628466182            0.000813238754           
       0.774952             0.00717177559            0.000931336811           
       0.777592             0.00835132726             0.00091923437           
       0.780233             0.00737706637            0.000910787786           
       0.782873             0.00579578111            0.000738227322           
       0.785513             0.00590509048            0.000792668872           
       0.788154             0.00631098188            0.000752682853           
       0.790794             0.00675229927            0.000805782244           
       0.793435             0.00704435491            0.000790506416           
       0.796075             0.00552589452             0.00070384101           
       0.798715              0.0061578653            0.000738757594           
       0.801356             0.00639606232            0.000732761051           
       0.803996             0.00800452994            0.000832835701           
       0.806637             0.00669781951            0.000720130583           
       0.809277              0.0063188476            0.000731750226           
       0.811917             0.00620100685             0.00068596123           
       0.814558             0.00769030117            0.000782573057           
       0.817198             0.00720576322             0.00072229447           
       0.819838             0.00611222258            0.000693909383           
       0.822479             0.00653592349            0.000661267919           
       0.825119             0.00666499965            0.000717351774           
       0.827760              0.0060795808             0.00063483736           
       0.830400             0.00665939075            0.000700050949           
       0.833040             0.00629409032            0.000635174603           
       0.835681             0.00775605997             0.00073838409           
       0.838321             0.00710143992            0.000661305583           
       0.840961             0.00636306408            0.000654304115           
       0.843602             0.00641540918            0.000618858411           
       0.846242             0.00704227526            0.000671281303           
       0.848883             0.00674194281            0.000638929824           
       0.851523             0.00758772715            0.000682903083           
       0.854163             0.00690098091            0.000643700151           
       0.856804             0.00673734061             0.00061974852           
       0.859444             0.00667402927            0.000621264637           
       0.862085             0.00682587281             0.00061915283           
       0.864725             0.00592247762            0.000574609892           
       0.867365             0.00720712768            0.000629333883           
       0.870006             0.00686280476            0.000622684834           
       0.872646             0.00658327425            0.000583329552           
       0.875286             0.00635658904            0.000592729226           
       0.877927             0.00689770664            0.000591175939           
       0.880567             0.00661614904            0.000590295517           
       0.883208             0.00710372674            0.000593995072           
       0.885848             0.00687197432            0.000599376332           
       0.888488             0.00616346204            0.000539721451           
       0.891129             0.00731798328            0.000618200869           
       0.893769             0.00752552123            0.000592581628           
       0.896410             0.00635310155            0.000561240013           
       0.899050             0.00651272612            0.000547901396           
       0.901690              0.0073421827            0.000593889428           
       0.904331             0.00756717031            0.000581870413           
       0.906971             0.00830039623             0.00062927321           
       0.909611              0.0069967553            0.000554540598           
       0.912252             0.00741926714            0.000580933674           
       0.914892             0.00660994373            0.000534445052           
       0.917533             0.00710125189             0.00056645074           
       0.920173             0.00703950971            0.000540999796           
       0.922813             0.00712546849            0.000568795715           
       0.925454             0.00695363791            0.000533272379           
       0.928094             0.00732348748            0.000559017509           
       0.930734             0.00680265418            0.000525914584           
       0.933375             0.00673973291            0.000534635847           
       0.936015             0.00723545635            0.000530027542           
       0.938656             0.00741673053            0.000559135113           
       0.941296             0.00694304709            0.000521508355           
       0.943936             0.00711249602            0.000537339999           
       0.946577             0.00734111083            0.000525742645           
       0.949217             0.00724803974            0.000540848482           
       0.951858             0.00703792509            0.000503842972           
       0.954498             0.00883483158            0.000593889572           
       0.957138             0.00750091623            0.000525961733           
       0.959779             0.00713188168            0.000524077983           
       0.962419             0.00664238216            0.000486905611           
       0.965059             0.00710837401            0.000518002583           
       0.967700             0.00713847937              0.0005023118           
       0.970340             0.00714126111            0.000516527213           
       0.972981             0.00784418479            0.000522690814           
       0.975621             0.00738717671            0.000517856784           
       0.978261             0.00730501995            0.000491345047           
       0.980902             0.00884893158             0.00056653021           
       0.983542             0.00738304153            0.000502414456           
       0.986182             0.00714036806            0.000500595308           
       0.988823              0.0080520248            0.000514440573           
       0.991463             0.00690403801            0.000487736683           
       0.994104             0.00733794617            0.000485880832           
       0.996744             0.00785355539            0.000518962256           
       0.999384             0.00786084475            0.000501581096           
       1.002025             0.00757533831             0.00050609763           
       1.004665             0.00777558887            0.000491740224           
       1.007306              0.0076411131            0.000503803602           
       1.009946             0.00687906603            0.000459633018           
       1.012586             0.00668992071             0.00046630852           
       1.015227             0.00721219399             0.00046951302           
       1.017867              0.0071171652            0.000479775326           
       1.020507             0.00785002093            0.000484902945           
       1.023148             0.00825256253            0.000503185378           
       1.025788             0.00781329642            0.000484597043           
       1.028429             0.00835195164             0.00051197566           
       1.031069             0.00726105337            0.000459922375           
       1.033709             0.00819004655            0.000497838601           
       1.036350             0.00758808427            0.000466628683           
       1.038990             0.00720625618            0.000465963367           
       1.041630             0.00785217303            0.000477040505           
       1.044271             0.00768167941            0.000471886092           
       1.046911             0.00730478635            0.000451614452           
       1.049552             0.00731915238            0.000468349432           
       1.052192             0.00760496241            0.000455938026           
       1.054832             0.00790963055            0.000474023704           
       1.057473             0.00690456738             0.00043727744           
       1.060113             0.00792602006            0.000473580686           
       1.062754             0.00726165372            0.000448284863           
       1.065394             0.00839903014            0.000477042768           
       1.068034             0.00815024541            0.000468105183           
       1.070675             0.00811238325            0.000475230896           
       1.073315             0.00779729139            0.000451668957           
       1.075955             0.00682379774            0.000429620252           
       1.078596             0.00864965893            0.000482738439           
       1.081236             0.00771912187            0.000449269146           
       1.083877             0.00815572713            0.000476226137           
       1.086517             0.00765106535            0.000450822606           
       1.089157             0.00767145598            0.000454732653           
       1.091798             0.00755862266            0.000441812682           
       1.094438             0.00802056874            0.000462346335           
       1.097078             0.00814824109            0.000454036307           
       1.099719             0.00835510873            0.000471546995           
       1.102359             0.00884711305            0.000459669955           
       1.105000             0.00812326618            0.000457811358           
       1.107640             0.00774647682            0.000432494424           
       1.110280             0.00868497318            0.000467113931           
       1.112921             0.00845739308            0.000452612569           
       1.115561              0.0081356776            0.000449554157           
       1.118202             0.00862149733            0.000449274923           
       1.120842             0.00833513188            0.000455669062           
       1.123482             0.00773981242            0.000426777676           
       1.126123             0.00799743507            0.000436529689           
       1.128763             0.00939101464            0.000470690298           
       1.131403             0.00827645047            0.000441189733           
       1.134044             0.00804760391            0.000434292353           
       1.136684             0.00914874934            0.000466531897           
       1.139325             0.00853585093            0.000437937108           
       1.141965             0.00889133424             0.00045280882           
       1.144605             0.00823558748            0.000438351222           
       1.147246              0.0089285085            0.000447775654           
       1.149886             0.00830996617             0.00043505921           
       1.152527             0.00814613881            0.000431180981           
       1.155167             0.00789790325            0.000418591184           
       1.157807             0.00854360206            0.000435666101           
       1.160448             0.00869845686            0.000445611343           
       1.163088              0.0082875636            0.000418822393           
       1.165728             0.00928650855             0.00046161977           
       1.168369             0.00775875336            0.000406880188           
       1.171009             0.00814700847            0.000420393009           
       1.173650             0.00822217449            0.000419282413           
       1.176290             0.00907583627            0.000445679688           
       1.178930             0.00827786026            0.000413671084           
       1.181571             0.00905580866            0.000446804714           
       1.184211             0.00901197932            0.000432260641           
       1.186851             0.00801792136            0.000411483646           
       1.189492             0.00871314589            0.000431334447           
       1.192132             0.00968325052            0.000447978455           
       1.194773             0.00883897957             0.00042542161           
       1.197413             0.00923845215            0.000438476608           
       1.200053             0.00917057149             0.00043411413           
       1.202694             0.00896361355            0.000425953479           
       1.205334             0.00985682598            0.000451555246           
       1.207975             0.00950193115            0.000434664731           
       1.210615             0.00941873694            0.000441908854           
       1.213255             0.00880902532             0.00041606023           
       1.215896              0.0096086283            0.000442769819           
       1.218536             0.00869327886            0.000409022049           
       1.221176             0.00889000887            0.000423496983           
       1.223817             0.00861394956            0.000408183198           
       1.226457             0.00907400257            0.000424262778           
       1.229098             0.00957073865            0.000429110468           
       1.231738             0.00978234782            0.000439937325           
       1.234378             0.00902924236            0.000414451161           
       1.237019             0.00917567646            0.000421168307           
       1.239659             0.00923765965            0.000422359799           
       1.242299              0.0100692546            0.000438706739           
       1.244940             0.00954982127            0.000422629572           
       1.247580              0.0091283126            0.000415021787           
       1.250221             0.00969095448            0.000434601128           
       1.252861             0.00920318038            0.000407743592           
       1.255501              0.0100360497            0.000437815969           
       1.258142             0.00869297591             0.00039941324           
       1.260782             0.00869750348            0.000404030055           
       1.263423             0.00920850729            0.000407493286           
       1.266063             0.00994517719            0.000431372297           
       1.268703             0.00938601567            0.000408511578           
       1.271344             0.00889199658            0.000406275636           
       1.273984             0.00984299096             0.00042077656           
       1.276624             0.00907045876            0.000401462217           
       1.279265             0.00974612107              0.0004170548           
       1.281905             0.00999947185            0.000425044544           
       1.284546              0.0104697569             0.00043017354           
       1.287186               0.010334513            0.000427796694           
       1.289826             0.00961184107            0.000414707605           
       1.292467              0.0097289998            0.000409780671           
       1.295107              0.0101418823            0.000425760172           
       1.297747              0.0104327474            0.000420495835           
       1.300388              0.0103944598            0.000430501704           
       1.303028               0.010451948            0.000420713001           
       1.305669              0.0102309589            0.000421619433           
       1.308309             0.00987964816            0.000408087725           
       1.310949              0.0104549188            0.000425033046           
       1.313590              0.0105988386            0.000421325652           
       1.316230             0.00964550559            0.000409165548           
       1.318871              0.0101581557            0.000410839486           
       1.321511              0.0105446618            0.000420680152           
       1.324151              0.0100916332            0.000413170336           
       1.326792              0.0100213579            0.000408393986           
       1.329432              0.0106413797            0.000423033288           
       1.332072              0.0102882873            0.000408823105           
       1.334713              0.0104342252            0.000416818452           
       1.337353              0.0101818895            0.000405413911           
       1.339994              0.0109304158             0.00042603478           
       1.342634              0.0102103454             0.00040249285           
       1.345274              0.0122257633            0.000446186892           
       1.347915              0.0107584094            0.000419668059           
       1.350555              0.0101267818             0.00040557165           
       1.353195              0.0102723857            0.000400662591           
       1.355836              0.0103387746            0.000409539262           
       1.358476              0.0103995536            0.000409586086           
       1.361117              0.0103954846            0.000399233115           
       1.363757              0.0106903991            0.000418273763           
       1.366397              0.0103882182            0.000399479821           
       1.369038             0.00993747203             0.00039895218           
       1.371678              0.0103032101             0.00039802475           
       1.374319              0.0101334656            0.000397863087           
       1.376959             0.00976871166            0.000385259058           
       1.379599              0.0101841951            0.000401034171           
       1.382240              0.0103839382            0.000397256418           
       1.384880             0.00947981116            0.000384228433           
       1.387520              0.0101474383            0.000392880301           
       1.390161              0.0108404612            0.000404970998           
       1.392801              0.0105292108            0.000401493709           
       1.395442              0.0104329289            0.000395512841           
       1.398082              0.0107213256            0.000402314209           
       1.400722              0.0103493355            0.000393487509           
       1.403363              0.0102738154            0.000395687358           
       1.406003               0.010308235            0.000386617196           
       1.408644              0.0109782992            0.000407361158           
       1.411284              0.0106676216            0.000399353579           
       1.413924              0.0107720915            0.000396354733           
       1.416565             0.00982677669            0.000378119211           
       1.419205              0.0103825722            0.000392493767           
       1.421845              0.0105470871            0.000390617862           
       1.424486             0.00996130976            0.000381291507           
       1.427126              0.0096850429            0.000375729749           
       1.429767              0.0105141375            0.000385449173           
       1.432407              0.0106004403            0.000396777654           
       1.435047              0.0110440351            0.000392824185           
       1.437688              0.0107291371            0.000395757527           
       1.440328              0.0103710395            0.000381556835           
       1.442968              0.0101390205             0.00038248709           
       1.445609             0.00949063733            0.000363968469           
       1.448249              0.0106657837            0.000388339448           
       1.450890              0.0102041694            0.000377133228           
       1.453530               0.010527016             0.00038589009           
       1.456170             0.00996835247            0.000374665602           
       1.458811             0.00986235774            0.000369703474           
       1.461451              0.0104430056            0.000383227518           
       1.464092              0.0102169747            0.000375753382           
       1.466732              0.0107119159            0.000382387197           
       1.469372              0.0102988756            0.000373789966           
       1.472013              0.0100965913            0.000376722326           
       1.474653              0.0106981773            0.000378208044           
       1.477293             0.00909149419            0.000354521708           
       1.479934             0.00994509075            0.000366910462           
       1.482574             0.00945157683            0.000356808101           
       1.485215               0.010325528            0.000373900092           
       1.487855             0.00992513674            0.000366503362           
       1.490495             0.00995772386            0.000366314399           
       1.493136              0.0100864157            0.000363839053           
       1.495776             0.00884736873            0.000346700493           
       1.498416              0.0103537008            0.000367768948           
       1.501057             0.00933096747            0.000352135752           
       1.503697              0.0106674873            0.000372891112           
       1.506338              0.0105078978            0.000372812992           
       1.508978             0.00985513365            0.000358915781           
       1.511618             0.00970387731            0.000355970827           
       1.514259             0.00966031033            0.000355812294           
       1.516899             0.00972823962            0.000357227379           
       1.519540              0.0100581701            0.000361218771           
       1.522180             0.00935973481            0.000344100128           
       1.524820              0.0102792966            0.000367890893           
       1.527461             0.00957795203            0.000347262904           
       1.530101             0.00927931797            0.000345340364           
       1.532741             0.00991180033            0.000355224629           
       1.535382             0.00953154919            0.000349111302           
       1.538022             0.00995960646            0.000353707042           
       1.540663             0.00953282669            0.000349316186           
       1.543303             0.00984072531            0.000350495963           
       1.545943             0.00936918875            0.000343912214           
       1.548584             0.00947570063            0.000347703267           
       1.551224             0.00933193739            0.000336209322           
       1.553864             0.00971280194             0.00035196194           
       1.556505             0.00971749538            0.000346631428           
       1.559145             0.00970577794             0.00034722324           
       1.561786               0.010114301            0.000352849583           
       1.564426              0.0100601564             0.00035158601           
       1.567066             0.00991499126            0.000346315849           
       1.569707             0.00968713274            0.000347269168           
       1.572347             0.00915015263            0.000333128102           
       1.574988             0.00930285428            0.000334567475           
       1.577628             0.00960358212            0.000347585648           
       1.580268             0.00930043579            0.000330251447           
       1.582909             0.00957714769            0.000341396616           
       1.585549             0.00904251513             0.00032863063           
       1.588189             0.00890094229            0.000329689532           
       1.590830             0.00862031324            0.000318881284           
       1.593470             0.00824612335            0.000314430445           
       1.596111             0.00919135811            0.000329094471           
       1.598751             0.00880707357            0.000325434581           
       1.601391             0.00836700261            0.000315171719           
       1.604032             0.00946519605            0.000332418464           
       1.606672             0.00907459216            0.000332038188           
       1.609312             0.00883604755            0.000317895832           
       1.611953             0.00904139141            0.000326228747           
       1.614593               0.008985418            0.000322743857           
       1.617234             0.00801917353            0.000306625624           
       1.619874             0.00941368417            0.000328309931           
       1.622514             0.00816621609            0.000308488317           
       1.625155             0.00830471644            0.000310323977           
       1.627795             0.00806433707            0.000302709694           
       1.630436              0.0086595666            0.000316835295           
       1.633076             0.00872877664            0.000316482749           
       1.635716             0.00865608557            0.000314612596           
       1.638357             0.00881438951            0.000316127544           
       1.640997             0.00837064984            0.000310476646           
       1.643637             0.00807374962            0.000299258673           
       1.646278             0.00920174797            0.000324262544           
       1.648918              0.0091028537            0.000318357472           
       1.651559              0.0088447989            0.000317758138           
       1.654199             0.00852541805            0.000307692112           
       1.656839              0.0089888397            0.000315859097           
       1.659480             0.00851120296            0.000310059637           
       1.662120             0.00854819656            0.000306568806           
       1.664761             0.00846218756            0.000308325142           
       1.667401             0.00879071822            0.000311325718           
       1.670041             0.00818666364            0.000300782804           
       1.672682             0.00843261669            0.000302395079           
       1.675322             0.00868676699            0.000312344791           
       1.677962             0.00847472686            0.000302382145           
       1.680603              0.0081092371            0.000298414984           
       1.683243             0.00820087008            0.000297876239           
       1.685884             0.00899362317            0.000313128608           
       1.688524             0.00792526228            0.000293115389           
       1.691164             0.00771038594            0.000288371382           
       1.693805             0.00858540629            0.000306755515           
       1.696445             0.00797501061            0.000291546369           
       1.699085             0.00786289161            0.000290645476           
       1.701726             0.00811851001            0.000291490515           
       1.704366              0.0079776743            0.000295981972           
       1.707007             0.00798388809            0.000289778688           
       1.709647             0.00762038109            0.000286622614           
       1.712287             0.00813477978            0.000291189541           
       1.714928             0.00829063617            0.000296921717           
       1.717568              0.0079746082            0.000288529773           
       1.720209             0.00813796591            0.000293269879           
       1.722849             0.00820616486            0.000294968357           
       1.725489             0.00823840218            0.000290836488           
       1.728130             0.00791270422            0.000290831847           
       1.730770             0.00788298633            0.000284149276           
       1.733410             0.00856221441            0.000300025653           
       1.736051             0.00854937821            0.000295147193           
       1.738691             0.00770457597            0.000283045465           
       1.741332             0.00847284514            0.000294995076           
       1.743972             0.00804427386            0.000287544199           
       1.746612             0.00807743057            0.000288202474           
       1.749253             0.00810423388             0.00028992781           
       1.751893             0.00817954207            0.000289524283           
       1.754533              0.0084371686             0.00029001267           
       1.757174             0.00791000882            0.000286056596           
       1.759814             0.00849670815            0.000291955585           
       1.762455             0.00834944701            0.000291878418           
       1.765095              0.0080080472            0.000281834595           
       1.767735             0.00863771791            0.000297678988           
       1.770376             0.00816971766            0.000285112047           
       1.773016             0.00808993931             0.00028416432           
       1.775657             0.00818104827            0.000286345427           
       1.778297             0.00831950057            0.000290170862           
       1.780937             0.00829175999            0.000288334876           
       1.783578             0.00847188637            0.000290081313           
       1.786218             0.00798638774            0.000286141227           
       1.788858              0.0083817749            0.000285855647           
       1.791499             0.00830953597            0.000289866759           
       1.794139             0.00815040446            0.000281776632           
       1.796780             0.00892876747            0.000296677101           
       1.799420             0.00889552016            0.000295747217           
       1.802060             0.00844278578             0.00028457923           
       1.804701             0.00836181702             0.00028701086           
       1.807341             0.00858387073            0.000287986915           
       1.809981             0.00894081626            0.000295865606           
       1.812622             0.00930110212            0.000300123832           
       1.815262             0.00906980715            0.000297425402           
       1.817903             0.00922256691            0.000296214297           
       1.820543             0.00868110087            0.000290939383           
       1.823183             0.00864839251            0.000285916415           
       1.825824             0.00819103693            0.000282438094           
       1.828464             0.00874774297            0.000290982785           
       1.831105             0.00855726574            0.000288911553           
       1.833745             0.00868657802            0.000290904608           
       1.836385             0.00829754744            0.000283210078           
       1.839026             0.00894185918            0.000298419806           
       1.841666             0.00831146771            0.000283972623           
       1.844306              0.0080859765            0.000283630119           
       1.846947               0.008248469            0.000282784492           
       1.849587             0.00866541689            0.000293774659           
       1.852228             0.00830488841            0.000284539575           
       1.854868             0.00898480861            0.000301386153           
       1.857508             0.00821750224            0.000282907629           
       1.860149             0.00783231768            0.000278411447           
       1.862789             0.00878622289            0.000296183275           
       1.865429             0.00836845929            0.000289927593           
       1.868070             0.00851382778            0.000291424427           
       1.870710             0.00851488258            0.000292236173           
       1.873351              0.0086370035             0.00029620334           
       1.875991             0.00867332488            0.000298431125           
       1.878631             0.00796436028            0.000283316127           
       1.881272             0.00853082422             0.00029253163           
       1.883912             0.00856024413            0.000296472283           
       1.886553             0.00806578526            0.000284330389           
       1.889193             0.00858144632            0.000296666324           
       1.891833              0.0084788262            0.000291531384           
       1.894474             0.00878865955            0.000299159264           
       1.897114             0.00838098423            0.000289872371           
       1.899754             0.00844324785            0.000294210062           
       1.902395             0.00841131733            0.000293715818           
       1.905035             0.00836675857            0.000291788814           
       1.907676             0.00820551289            0.000289299368           
       1.910316             0.00813863458            0.000289955087           
       1.912956             0.00920023171             0.00030827413           
       1.915597             0.00835793599            0.000290760737           
       1.918237             0.00848325141            0.000297379054           
       1.920878             0.00831792596            0.000289255714           
       1.923518             0.00803317399            0.000291813907           
       1.926158             0.00830247655            0.000289847875           
       1.928799             0.00847167171             0.00029667705           
       1.931439              0.0082444573            0.000290326046           
       1.934079              0.0086494992            0.000300383704           
       1.936720             0.00795461539            0.000286369513           
       1.939360             0.00866773348            0.000301811352           
       1.942001             0.00823048562            0.000292968941           
       1.944641             0.00845127075            0.000295593165           
       1.947281             0.00821848414            0.000292902052           
       1.949922              0.0080709729            0.000290624839           
       1.952562             0.00815126861            0.000294580184           
       1.955202             0.00824878227            0.000288891586           
       1.957843             0.00858906007            0.000304154542           
       1.960483             0.00798869526            0.000288653114           
       1.963124             0.00819880465            0.000292207538           
       1.965764             0.00786332618            0.000286269141           
       1.968404              0.0080793606            0.000295363879           
       1.971045             0.00818321479            0.000289804787           
       1.973685             0.00811953471            0.000294062031           
       1.976326             0.00761628014            0.000283561478           
       1.978966             0.00785179752            0.000289274766           
       1.981606             0.00801158286            0.000289113122           
       1.984247             0.00801831051             0.00029175652           
       1.986887             0.00837639665            0.000300988956           
       1.989527             0.00771619701            0.000282865633           
       1.992168             0.00748960158            0.000285405087           
       1.994808             0.00827028179            0.000296422652           
       1.997449             0.00770096555            0.000285618592           
       2.000089             0.00799528031            0.000289311633           
       2.002729             0.00819218799            0.000299563095           
       2.005370             0.00795066168            0.000289504162           
       2.008010              0.0076163005            0.000287113262           
       2.010650             0.00755784596            0.000285191166           
       2.013291              0.0080440052            0.000295895378           
       2.015931             0.00775754721             0.00028849929           
       2.018572             0.00782655541            0.000293628236           
       2.021212             0.00799115046            0.000294036927           
       2.023852             0.00766785096            0.000289540634           
       2.026493             0.00748834055            0.000284877452           
       2.029133             0.00761890656             0.00028515823           
       2.031774             0.00777712466            0.000290897822           
       2.034414             0.00785589477            0.000290622485           
       2.037054             0.00764730406            0.000290353754           
       2.039695             0.00780041754             0.00028746988           
       2.042335             0.00776682145            0.000291732743           
       2.044975              0.0077369834             0.00028884474           
       2.047616             0.00747197179            0.000285071135           
       2.050256             0.00781530432            0.000288117548           
       2.052897             0.00700085212            0.000280768217           
       2.055537             0.00730326275            0.000278949762           
       2.058177             0.00755972365            0.000286312222           
       2.060818             0.00773310405            0.000290446212           
       2.063458             0.00772277423            0.000290651933           
       2.066098             0.00745549565            0.000284310709           
       2.068739             0.00720489064              0.0002824057           
       2.071379             0.00785515798            0.000290519893           
       2.074020             0.00793557301            0.000296001813           
       2.076660             0.00725635056            0.000281132124           
       2.079300             0.00766255436            0.000288851886           
       2.081941             0.00697517104            0.000277266972           
       2.084581             0.00702357775              0.0002784335           
       2.087222             0.00749030818            0.000287731818           
       2.089862             0.00789488467            0.000291718433           
       2.092502             0.00751951834            0.000289871999           
       2.095143             0.00716198077            0.000278853545           
       2.097783             0.00778143527            0.000295085756           
       2.100423             0.00717508391            0.000277922423           
       2.103064             0.00696140472            0.000278479327           
       2.105704             0.00753510163            0.000288618684           
       2.108345             0.00685189383            0.000276486846           
       2.110985             0.00732470487            0.000281851864           
       2.113625             0.00760384669            0.000291696888           
       2.116266             0.00701467646            0.000278094606           
       2.118906             0.00720438106            0.000281624991           
       2.121546             0.00742528825            0.000285683097           
       2.124187              0.0074367386            0.000289857798           
       2.126827             0.00732821977            0.000283222684           
       2.129468             0.00785979901            0.000296376101           
       2.132108             0.00694748776            0.000278068478           
       2.134748              0.0070582873            0.000279220774           
       2.137389             0.00729963295            0.000286332678           
       2.140029             0.00732851315            0.000286201823           
       2.142670             0.00701220061            0.000280414634           
       2.145310             0.00695543556            0.000280344299           
       2.147950              0.0071824577            0.000285984026           
       2.150591             0.00800796263            0.000299202356           
       2.153231              0.0071398284            0.000286695984           
       2.155871             0.00746605571            0.000288938507           
       2.158512             0.00766574236            0.000298052598           
       2.161152             0.00705428598            0.000278776355           
       2.163793             0.00728043982            0.000287817972           
       2.166433             0.00747420053            0.000286565781           
       2.169073             0.00764116348            0.000296513799           
       2.171714             0.00750060243            0.000287793096           
       2.174354             0.00679798426            0.000278168937           
       2.176995             0.00701867439            0.000280303509           
       2.179635             0.00708840488            0.000287023555           
       2.182275              0.0076850092            0.000292925818           
       2.184916              0.0075588343            0.000296651106           
       2.187556             0.00779720806            0.000296441824           
       2.190196             0.00709330878            0.000287188769           
       2.192837             0.00690811702            0.000280311466           
       2.195477             0.00755098266            0.000295891143           
       2.198118             0.00763250329            0.000291991996           
       2.200758             0.00762367889            0.000296354958           
       2.203398             0.00714012771            0.000282046294           
       2.206039             0.00709250405            0.000285400752           
       2.208679             0.00718858427            0.000284514739           
       2.211319             0.00745455387             0.00029109405           
       2.213960             0.00742230534            0.000287375396           
       2.216600             0.00719806631            0.000289669033           
       2.219241             0.00731047007            0.000287677914           
       2.221881             0.00756317028            0.000294132954           
       2.224521             0.00721194342            0.000286225906           
       2.227162             0.00726531219            0.000291795319           
       2.229802             0.00735826495             0.00028888927           
       2.232443             0.00735990358            0.000290057294           
       2.235083             0.00758096374             0.00029261591           
       2.237723             0.00761835461             0.00029558462           
       2.240364             0.00768533876            0.000295371177           
       2.243004             0.00748651693              0.0002924062           
       2.245644             0.00709982671              0.0002840969           
       2.248285             0.00750147696            0.000293917981           
       2.250925             0.00715548598            0.000285717425           
       2.253566             0.00771888489            0.000297478158           
       2.256206             0.00693473547            0.000281118798           
       2.258846             0.00677856982            0.000277937948           
       2.261487             0.00685419844            0.000279967596           
       2.264127             0.00739945792             0.00029364273           
       2.266767             0.00724376771            0.000285841133           
       2.269408             0.00731891911            0.000290732501           
       2.272048             0.00737425028            0.000290034256           
       2.274689             0.00709975858            0.000285704162           
       2.277329             0.00731749821             0.00028966673           
       2.279969              0.0076031946            0.000296162243           
       2.282610             0.00738412168            0.000289018082           
       2.285250             0.00718071568             0.00028949208           
       2.287891             0.00762214708            0.000295247831           
       2.290531             0.00699083277            0.000284150806           
       2.293171             0.00789547949             0.00030196199           
       2.295812             0.00674458221            0.000277606329           
       2.298452             0.00771365196            0.000298782064           
       2.301092             0.00726810896            0.000291867152           
       2.303733              0.0076389965            0.000293302965           
       2.306373             0.00698647738            0.000287357187           
       2.309014             0.00727508027            0.000287581679           
       2.311654             0.00685511085            0.000281807006           
       2.314294             0.00677684956            0.000279582064           
       2.316935             0.00674591436            0.000280045676           
       2.319575             0.00675442221            0.000279172891           
       2.322215             0.00696055005              0.0002874391           
       2.324856             0.00681211997             0.00027721694           
       2.327496             0.00685305345             0.00028486294           
       2.330137             0.00738626225            0.000290283268           
       2.332777             0.00694311481            0.000284518812           
       2.335417             0.00719546752            0.000288773664           
       2.338058             0.00707738325            0.000287540579           
       2.340698             0.00758303906            0.000294704826           
       2.343339             0.00729415245            0.000294552335           
       2.345979             0.00743787339            0.000291504716           
       2.348619             0.00655769168             0.00027888281           
       2.351260             0.00737711475            0.000289506352           
       2.353900             0.00703166184            0.000288633803           
       2.356540             0.00723674911             0.00028878561           
       2.359181             0.00732879745            0.000294502587           
       2.361821             0.00655969871             0.00027522674           
       2.364462             0.00689189551            0.000286824557           
       2.367102             0.00703142148            0.000281335553           
       2.369742             0.00712372998            0.000293324363           
       2.372383              0.0068504691            0.000279258433           
       2.375023             0.00687777524            0.000287104781           
       2.377663              0.0074353081            0.000292171225           
       2.380304              0.0068596381            0.000284525745           
       2.382944             0.00696582027            0.000283915004           
       2.385585             0.00639640261             0.00027463539           
       2.388225             0.00656266126            0.000276924837           
       2.390865             0.00728575567            0.000292529655           
       2.393506             0.00709518855            0.000287348221           
       2.396146             0.00713660979            0.000289140953           
       2.398787             0.00691621565            0.000284890262           
       2.401427             0.00749786977            0.000294826982           
       2.404067             0.00738934624            0.000297152823           
       2.406708             0.00743661967             0.00029435498           
       2.409348             0.00716072813            0.000291016119           
       2.411988             0.00711357766            0.000289130056           
       2.414629             0.00721916544             0.00029222096           
       2.417269             0.00701571054            0.000285457636           
       2.419910             0.00686929279            0.000286025263           
       2.422550             0.00690383182            0.000282390729           
       2.425190             0.00701752356            0.000293670383           
       2.427831             0.00730189942            0.000288295464           
       2.430471             0.00666324824            0.000283449646           
       2.433112             0.00663074179            0.000276085402           
       2.435752             0.00731648047            0.000297352294           
       2.438392             0.00734870693             0.00029299751           
       2.441033             0.00712999888            0.000289927061           
       2.443673              0.0071893863            0.000291909424           
       2.446313             0.00724592456            0.000291493601           
       2.448954             0.00696223019            0.000288237498           
       2.451594             0.00695012264            0.000286258791           
       2.454235             0.00746033214            0.000295657048           
       2.456875             0.00715021641            0.000290912942           
       2.459515             0.00744970432            0.000297400768           
       2.462156             0.00796725501            0.000305972502           
       2.464796             0.00732282493            0.000298511618           
       2.467436             0.00768069336            0.000299308354           
       2.470077             0.00803641483             0.00031038278           
       2.472717             0.00828058564             0.00031112044           
       2.475358             0.00725252161            0.000294466036           
       2.477998             0.00745410865            0.000296937699           
       2.480638             0.00721184885             0.00029278225           
       2.483279              0.0068385817            0.000286329557           
       2.485919             0.00702325182            0.000288138094           
       2.488560             0.00709236859            0.000290753468           
       2.491200              0.0073907532            0.000296399703           
       2.493840             0.00720172795            0.000290991808           
       2.496481             0.00697979883            0.000290219271           
       2.499121             0.00720428013             0.00029092351           
       2.501761             0.00700832347            0.000291812063           
       2.504402             0.00696417341            0.000285316793           
       2.507042             0.00724391648            0.000295828026           
       2.509683              0.0073032742            0.000294332498           
       2.512323             0.00753270836            0.000300090462           
       2.514963             0.00976215225            0.000342304232           
       2.517604              0.0187238822            0.000472208572           
       2.520244              0.0493437583            0.000766737975           
       2.522884              0.0128662701            0.000390666472           
       2.525525              0.0101209432            0.000349335769           
       2.528165              0.0224324658            0.000517705843           
       2.530806              0.0260867761            0.000556187815           
       2.533446              0.0181789828            0.000468423281           
       2.536086              0.0152675381            0.000425674749           
       2.538727              0.0126316639            0.000389671804           
       2.541367              0.0103628103             0.00035193613           
       2.544008             0.00794345092            0.000308387973           
       2.546648             0.00736095027            0.000297202623           
       2.549288             0.00702473181            0.000290377581           
       2.551929              0.0073599339            0.000298206666           
       2.554569             0.00717003277            0.000291644664           
       2.557209             0.00728768824            0.000297349927           
       2.559850             0.00763826402            0.000300917416           
       2.562490             0.00742146086            0.000298775797           
       2.565131             0.00721839084            0.000295172487           
       2.567771             0.00708734755            0.000290930766           
       2.570411             0.00692976638            0.000291179023           
       2.573052             0.00752175531            0.000299820339           
       2.575692             0.00691278439            0.000288189755           
       2.578332              0.0069280994            0.000287656544           
       2.580973             0.00722096796            0.000296054716           
       2.583613             0.00671993112            0.000282996386           
       2.586254             0.00720367277            0.000295597487           
       2.588894             0.00661089139            0.000281663707           
       2.591534             0.00718767173            0.000294234162           
       2.594175             0.00685783305            0.000289072061           
       2.596815             0.00691102365            0.000287492885           
       2.599456             0.00748376409            0.000301616281           
       2.602096             0.00714108613            0.000293527357           
       2.604736             0.00691156454            0.000289529053           
       2.607377             0.00700415808             0.00029034741           
       2.610017             0.00718083939            0.000293883926           
       2.612657             0.00737840199            0.000300003574           
       2.615298             0.00656261772            0.000280165568           
       2.617938             0.00675424381            0.000286712952           
       2.620579             0.00699111459            0.000289314362           
       2.623219             0.00718671957            0.000298025941           
       2.625859             0.00662193064             0.00028125428           
       2.628500             0.00717527761            0.000297448808           
       2.631140             0.00687354093            0.000285993542           
       2.633780             0.00712690194            0.000294957161           
       2.636421             0.00708487803            0.000291410175           
       2.639061             0.00731969569            0.000299741472           
       2.641702             0.00726215509            0.000295369386           
       2.644342             0.00694184704            0.000291150986           
       2.646982             0.00717927094            0.000295836704           
       2.649623             0.00689197714            0.000291594655           
       2.652263             0.00661074554             0.00028331087           
       2.654904             0.00706087957            0.000294387355           
       2.657544             0.00752155628            0.000301701364           
       2.660184             0.00727666882             0.00029712889           
       2.662825             0.00748164679            0.000302006925           
       2.665465               0.007490854            0.000302751603           
       2.668105             0.00704011557            0.000293617952           
       2.670746             0.00650038042            0.000279751055           
       2.673386             0.00695117359            0.000292794713           
       2.676027             0.00647305929            0.000280143933           
       2.678667             0.00729201359            0.000298883599           
       2.681307             0.00704458955             0.00029145911           
       2.683948              0.0074009383            0.000301706732           
       2.686588             0.00716739729            0.000294183697           
       2.689229             0.00727226527            0.000298987514           
       2.691869             0.00785224074            0.000307580144           
       2.694509             0.00721281424            0.000298833472           
       2.697150             0.00690714098            0.000287765426           
       2.699790             0.00689003161            0.000293378926           
       2.702430             0.00677217226            0.000285282254           
       2.705071             0.00696046787            0.000293179362           
       2.707711             0.00676361553            0.000286138012           
       2.710352             0.00613037216            0.000273964598           
       2.712992             0.00634763218            0.000279683358           
       2.715632             0.00660415837            0.000283656047           
       2.718273             0.00681610991            0.000289128553           
       2.720913             0.00707392155            0.000295037546           
       2.723553             0.00694029375            0.000291222113           
       2.726194             0.00642613774            0.000281578784           
       2.728834             0.00650661275            0.000280817752           
       2.731475             0.00676985735            0.000288945516           
       2.734115             0.00683865768            0.000288679566           
       2.736755             0.00652244914            0.000283790203           
       2.739396             0.00733829674            0.000299424303           
       2.742036             0.00720793907            0.000298778396           
       2.744677             0.00701458342            0.000295174664           
       2.747317             0.00746159706            0.000302955611           
       2.749957              0.0074651185            0.000305225415           
       2.752598             0.00675041353            0.000291120906           
       2.755238             0.00696608439            0.000295601609           
       2.757878             0.00683654467            0.000292006462           
       2.760519             0.00694653295            0.000291238165           
       2.763159              0.0070623743            0.000298431295           
       2.765800             0.00718333737            0.000295877718           
       2.768440             0.00691371939            0.000294095791           
       2.771080             0.00673875613            0.000287903857           
       2.773721             0.00661054756            0.000288650156           
       2.776361             0.00707322893            0.000295373983           
       2.779001             0.00735974253            0.000304464031           
       2.781642             0.00646535871            0.000283418006           
       2.784282             0.00694937304            0.000293937787           
       2.786923             0.00723420208            0.000297620158           
       2.789563             0.00727994345            0.000299159343           
       2.792203             0.00668931556            0.000288592563           
       2.794844             0.00681854801            0.000290041149           
       2.797484             0.00590408132            0.000270272166           
       2.800125             0.00648930612            0.000282984532           
       2.802765             0.00658423007            0.000290330949           
       2.805405             0.00633972054             0.00028077676           
       2.808046             0.00668899306            0.000292829753           
       2.810686             0.00676533612             0.00029135808           
       2.813326             0.00710276346            0.000302229085           
       2.815967             0.00648247282            0.000286911091           
       2.818607              0.0066646755             0.00029382334           
       2.821248             0.00619629353            0.000279777994           
       2.823888             0.00659817901             0.00029335869           
       2.826528             0.00622013728            0.000283131404           
       2.829169             0.00686157768            0.000296059123           
       2.831809              0.0063937273             0.00028603808           
       2.834449              0.0064110405            0.000281425585           
       2.837090             0.00678708959            0.000291304272           
       2.839730             0.00634487617            0.000279654299           
       2.842371             0.00644922367            0.000283908944           
       2.845011             0.00679265067            0.000290720269           
       2.847651              0.0069557241            0.000294729552           
       2.850292             0.00632783252            0.000279515156           
       2.852932             0.00727288749            0.000300199109           
       2.855573             0.00733834854            0.000304195445           
       2.858213             0.00665050415            0.000286338918           
       2.860853             0.00706675386            0.000297373063           
       2.863494             0.00631776488            0.000281849874           
       2.866134             0.00587902484             0.00027570087           
       2.868774             0.00721234341            0.000300693672           
       2.871415             0.00738710272              0.0003073268           
       2.874055             0.00702182874            0.000301116412           
       2.876696              0.0073290877            0.000304863832           
       2.879336             0.00700544098            0.000300035072           
       2.881976             0.00682402996            0.000295881057           
       2.884617             0.00692076849            0.000296315629           
       2.887257             0.00696511499            0.000295190797           
       2.889897             0.00692217435            0.000297652506           
       2.892538             0.00706900869            0.000298707328           
       2.895178             0.00682641897            0.000290543749           
       2.897819             0.00672823852            0.000291413476           
       2.900459              0.0065857949            0.000285925119           
       2.903099             0.00674911956            0.000290960138           
       2.905740             0.00638770584            0.000279902874           
       2.908380             0.00705989759            0.000298184695           
       2.911021             0.00763402655            0.000310661755           
       2.913661             0.00668648429            0.000287543829           
       2.916301             0.00613092603            0.000279256237           
       2.918942             0.00705404634             0.00029502388           
       2.921582             0.00660495464            0.000288473344           
       2.924222             0.00678715829             0.00029072906           
       2.926863             0.00673333069            0.000290343075           
       2.929503             0.00666781944            0.000292134555           
       2.932144             0.00751071887            0.000304964896           
       2.934784             0.00759321995            0.000307938388           
       2.937424             0.00661882368            0.000288034015           
       2.940065             0.00630810819            0.000281420842           
       2.942705             0.00639106709            0.000284126017           
       2.945346             0.00654978951            0.000285933631           
       2.947986             0.00728201517            0.000302547409           
       2.950626               0.007183018            0.000301407752           
       2.953267             0.00917973198            0.000337114613           
       2.955907              0.0108946977             0.00037211255           
       2.958547             0.00898578741            0.000334478835           
       2.961188              0.0080437176            0.000319222749           
       2.963828             0.00800086766            0.000316567115           
       2.966469             0.00682509152            0.000292455402           
       2.969109             0.00671927408            0.000291663472           
       2.971749             0.00798014534            0.000316918056           
       2.974390             0.00758726484            0.000309866255           
       2.977030             0.00939774649            0.000344204235           
       2.979670             0.00958815808            0.000345432273           
       2.982311             0.00818768446            0.000321513244           
       2.984951             0.00761725201            0.000310913054           
       2.987592             0.00772908397            0.000312129978           
       2.990232             0.00737649154            0.000305705998           
       2.992872             0.00754803808            0.000306820885           
       2.995513             0.00805881331            0.000319522553           
       2.998153             0.00848093549              0.0003298988           
       3.000794              0.0100529374            0.000353947845           
       3.003434              0.0279822397            0.000596780785           
       3.006074              0.0633443417             0.00090079281           
       3.008715              0.0346134546            0.000670946615           
       3.011355              0.0252128886            0.000578588758           
       3.013995              0.0206096223            0.000520552697           
       3.016636              0.0317955143            0.000647777916           
       3.019276                0.15311031              0.0014554654           
       3.021917               0.232417727                0.00176281           
       3.024557               0.133139662              0.0013448629           
       3.027197                0.12089153             0.00130301935           
       3.029838               0.117068007             0.00127611643           
       3.032478              0.0557409562            0.000885820612           
       3.035118              0.0387916748            0.000742775533           
       3.037759              0.0962255593             0.00117191946           
       3.040399               0.177317737             0.00160905136           
       3.043040              0.0746635514             0.00105425558           
       3.045680              0.0568173677            0.000905506368           
       3.048320               0.142427374              0.0014566707           
       3.050961               0.235874637             0.00189338287           
       3.053601              0.0663192122            0.000999522651           
       3.056242              0.0600174582            0.000956957155           
       3.058882               0.208090026              0.0018083905           
       3.061522                0.12089884             0.00136885735           
       3.064163              0.0216559419            0.000580397049           
       3.066803              0.0300269613            0.000696642824           
       3.069443              0.0384824224            0.000783399918           
       3.072084              0.0701799514             0.00106735215           
       3.074724              0.0206362862            0.000582202295           
       3.077365              0.0109885837            0.000424539354           
       3.080005             0.00999754662             0.00040943345           
       3.082645             0.00976418599            0.000406687004           
       3.085286             0.00817551261             0.00037220223           
       3.087926             0.00817212366            0.000374492724           
       3.090566             0.00789993235            0.000371995971           
       3.093207             0.00812425762            0.000373164807           
       3.095847             0.00680241774            0.000348617916           
       3.098488             0.00761096405             0.00036808634           
       3.101128             0.00785846449            0.000376060796           
       3.103768              0.0099606508            0.000425767902           
       3.106409              0.0106558169            0.000443324383           
       3.109049              0.0107468823            0.000448675737           
       3.111690              0.0108999423            0.000450080367           
       3.114330             0.00992105806            0.000433215625           
       3.116970              0.0119971184             0.00048301833           
       3.119611              0.0163707454            0.000560562767           
       3.122251              0.0141109744            0.000524699615           
       3.124891               0.011152494            0.000468728704           
       3.127532             0.00885091281            0.000425092313           
       3.130172             0.00830928794            0.000403407351           
       3.132813              0.0081898235            0.000408647994           
       3.135453                0.00930105            0.000444676265           
       3.138093             0.00763922539            0.000393435725           
       3.140734             0.00713427177            0.000387286469           
       3.143374             0.00670212385            0.000381111824           
       3.146014             0.00677444731            0.000380381239           
       3.148655             0.00579575086            0.000354603399           
       3.151295             0.00596491789            0.000362588716           
       3.153936             0.00623169982            0.000376079583           
       3.156576             0.00694888401             0.00039257237           
       3.159216             0.00628070556            0.000376273797           
       3.161857             0.00640412926            0.000384613928           
       3.164497              0.0070495162            0.000412037413           
       3.167138             0.00570156918            0.000361666053           
       3.169778             0.00595889119            0.000376413613           
       3.172418             0.00578369605            0.000373005886           
       3.175059             0.00584598908             0.00037991691           
       3.177699             0.00568002701            0.000373006203           
       3.180339             0.00640197399            0.000399542059           
       3.182980             0.00529472158            0.000368256815           
       3.185620             0.00601216259            0.000396702261           
       3.188261             0.00650797027            0.000407328355           
       3.190901              0.0059630987            0.000395912172           
       3.193541             0.00630689585            0.000408506919           
       3.196182             0.00578500221            0.000399380425           
       3.198822             0.00537503282            0.000380302058           
       3.201463              0.0057361359            0.000397949527           
       3.204103             0.00484715377            0.000370686413           
       3.206743             0.00532447448            0.000391794216           
       3.209384             0.00625011558            0.000422594025           
       3.212024             0.00636014649            0.000427811994           
       3.214664             0.00558666998            0.000408597591           
       3.217305               0.006001229            0.000433366449           
       3.219945             0.00572217711            0.000419632366           
       3.222586             0.00600482491            0.000432304114           
       3.225226             0.00499957669            0.000403349173           
       3.227866             0.00586638583            0.000440298018           
       3.230507             0.00499819655            0.000411263113           
       3.233147             0.00545760446            0.000423391803           
       3.235787             0.00594612077            0.000442055008           
       3.238428             0.00518166891            0.000419949907           
       3.241068             0.00584014486            0.000454875819           
       3.243709             0.00721701534            0.000502854821           
       3.246349             0.00558011082            0.000439691931           
       3.248989             0.00594425353            0.000464184527           
       3.251630             0.00556384295            0.000451072743           
       3.254270             0.00637757592            0.000497777841           
       3.256911             0.00535933855            0.000444880172           
       3.259551             0.00632679159            0.000494050629           
       3.262191             0.00548853124            0.000464392223           
       3.264832              0.0050832852            0.000451112761           
       3.267472             0.00585075855            0.000490833998           
       3.270112             0.00600645302            0.000498737659           
       3.272753             0.00661863462            0.000529970746           
       3.275393             0.00494303367            0.000460356391           
       3.278034             0.00536223554            0.000489247322           
       3.280674              0.0064360868            0.000537557681           
       3.283314             0.00549564278             0.00049947811           
       3.285955             0.00675699599            0.000564242465           
       3.288595             0.00621838558            0.000547325845           
       3.291235             0.00542370543            0.000514160715           
       3.293876              0.0058775596            0.000538410223           
       3.296516              0.0065363363             0.00057936318           
       3.299157              0.0055529941            0.000542078647           
       3.301797             0.00599503441             0.00056348071           
       3.304437             0.00518559335            0.000533885047           
       3.307078             0.00629006834            0.000593710644           
       3.309718             0.00504113256             0.00053681536           
       3.312359             0.00601636839            0.000598295603           
       3.314999             0.00523771729            0.000564094492           
       3.317639             0.00541654715            0.000579820508           
       3.320280             0.00576615704             0.00060697627           
       3.322920             0.00483877402             0.00056434653           
       3.325560             0.00474827096            0.000569838905           
       3.328201             0.00603693282            0.000645244807           
       3.330841             0.00459802051            0.000576816658           
       3.333482             0.00531186949            0.000627849568           
       3.336122              0.0064439832            0.000706556978           
       3.338762             0.00577338378            0.000674899895           
       3.341403             0.00596591952            0.000692425725           
       3.344043             0.00551489656            0.000691147141           
       3.346683             0.00560661678            0.000703938813           
       3.349324               0.005235607            0.000690779415           
       3.351964             0.00548091721            0.000729498919           
       3.354605              0.0053208235            0.000726905085           
       3.357245             0.00559705269            0.000771740189           
       3.359885             0.00472402439            0.000709256879           
       3.362526             0.00523197344             0.00078457988           
       3.365166             0.00476917381            0.000739827907           
       3.367807             0.00571836559            0.000867196483           
       3.370447             0.00651131806            0.000925730027           
       3.373087             0.00606719568            0.000943105614           
       3.375728             0.00611772813            0.000939866115           
       3.378368             0.00517608628            0.000934171281           
       3.381008             0.00606172178             0.00100212142           
       3.383649             0.00577237066             0.00105832251           
       3.386289              0.0042108759            0.000904286858           
       3.388930             0.00298632637            0.000836351127           
       3.391570             0.00486597911             0.00106803921           
       3.394210             0.00395266014             0.00103140713           
       3.396851             0.00433510009             0.00117005974           
       3.399491               0.004495467             0.00121312989           
       3.402131             0.00406002701             0.00136468419           
       3.404772             0.00754336973             0.00186095763           
       3.407412             0.00607086525             0.00207160422           
       3.410053             0.00724709874             0.00235684146           
       3.412693             0.00435795015             0.00258574943           
       3.415333             0.00627640558             0.00380209559           
