################################################################################
# EDF_DataBlockID                     0.Image.Psd
# EDF_BinarySize                      2105344
# EDF_HeaderSize                      2560
# ByteOrder                           LowByteFirst
# DataType                            FloatValue
# Dim_1                               512
# Dim_2                               1028
# Image                               0
# HeaderID                            EH:000000:000000:000000
# Size                                2105344
# Center_1                            304.9000
# Center_2                            588.7000
# Comment                             Xenocs_Cell_Window - front_window_open_only
# DDummy                              0.6
# Date                                2025-10-19T09:44:43
# Delta                               21.910000
# Dummy                               -1.5
# ExposureTime                        360
# Gamma                               15.360000
# Intensity1                          8.95119e-10
# PSize_1                             7.5e-05
# PSize_2                             7.5e-05
# Pressure                            0.0330486
# SampleDistance                      0.115750
# SampleEnvKind                       large
# SampleEnvPN                         ElectroChemical cell
# SampleEnvSN                         1141
# Thickness                           0
# Wavelength                          1.541891e-10
# Wavelength                          1.54189e-10
# aux                                 0
# aux_dial                            0.002375
# beamx                               588.429
# beamx_dial                          588.429
# beamz                               657.855
# beamz_dial                          657.855
# det0x                               -0.000396875
# det0x_dial                          6.36905
# det0xvd                             -0.0005
# det0xvd_dial                        -0.0005
# det0y                               450.002
# det0y_dial                          481.635
# det0z                               0
# det0z_dial                          1.2295
# det0zvd                             0
# det0zvd_dial                        0
# mag                                 1.818
# mag_dial                            1.818
# om                                  0.2499
# om_dial                             -0.610199
# phi                                 -0.0120535
# phi_dial                            0
# ry                                  0.599993
# ry_dial                             0.599993
# s1bot                               0.8
# s1bot_dial                          -1.66094
# s1hl                                0.8
# s1hl_dial                           -0.608437
# s1hr                                0.8
# s1hr_dial                           0.970938
# s1top                               0.8
# s1top_dial                          -0.461562
# s2bot                               0.45
# s2bot_dial                          1.36109
# s2hl                                0.45
# s2hl_dial                           -0.83375
# s2hr                                0.45
# s2hr_dial                           -0.118594
# s2top                               0.45
# s2top_dial                          1.44734
# w2theta                             32
# w2theta_dial                        32
# waxsch                              19.2605
# waxsch_dial                         -32.7238
# waxsh                               137.085
# waxsh_dial                          -43.5335
# waxsth                              26.0607
# waxsth_dial                         -19.4068
# waxsz                               67.0407
# waxsz_dial                          -23.7962
# wind                                65.9854
# wind_dial                           66.0041
# wpsi                                124
# wpsi_dial                           124
# wstod                               115
# wstod_dial                          115
# x                                   0
# x_dial                              1.00969
# z                                   0
# z_dial                              13.3172
# CountCutoff                         6807993
# DetectorModel                       Dectris EIGER2 Si 500K, S/N E-01-0554
# ThresholdSetting                    4023.88989258
# Saturation                          0
# FlatField                           Corrected
# BackgroundReductionExtra            0.02
# BackgroundCorrectionConstant        0.0026712
# Detector                            0
# Monitor                             0
# Pil_Roi0                            0
# SumForIntensity1                    3.22243e+08
# TransmittedFlux                     895119
# det                                 0
# mon                                 0
# pilai0                              3.22243e+08
# pilai1                              697175
# pilct0                              5.57722e+08
# pilct1                              697175
# pilroi0                             0
# pilroi1                             0
# sec                                 1
# title                               20251017__1_00360.edf
# usaxs0                              0
# Operation                           Azimuthal average I(q)
# Error_model                         ErrorModel.poisson
# Geometrical_correction              True
# Transmission_correction             True
# Thickness_correction                False
# Binning mode                        Uniform
# Binning factor                      1.0
# Psi                                 0.0
# Omega                               0.2499
# MaskInvalidPixels                   True
# DetectorEdge                        3
# MaskFiles                           ['20251017__1_00233_mask.edf']
################################################################################
    q(A⁻¹)                Intensity(a.u.)            Sigma_I(a.u.)            
       0.690460             0.00770467183             0.00808987073           
       0.693100             0.00619260775             0.00324256762           
       0.695741              0.0127503481             0.00393078598           
       0.698381             0.00400501452              0.0020604714           
       0.701021             0.00824580847             0.00241293727           
       0.703662             0.00815596388             0.00222131114           
       0.706302              0.0071718024             0.00201169324           
       0.708942             0.00563209032             0.00158353013           
       0.711583             0.00431339611             0.00138554824           
       0.714223             0.00597072042             0.00142052726           
       0.716864             0.00695077945             0.00156402851           
       0.719504             0.00982159182              0.0017206626           
       0.722144             0.00775456372             0.00147662139           
       0.724785             0.00698380984             0.00137835021           
       0.727425             0.00555151114               0.001139874           
       0.730065             0.00659421535              0.0012782752           
       0.732706             0.00751995315             0.00122751898           
       0.735346             0.00858683159             0.00141686822           
       0.737987              0.0049967171            0.000935498967           
       0.740627             0.00560708438              0.0010856186           
       0.743267             0.00752919205             0.00108210261           
       0.745908             0.00726060365             0.00113884278           
       0.748548             0.00743676044             0.00107497784           
       0.751189             0.00559716598            0.000923805901           
       0.753829             0.00615281441            0.000977312946           
       0.756469             0.00569444844            0.000884306073           
       0.759110             0.00492509558            0.000850643719           
       0.761750             0.00597777326            0.000857685891           
       0.764390             0.00548634119            0.000882022616           
       0.767031             0.00737072902            0.000925095121           
       0.769671             0.00516437395            0.000821228791           
       0.772312              0.0077499766            0.000916751742           
       0.774952             0.00431461005            0.000733311738           
       0.777592             0.00570350323            0.000771158744           
       0.780233             0.00562455632            0.000807316681           
       0.782873             0.00664798992            0.000802608475           
       0.785513             0.00588716768            0.000803445027           
       0.788154             0.00496591587             0.00067777832           
       0.790794             0.00677632063            0.000819432649           
       0.793435             0.00599385485            0.000740222589           
       0.796075             0.00623937334            0.000759220974           
       0.798715             0.00752465522            0.000829000145           
       0.801356              0.0056701418            0.000700369834           
       0.803996             0.00692841101            0.000786561485           
       0.806637             0.00698006179            0.000746274508           
       0.809277             0.00729425251            0.000798102663           
       0.811917             0.00644616448            0.000709975879           
       0.814558             0.00675217177            0.000744388057           
       0.817198             0.00702887606            0.000724171915           
       0.819838             0.00678636939            0.000742243436           
       0.822479             0.00652104385            0.000670512645           
       0.825119             0.00648830656            0.000718492485           
       0.827760             0.00591518564            0.000635673765           
       0.830400             0.00656828553             0.00070576944           
       0.833040             0.00774468705             0.00071524201           
       0.835681             0.00554187687            0.000633599208           
       0.838321              0.0070089148            0.000666927783           
       0.840961             0.00772040769            0.000731629249           
       0.843602              0.0077813124            0.000691878733           
       0.846242             0.00661898293            0.000660644953           
       0.848883             0.00687137493            0.000654797315           
       0.851523             0.00706026726            0.000668710635           
       0.854163             0.00744594027            0.000678754013           
       0.856804             0.00784029188             0.00067867492           
       0.859444             0.00556774102            0.000576031896           
       0.862085             0.00558164756            0.000568361183           
       0.864725             0.00713629637            0.000640298171           
       0.867365             0.00641003922            0.000602496861           
       0.870006             0.00595231792            0.000588687703           
       0.872646             0.00587561412            0.000559427842           
       0.875286              0.0069022914            0.000626996849           
       0.877927             0.00798909759            0.000645858964           
       0.880567             0.00697782046            0.000615391055           
       0.883208             0.00752612413             0.00062065441           
       0.885848              0.0068980901            0.000609603842           
       0.888488             0.00609735613            0.000544944829           
       0.891129             0.00636326205            0.000585191821           
       0.893769               0.006069247            0.000540221339           
       0.896410             0.00767725421            0.000626301031           
       0.899050             0.00708007235            0.000579914924           
       0.901690             0.00654341277             0.00056914064           
       0.904331             0.00696731248            0.000566782722           
       0.906971             0.00639996538            0.000560922785           
       0.909611             0.00752172629             0.00058367112           
       0.912252             0.00633062558            0.000544745686           
       0.914892             0.00727077929            0.000569008952           
       0.917533             0.00633378122            0.000543063554           
       0.920173             0.00686764677            0.000542443249           
       0.922813             0.00702811083            0.000573447077           
       0.925454             0.00695459109            0.000541381352           
       0.928094               0.007339819            0.000568111463           
       0.930734              0.0063691319            0.000516583556           
       0.933375             0.00774605238            0.000581837066           
       0.936015             0.00786764399            0.000561063817           
       0.938656             0.00700417963            0.000551586454           
       0.941296             0.00695629857            0.000529907127           
       0.943936             0.00703330019            0.000542428085           
       0.946577             0.00721023674            0.000528921859           
       0.949217             0.00660066614            0.000523942531           
       0.951858              0.0060288039            0.000473383267           
       0.954498             0.00848667105            0.000590880537           
       0.957138             0.00634577984            0.000491093209           
       0.959779              0.0069431747            0.000524925095           
       0.962419             0.00680330071            0.000500226992           
       0.965059              0.0065037409            0.000502982465           
       0.967700             0.00782924841            0.000534016899           
       0.970340             0.00644193384            0.000498010293           
       0.972981             0.00753783281            0.000520138078           
       0.975621             0.00838314145            0.000560013197           
       0.978261             0.00694929468            0.000486486375           
       0.980902             0.00822753808            0.000554545319           
       0.983542             0.00790605377            0.000527774972           
       0.986182             0.00814244234            0.000542660561           
       0.988823              0.0077246444            0.000511500836           
       0.991463             0.00774852894            0.000524527064           
       0.994104             0.00768900585            0.000504896128           
       0.996744             0.00741891858              0.0005120323           
       0.999384             0.00747186212            0.000496415592           
       1.002025             0.00665744284            0.000481627691           
       1.004665             0.00734641908            0.000485211827           
       1.007306             0.00777437236            0.000515869749           
       1.009946             0.00810033702            0.000506316945           
       1.012586             0.00750363097            0.000501329242           
       1.015227               0.006687313            0.000458948764           
       1.017867             0.00751018438            0.000500304171           
       1.020507             0.00750728341            0.000481376914           
       1.023148             0.00750219089            0.000487025941           
       1.025788             0.00728482323            0.000475004317           
       1.028429             0.00797122858            0.000507741193           
       1.031069             0.00724324516            0.000466311101           
       1.033709             0.00757378711            0.000485988919           
       1.036350             0.00770125107            0.000477210991           
       1.038990             0.00736591696            0.000478227751           
       1.041630             0.00686870879            0.000452920852           
       1.044271             0.00753111449            0.000474310951           
       1.046911             0.00735395683            0.000459990697           
       1.049552             0.00816009216            0.000502009081           
       1.052192             0.00741409555            0.000456994325           
       1.054832             0.00752727242             0.00046942392           
       1.057473             0.00784976951            0.000473305691           
       1.060113             0.00860505408            0.000500919154           
       1.062754             0.00779259304            0.000471413205           
       1.065394             0.00745760711            0.000456317301           
       1.068034             0.00823096149            0.000477537884           
       1.070675             0.00746493497             0.00046277287           
       1.073315             0.00676995538            0.000427233896           
       1.075955             0.00852576356            0.000487486679           
       1.078596             0.00832229581            0.000480682601           
       1.081236             0.00880953422            0.000487218261           
       1.083877             0.00736729633            0.000459473419           
       1.086517             0.00758651766            0.000455711937           
       1.089157             0.00787796089            0.000467787477           
       1.091798             0.00851140965            0.000475928849           
       1.094438             0.00815360529            0.000473221117           
       1.097078             0.00803637276            0.000457733947           
       1.099719             0.00937485089            0.000507055562           
       1.102359             0.00883908294            0.000466415928           
       1.105000              0.0084809874            0.000474863586           
       1.107640             0.00838629553            0.000456812437           
       1.110280             0.00876592401            0.000476389157           
       1.112921             0.00773549795            0.000439417074           
       1.115561             0.00696899579            0.000422371584           
       1.118202             0.00783879917            0.000434880603           
       1.120842             0.00724044211              0.0004311221           
       1.123482             0.00792661248            0.000438434508           
       1.126123             0.00843969731            0.000455225203           
       1.128763             0.00797067373            0.000440200917           
       1.131403             0.00811712034             0.00044353589           
       1.134044             0.00852396559            0.000453726524           
       1.136684             0.00754785141            0.000430166501           
       1.139325             0.00821087578            0.000436021109           
       1.141965             0.00907977128            0.000464508112           
       1.144605             0.00817131381            0.000443246497           
       1.147246             0.00862576155            0.000446780471           
       1.149886             0.00882868662            0.000455219888           
       1.152527             0.00841488077            0.000444868971           
       1.155167             0.00896125658            0.000452629721           
       1.157807             0.00901452683            0.000454285808           
       1.160448             0.00843954288            0.000445573169           
       1.163088             0.00880980759            0.000438353124           
       1.165728             0.00778172001            0.000428963567           
       1.168369             0.00926219175            0.000451286033           
       1.171009             0.00866138845             0.00044002221           
       1.173650             0.00880063323            0.000440346654           
       1.176290             0.00925061953            0.000456761366           
       1.178930             0.00870663173            0.000430671016           
       1.181571             0.00860147924            0.000442043632           
       1.184211             0.00887740649            0.000435514974           
       1.186851               0.008650926            0.000433887782           
       1.189492             0.00893963084            0.000443517623           
       1.192132             0.00937158432            0.000447380953           
       1.194773             0.00881026346            0.000431158913           
       1.197413             0.00858381113             0.00042905339           
       1.200053             0.00931827896            0.000444219904           
       1.202694              0.0117273794             0.00049459023           
       1.205334             0.00877449461            0.000432491764           
       1.207975             0.00889052753            0.000426812045           
       1.210615             0.00905063861            0.000439744504           
       1.213255             0.00922036363             0.00043210644           
       1.215896             0.00908666269            0.000437093104           
       1.218536             0.00977994087             0.00044040016           
       1.221176             0.00969736873            0.000449004421           
       1.223817             0.00909608897            0.000425800091           
       1.226457             0.00920968306             0.00043389262           
       1.229098              0.0086271691            0.000413575663           
       1.231738             0.00883509076            0.000424423288           
       1.234378             0.00882274678            0.000415885761           
       1.237019             0.00948870897            0.000434775075           
       1.239659             0.00904966671            0.000424367706           
       1.242299             0.00931607265            0.000428367502           
       1.244940              0.0097205959            0.000432845735           
       1.247580             0.00931757766            0.000425648976           
       1.250221             0.00924410134            0.000430887961           
       1.252861             0.00948174555             0.00042013297           
       1.255501              0.0100651468            0.000445086776           
       1.258142             0.00971010704            0.000428523522           
       1.260782             0.00972724649            0.000433746283           
       1.263423             0.00922533998            0.000414039207           
       1.266063              0.0102246395            0.000444011716           
       1.268703              0.0100919376            0.000430006924           
       1.271344             0.00961377133            0.000428837216           
       1.273984             0.00986860666            0.000427701087           
       1.276624              0.0102403447            0.000433023812           
       1.279265             0.00921579489            0.000411687861           
       1.281905              0.0101526823            0.000434771184           
       1.284546              0.0103391126            0.000433951771           
       1.287186             0.00994763214            0.000426065837           
       1.289826               0.009670813             0.00042227429           
       1.292467              0.0103572104            0.000429203455           
       1.295107              0.0102266557            0.000434007271           
       1.297747             0.00963226312            0.000410157786           
       1.300388             0.00981273091            0.000424613009           
       1.303028              0.0096800334            0.000411007909           
       1.305669              0.0100545325            0.000424294916           
       1.308309              0.0104027317            0.000425090039           
       1.310949              0.0103867996            0.000430058643           
       1.313590             0.00978350525            0.000410922992           
       1.316230             0.00977536576            0.000418145577           
       1.318871              0.0108902198            0.000431824725           
       1.321511              0.0105737123            0.000427635625           
       1.324151              0.0099768007            0.000417031147           
       1.326792              0.0101121726            0.000416449867           
       1.329432              0.0106060316            0.000428722691           
       1.332072              0.0103526084            0.000416306529           
       1.334713              0.0102740432            0.000419867216           
       1.337353              0.0103799882            0.000415534726           
       1.339994             0.00960149407            0.000405341024           
       1.342634              0.0107952043            0.000420124322           
       1.345274              0.0105203011            0.000420162549           
       1.347915              0.0110675938            0.000432098667           
       1.350555             0.00995076077            0.000408116773           
       1.353195              0.0105507077            0.000412200363           
       1.355836              0.0110189073            0.000429195059           
       1.358476              0.0104536404            0.000416865605           
       1.361117               0.010989312            0.000416690766           
       1.363757              0.0104377295            0.000419557144           
       1.366397              0.0107110694            0.000411779924           
       1.369038              0.0110346459            0.000426762768           
       1.371678              0.0116675921            0.000429970696           
       1.374319              0.0106693207            0.000414426456           
       1.376959              0.0105843842            0.000407090951           
       1.379599              0.0109498132            0.000422129612           
       1.382240              0.0102106409            0.000399890249           
       1.384880               0.011071306            0.000421515473           
       1.387520              0.0105811544            0.000407261173           
       1.390161              0.0108515028            0.000411310147           
       1.392801              0.0102921959            0.000402957549           
       1.395442              0.0103244119             0.00039940598           
       1.398082              0.0110314383            0.000414268236           
       1.400722              0.0106990051            0.000406135407           
       1.403363              0.0106730372            0.000409406511           
       1.406003              0.0108695032            0.000403012298           
       1.408644               0.010152589            0.000397671919           
       1.411284              0.0108682225            0.000409192325           
       1.413924              0.0106152052            0.000399413433           
       1.416565              0.0106398546            0.000399406828           
       1.419205              0.0106668704            0.000403852924           
       1.421845              0.0103534367             0.00039287332           
       1.424486              0.0104534564            0.000396509232           
       1.427126              0.0106519511            0.000400003535           
       1.429767              0.0102232405            0.000385832688           
       1.432407              0.0117502765            0.000424066274           
       1.435047              0.0108903536            0.000395985931           
       1.437688              0.0106627252            0.000400502594           
       1.440328               0.010396487            0.000387807175           
       1.442968              0.0109153853            0.000402867983           
       1.445609             0.00996272072            0.000378555438           
       1.448249              0.0107964085            0.000396624205           
       1.450890              0.0108409522            0.000394606396           
       1.453530              0.0101041007            0.000383781694           
       1.456170             0.00982139615            0.000377522798           
       1.458811              0.0103372803            0.000384229531           
       1.461451               0.009663027            0.000374218252           
       1.464092               0.010311641            0.000383204033           
       1.466732              0.0103920515            0.000382335699           
       1.469372              0.0104314025            0.000381881416           
       1.472013              0.0103618537            0.000387415628           
       1.474653             0.00980943011            0.000367639523           
       1.477293              0.0107952984            0.000392163315           
       1.479934              0.0106533198            0.000385498454           
       1.482574               0.011087266            0.000392300845           
       1.485215              0.0105959313            0.000384497431           
       1.487855              0.0101934674            0.000377046681           
       1.490495              0.0108112851            0.000387469078           
       1.493136              0.0099625034            0.000367070566           
       1.495776                0.01008031            0.000375671957           
       1.498416             0.00995213882            0.000366024288           
       1.501057             0.00984422001            0.000367165508           
       1.503697              0.0103609972            0.000373057849           
       1.506338              0.0100824809            0.000370715941           
       1.508978              0.0103911488            0.000374125678           
       1.511618              0.0103542511            0.000373272112           
       1.514259             0.00987221173             0.00036513804           
       1.516899              0.0102941702              0.0003730334           
       1.519540              0.0108111664            0.000380164481           
       1.522180              0.0104195198             0.00036855419           
       1.524820             0.00986264293            0.000365812407           
       1.527461             0.00985248395            0.000357535665           
       1.530101              0.0104756414            0.000372480948           
       1.532741              0.0101732233            0.000365325952           
       1.535382              0.0112261917            0.000384611998           
       1.538022              0.0103464382            0.000365967476           
       1.540663             0.00951356469             0.00035424517           
       1.543303              0.0100467901             0.00035950718           
       1.545943              0.0104155411            0.000368096732           
       1.548584             0.00980574533             0.00035906068           
       1.551224               0.010030886            0.000353848964           
       1.553864              0.0103003132            0.000367936685           
       1.556505             0.00970086193            0.000351576927           
       1.559145               0.010445034            0.000365656229           
       1.561786             0.00943695464            0.000345988803           
       1.564426             0.00965836627             0.00034970794           
       1.567066             0.00982460318            0.000349951731           
       1.569707             0.00908035809            0.000341306475           
       1.572347             0.00954859143            0.000345454771           
       1.574988             0.00946965449            0.000342662923           
       1.577628              0.0101471772            0.000362695584           
       1.580268             0.00941281344            0.000337269636           
       1.582909             0.00925256667            0.000340640804           
       1.585549             0.00916196304            0.000335801107           
       1.588189              0.0091132418            0.000338647637           
       1.590830             0.00925624059            0.000335435685           
       1.593470             0.00946531115            0.000341972799           
       1.596111             0.00922716748             0.00033472595           
       1.598751             0.00933904573            0.000340191593           
       1.601391             0.00889301416            0.000329845997           
       1.604032             0.00879598007            0.000325302116           
       1.606672             0.00905988705            0.000336790868           
       1.609312             0.00867427229            0.000319739857           
       1.611953             0.00925578474            0.000335070084           
       1.614593             0.00867778911            0.000321971793           
       1.617234             0.00827798437            0.000316249887           
       1.619874             0.00868194218            0.000320064193           
       1.622514              0.0086828146            0.000322911112           
       1.625155             0.00878143941             0.00032393675           
       1.627795             0.00880477261            0.000321089056           
       1.630436             0.00906231758            0.000329025497           
       1.633076             0.00945663108            0.000334399804           
       1.635716             0.00874662263            0.000321040608           
       1.638357             0.00882888597            0.000321176388           
       1.640997             0.00871287185            0.000321554397           
       1.643637             0.00847607943            0.000311265549           
       1.646278             0.00882471736             0.00032235652           
       1.648918             0.00937860061            0.000328034654           
       1.651559             0.00835766666            0.000313559282           
       1.654199              0.0085072505            0.000312016506           
       1.656839             0.00845128688            0.000310904803           
       1.659480             0.00924448709            0.000328031545           
       1.662120             0.00833346633            0.000307275542           
       1.664761              0.0092171923            0.000326656556           
       1.667401             0.00828257342            0.000306767894           
       1.670041             0.00816689319             0.00030496669           
       1.672682             0.00866704295            0.000311209934           
       1.675322             0.00817066643            0.000307509374           
       1.677962             0.00870291006            0.000311064159           
       1.680603              0.0083314027            0.000307053554           
       1.683243             0.00844627906            0.000306876087           
       1.685884             0.00882539367            0.000314881312           
       1.688524             0.00868008208            0.000311399674           
       1.691164                0.00841757            0.000305866495           
       1.693805             0.00909508067            0.000320508587           
       1.696445             0.00842396358            0.000304175816           
       1.699085             0.00830936782            0.000303305897           
       1.701726             0.00865668991            0.000305553056           
       1.704366             0.00875602226            0.000314778437           
       1.707007             0.00809519098            0.000296208291           
       1.709647              0.0085671863            0.000308507446           
       1.712287             0.00865298008            0.000304866821           
       1.714928              0.0083666522            0.000302794744           
       1.717568             0.00861666303            0.000304459794           
       1.720209              0.0088751778             0.00031090127           
       1.722849             0.00875693428            0.000309318428           
       1.725489             0.00812720398            0.000293239463           
       1.728130             0.00818966833            0.000300356539           
       1.730770              0.0076773476            0.000284663121           
       1.733410             0.00815502536            0.000297236704           
       1.736051             0.00885352249             0.00030489751           
       1.738691             0.00805438683            0.000293780192           
       1.741332             0.00861618396            0.000301982692           
       1.743972             0.00864364434            0.000302575716           
       1.746612             0.00862085536              0.0003022461           
       1.749253             0.00851027126            0.000301599094           
       1.751893             0.00789148823            0.000288685117           
       1.754533             0.00809910481             0.00028844403           
       1.757174             0.00860344811            0.000302847639           
       1.759814             0.00879855176            0.000301593149           
       1.762455             0.00845029891            0.000298080525           
       1.765095             0.00823054772            0.000290047947           
       1.767735              0.0085894891            0.000301339995           
       1.770376             0.00843122347            0.000294023324           
       1.773016             0.00870068435            0.000299156236           
       1.775657             0.00857369022            0.000297573399           
       1.778297             0.00860371615            0.000299552292           
       1.780937             0.00834379066            0.000293616159           
       1.783578             0.00845931106            0.000294253493           
       1.786218              0.0081087688            0.000292689496           
       1.788858             0.00888330843            0.000298738082           
       1.791499             0.00865632198            0.000300331696           
       1.794139             0.00865909313            0.000294832963           
       1.796780             0.00846308995            0.000293208926           
       1.799420             0.00904009423            0.000302653646           
       1.802060             0.00906197531            0.000299292746           
       1.804701             0.00870416093            0.000297259604           
       1.807341             0.00825409753            0.000286675387           
       1.809981             0.00932465388            0.000306723249           
       1.812622             0.00902191708            0.000300059327           
       1.815262             0.00848343513            0.000292004363           
       1.817903             0.00871469249            0.000292301188           
       1.820543             0.00855975961             0.00029327182           
       1.823183             0.00848498345            0.000287489065           
       1.825824              0.0080347107            0.000283964069           
       1.828464             0.00895318493            0.000298835718           
       1.831105              0.0083210844            0.000289208998           
       1.833745             0.00867530692            0.000295116234           
       1.836385             0.00834566949            0.000288329355           
       1.839026             0.00808960618            0.000288138877           
       1.841666             0.00855555362            0.000292473222           
       1.844306             0.00850731106            0.000295329415           
       1.846947             0.00887988375            0.000297849582           
       1.849587             0.00875336696            0.000299730961           
       1.852228             0.00857376193            0.000293485011           
       1.854868             0.00798930877            0.000288501398           
       1.857508             0.00822229562            0.000287273605           
       1.860149             0.00876087071            0.000298909704           
       1.862789             0.00791053766            0.000285290206           
       1.865429             0.00871584436            0.000300362678           
       1.868070             0.00784740964            0.000284021438           
       1.870710             0.00802532687            0.000288005276           
       1.873351             0.00889257478            0.000305103089           
       1.875991             0.00856975803            0.000301134163           
       1.878631             0.00793146923            0.000287010052           
       1.881272              0.0083487251            0.000293772983           
       1.883912             0.00882936457            0.000305654071           
       1.886553             0.00851069825            0.000296487908           
       1.889193             0.00842818556            0.000298455432           
       1.891833             0.00785830127            0.000284909036           
       1.894474             0.00823282907            0.000293927434           
       1.897114             0.00874111015            0.000300515617           
       1.899754             0.00832653723            0.000296591981           
       1.902395             0.00834107274            0.000296914031           
       1.905035              0.0082781549            0.000294632894           
       1.907676             0.00863402404            0.000301249049           
       1.910316             0.00856590426            0.000301971533           
       1.912956             0.00851165514            0.000301001837           
       1.915597              0.0082313589            0.000292918262           
       1.918237             0.00841224924            0.000300614352           
       1.920878             0.00871207832            0.000300510566           
       1.923518             0.00828834166            0.000300898942           
       1.926158             0.00853086327            0.000298254648           
       1.928799             0.00861454739            0.000303696693           
       1.931439             0.00823273787            0.000294511017           
       1.934079             0.00807628315            0.000294653153           
       1.936720             0.00824124115            0.000295895212           
       1.939360             0.00834750804            0.000300666927           
       1.942001             0.00875534154            0.000306739592           
       1.944641             0.00812220734            0.000294167612           
       1.947281             0.00792235194             0.00029192955           
       1.949922             0.00811209874            0.000295774574           
       1.952562             0.00787141918            0.000293860955           
       1.955202             0.00806868424            0.000290045259           
       1.957843             0.00779728422            0.000294183023           
       1.960483             0.00789672853            0.000291330774           
       1.963124             0.00847993398            0.000301673262           
       1.965764             0.00766548932            0.000286923268           
       1.968404             0.00797348153            0.000297863522           
       1.971045             0.00859141291            0.000301439606           
       1.973685             0.00862798796            0.000307717776           
       1.976326             0.00810939873            0.000297026051           
       1.978966             0.00832125407            0.000302304655           
       1.981606             0.00832678312            0.000299206968           
       1.984247             0.00798483074             0.00029555372           
       1.986887             0.00829624715            0.000304079557           
       1.989527             0.00775170494            0.000287807156           
       1.992168             0.00820913618            0.000303323124           
       1.994808             0.00805203318            0.000296912479           
       1.997449             0.00784352607            0.000292613255           
       2.000089             0.00786926175            0.000291367081           
       2.002729             0.00790127396            0.000298649198           
       2.005370             0.00768746841            0.000288980997           
       2.008010             0.00786610128            0.000296200251           
       2.010650             0.00748313359            0.000288073453           
       2.013291             0.00807787017            0.000301005813           
       2.015931             0.00800277464            0.000297459105           
       2.018572             0.00799246948            0.000301215569           
       2.021212             0.00781049199            0.000295094323           
       2.023852             0.00802592766            0.000300707839           
       2.026493             0.00761421359             0.00029160989           
       2.029133             0.00743565746            0.000285972132           
       2.031774             0.00794971412            0.000298559665           
       2.034414             0.00829514462            0.000303157141           
       2.037054             0.00737897741            0.000289531484           
       2.039695              0.0072746545            0.000281814963           
       2.042335             0.00719875874            0.000285112831           
       2.044975             0.00740956312            0.000286945468           
       2.047616             0.00755602144            0.000291009162           
       2.050256             0.00767098493             0.00028976556           
       2.052897             0.00772373856            0.000299371679           
       2.055537             0.00807532539             0.00029776386           
       2.058177             0.00752769471            0.000290029628           
       2.060818             0.00765875067            0.000293421676           
       2.063458             0.00789586074            0.000298339477           
       2.066098             0.00720337668            0.000283692242           
       2.068739             0.00718892394              0.0002863625           
       2.071379              0.0080547516            0.000298640654           
       2.074020             0.00693887977            0.000280979312           
       2.076660             0.00773941328            0.000294733706           
       2.079300             0.00760020572              0.0002920287           
       2.081941             0.00767177658            0.000295184209           
       2.084581             0.00766131712            0.000295201423           
       2.087222             0.00719242117            0.000286220041           
       2.089862             0.00732369292             0.00028522033           
       2.092502             0.00719422149            0.000287824391           
       2.095143              0.0072390938            0.000284594259           
       2.097783              0.0074885388            0.000293860608           
       2.100423             0.00747352503            0.000287936871           
       2.103064             0.00737734814            0.000291017494           
       2.105704              0.0075327894              0.0002929424           
       2.108345             0.00740468103            0.000291774127           
       2.110985             0.00759552634            0.000291359526           
       2.113625             0.00742218923            0.000292553683           
       2.116266             0.00737129176            0.000289390975           
       2.118906             0.00753264563            0.000292328434           
       2.121546             0.00745244853            0.000290537247           
       2.124187             0.00748060535            0.000295111777           
       2.126827             0.00750327243            0.000290923355           
       2.129468             0.00697236886            0.000283368829           
       2.132108              0.0081363465            0.000305475947           
       2.134748               0.007889723            0.000299676975           
       2.137389             0.00737049002            0.000292074084           
       2.140029             0.00731843482            0.000290334071           
       2.142670              0.0077975178            0.000300176116           
       2.145310             0.00722083825            0.000289966488           
       2.147950             0.00788540308            0.000304187683           
       2.150591             0.00746969793             0.00029334585           
       2.153231             0.00683795687            0.000284816627           
       2.155871             0.00729743632            0.000289980908           
       2.158512             0.00720400395            0.000293310231           
       2.161152              0.0070584522            0.000283079605           
       2.163793             0.00706361918            0.000287790979           
       2.166433              0.0074255584            0.000289955235           
       2.169073             0.00693873925            0.000286833509           
       2.171714             0.00711291333            0.000284498836           
       2.174354             0.00733281317              0.0002932772           
       2.176995             0.00710228094            0.000286236062           
       2.179635             0.00740705504            0.000297845132           
       2.182275             0.00737142794            0.000291229729           
       2.184916             0.00727665311            0.000295466899           
       2.187556             0.00724721227            0.000290121453           
       2.190196             0.00752069441            0.000300190144           
       2.192837             0.00807145781            0.000307582377           
       2.195477             0.00785854728            0.000306426134           
       2.198118             0.00683837819            0.000280568198           
       2.200758             0.00717210607            0.000291794895           
       2.203398             0.00746089922            0.000292676217           
       2.206039             0.00732572092            0.000294445513           
       2.208679             0.00717105931            0.000288469021           
       2.211319             0.00795543762             0.00030526638           
       2.213960             0.00712219113            0.000285766572           
       2.216600             0.00686476309            0.000287164906           
       2.219241             0.00742258983            0.000294263258           
       2.221881              0.0068782833             0.00028474507           
       2.224521             0.00733961911            0.000293119008           
       2.227162             0.00743848879            0.000299721554           
       2.229802             0.00703761194             0.00028680109           
       2.232443             0.00692744276            0.000285666057           
       2.235083             0.00761437077            0.000297698862           
       2.237723             0.00676791807            0.000282815511           
       2.240364             0.00745269392            0.000295268887           
       2.243004             0.00753660125            0.000297823442           
       2.245644              0.0074379257            0.000295184111           
       2.248285             0.00724647837            0.000293251812           
       2.250925             0.00721644815            0.000291275091           
       2.253566              0.0076332863            0.000300301856           
       2.256206             0.00692821908            0.000285239838           
       2.258846             0.00680288678            0.000282650573           
       2.261487             0.00753666883            0.000298018748           
       2.264127             0.00692989846            0.000288474331           
       2.266767             0.00745271953            0.000294323063           
       2.269408             0.00712007679            0.000291096435           
       2.272048             0.00691548047             0.00028511888           
       2.274689              0.0075625585            0.000299332304           
       2.277329             0.00717707283            0.000291216125           
       2.279969             0.00714742715            0.000291494889           
       2.282610             0.00694694182            0.000284575076           
       2.285250             0.00718136893            0.000293887341           
       2.287891              0.0074241532            0.000295798491           
       2.290531             0.00703427254            0.000289346657           
       2.293171             0.00772411165            0.000303187809           
       2.295812             0.00689808579            0.000284997185           
       2.298452             0.00662042882            0.000280990736           
       2.301092             0.00757393738            0.000302454325           
       2.303733              0.0071412793            0.000287879504           
       2.306373              0.0065708782            0.000282897482           
       2.309014             0.00703963242            0.000287171773           
       2.311654             0.00756012151            0.000300423133           
       2.314294             0.00718133798            0.000292161178           
       2.316935             0.00751628848            0.000300078319           
       2.319575             0.00699827381            0.000288468931           
       2.322215             0.00709399146            0.000294573607           
       2.324856             0.00712792313             0.00028786215           
       2.327496             0.00715863721            0.000295551732           
       2.330137             0.00742888833            0.000295526204           
       2.332777             0.00761630786            0.000302503565           
       2.335417             0.00743760656            0.000298036266           
       2.338058             0.00716107627            0.000293613739           
       2.340698             0.00676092663            0.000282483543           
       2.343339             0.00684155679            0.000289585597           
       2.345979             0.00700601024            0.000287197739           
       2.348619             0.00701109101            0.000292727477           
       2.351260             0.00730432709            0.000292435015           
       2.353900              0.0074216839            0.000301018972           
       2.356540             0.00739200747            0.000296284838           
       2.359181             0.00702410051            0.000292679666           
       2.361821             0.00734633679            0.000295670867           
       2.364462             0.00731468239            0.000299964019           
       2.367102             0.00720562626            0.000289110162           
       2.369742             0.00676856004            0.000290246501           
       2.372383             0.00702808339            0.000287136917           
       2.375023             0.00682087962            0.000290242539           
       2.377663             0.00667593509            0.000281040202           
       2.380304             0.00744985612            0.000301001977           
       2.382944             0.00731357082            0.000295318998           
       2.385585             0.00706946335            0.000293093553           
       2.388225             0.00713524272            0.000293123561           
       2.390865             0.00699340715            0.000290938666           
       2.393506             0.00669723583            0.000283399302           
       2.396146             0.00701685218            0.000291044391           
       2.398787             0.00741861254            0.000299522275           
       2.401427             0.00711708435            0.000291590771           
       2.404067             0.00741428007            0.000302159174           
       2.406708             0.00710993328            0.000292173486           
       2.409348              0.0067465247            0.000286749684           
       2.411988             0.00737592167            0.000298869631           
       2.414629             0.00739864034            0.000300308941           
       2.417269             0.00717715175            0.000293093601           
       2.419910             0.00786241238            0.000310635244           
       2.422550             0.00741686588             0.00029712554           
       2.425190             0.00682419359             0.00029398036           
       2.427831             0.00734297902            0.000293481323           
       2.430471             0.00742551225            0.000303752996           
       2.433112             0.00701771622             0.00028832661           
       2.435752             0.00687499094            0.000292604289           
       2.438392             0.00716653883            0.000293722782           
       2.441033             0.00713743905            0.000294469058           
       2.443673             0.00750972866            0.000302857803           
       2.446313             0.00688116093            0.000288361594           
       2.448954             0.00722877975            0.000298148909           
       2.451594              0.0065707012            0.000282548429           
       2.454235             0.00760377526            0.000303003908           
       2.456875             0.00676777487            0.000287310064           
       2.459515             0.00706720198            0.000294049711           
       2.462156             0.00748814412            0.000301119981           
       2.464796             0.00802135522            0.000317154024           
       2.467436             0.00768550519            0.000303933991           
       2.470077             0.00797601215            0.000313894559           
       2.472717             0.00791855839            0.000308848515           
       2.475358             0.00800572884            0.000314062129           
       2.477998             0.00731244649            0.000298554257           
       2.480638             0.00753973738              0.0003038953           
       2.483279             0.00736928319            0.000301731202           
       2.485919             0.00756402457            0.000303551555           
       2.488560             0.00691482703            0.000291436776           
       2.491200             0.00749597253            0.000303020385           
       2.493840             0.00705890878            0.000292452696           
       2.496481              0.0068405271            0.000291658082           
       2.499121             0.00673035394             0.00028544794           
       2.501761             0.00747409088            0.000305914313           
       2.504402              0.0070534935            0.000291486952           
       2.507042             0.00669241237            0.000288647887           
       2.509683             0.00693011943            0.000291054428           
       2.512323             0.00693186652             0.00029223091           
       2.514963              0.0149953071            0.000430667006           
       2.517604              0.0307290689            0.000614094284           
       2.520244              0.0230386723            0.000531843704           
       2.522884             0.00902712068            0.000332184123           
       2.525525             0.00925357094            0.000339087421           
       2.528165               0.017098318            0.000458823541           
       2.530806                0.01815509            0.000471015182           
       2.533446              0.0122461222            0.000390281006           
       2.536086              0.0105036356            0.000358416211           
       2.538727              0.0104387554            0.000359598193           
       2.541367              0.0100536259            0.000351893202           
       2.544008             0.00746317743            0.000303444413           
       2.546648             0.00699729235            0.000294154262           
       2.549288             0.00706373525            0.000295590079           
       2.551929             0.00740457684            0.000303637181           
       2.554569             0.00715695365            0.000295788991           
       2.557209              0.0071868704            0.000299755589           
       2.559850             0.00714337336             0.00029541062           
       2.562490             0.00688836092            0.000292201943           
       2.565131             0.00677185418            0.000290224395           
       2.567771             0.00660574044            0.000285123476           
       2.570411             0.00673544286            0.000291412586           
       2.573052             0.00710601616            0.000295827827           
       2.575692              0.0066431847            0.000286790416           
       2.578332              0.0066926884             0.00028700664           
       2.580973              0.0067340189            0.000290225708           
       2.583613             0.00677862011             0.00028853172           
       2.586254             0.00715209432            0.000298995605           
       2.588894              0.0069466107            0.000293097287           
       2.591534              0.0071212913            0.000297305396           
       2.594175             0.00677423729            0.000291653577           
       2.596815             0.00728570868            0.000299651358           
       2.599456             0.00668953504            0.000289479052           
       2.602096             0.00757777128            0.000306945757           
       2.604736              0.0070340139            0.000296503631           
       2.607377             0.00704194771            0.000295536294           
       2.610017             0.00720055062            0.000298741473           
       2.612657             0.00714219934            0.000299630276           
       2.615298             0.00673897012            0.000288202279           
       2.617938             0.00663109217            0.000288387158           
       2.620579             0.00702551508            0.000294415253           
       2.623219             0.00674260975            0.000293040177           
       2.625859             0.00716607988            0.000297010695           
       2.628500             0.00676213767            0.000293129361           
       2.631140              0.0066430421            0.000285413102           
       2.633780             0.00693400315            0.000295341862           
       2.636421             0.00686705403            0.000291238102           
       2.639061             0.00760076994            0.000310065577           
       2.641702             0.00739206508            0.000302510219           
       2.644342             0.00746652186            0.000306523908           
       2.646982             0.00717777681            0.000300283381           
       2.649623             0.00754434389            0.000309701153           
       2.652263             0.00726983106            0.000301595332           
       2.654904             0.00671356263             0.00029140078           
       2.657544             0.00605551744            0.000274804277           
       2.660184              0.0070015024            0.000295868436           
       2.662825             0.00760444193             0.00030908392           
       2.665465             0.00730423857            0.000303481833           
       2.668105             0.00694661498            0.000296076381           
       2.670746             0.00702021011            0.000295122173           
       2.673386              0.0071926631            0.000302345467           
       2.676027             0.00738439189            0.000303744369           
       2.678667             0.00661097622            0.000288892047           
       2.681307             0.00744665386            0.000304196918           
       2.683948             0.00777198886            0.000313857226           
       2.686588             0.00752601752            0.000306016549           
       2.689229             0.00798660383             0.00031807073           
       2.691869             0.00748301095            0.000304806428           
       2.694509             0.00802708501            0.000320022296           
       2.697150             0.00769578998            0.000308347545           
       2.699790             0.00691954017            0.000298456721           
       2.702430             0.00728282623            0.000300320633           
       2.705071             0.00645986756            0.000286715006           
       2.707711             0.00668425683            0.000288760045           
       2.710352             0.00691747319            0.000295426335           
       2.712992             0.00672124852            0.000292152875           
       2.715632             0.00645676725            0.000284718253           
       2.718273             0.00693723887            0.000296101394           
       2.720913             0.00698017818            0.000297512255           
       2.723553             0.00730370253             0.00030327136           
       2.726194             0.00699100902            0.000298139339           
       2.728834             0.00680631562            0.000291559743           
       2.731475             0.00692161672            0.000296588572           
       2.734115             0.00639941209            0.000283481739           
       2.736755             0.00709627064            0.000300491071           
       2.739396             0.00652629983            0.000286646974           
       2.742036              0.0078189702            0.000315895075           
       2.744677             0.00678252169            0.000294644385           
       2.747317              0.0078145383             0.00031473077           
       2.749957             0.00733867029            0.000307210084           
       2.752598             0.00682983815            0.000297260942           
       2.755238             0.00710737517            0.000303103873           
       2.757878             0.00700579552            0.000300073263           
       2.760519             0.00713851973             0.00029970415           
       2.763159             0.00728609713            0.000307709508           
       2.765800             0.00672173866            0.000290545651           
       2.768440             0.00675898421            0.000295187585           
       2.771080             0.00684045948            0.000294458903           
       2.773721              0.0067481625            0.000296053557           
       2.776361             0.00706414873            0.000299652384           
       2.779001             0.00674890489            0.000295968693           
       2.781642             0.00707441883            0.000300954574           
       2.784282              0.0066914901            0.000292798243           
       2.786923             0.00685971965             0.00029420134           
       2.789563              0.0069287006            0.000296270837           
       2.792203             0.00677079884            0.000294739734           
       2.794844             0.00681892849            0.000294439569           
       2.797484             0.00663220601            0.000290789418           
       2.800125             0.00670626436            0.000292030586           
       2.802765             0.00713538528            0.000306813163           
       2.805405              0.0065692839            0.000290141302           
       2.808046             0.00747859098            0.000314317931           
       2.810686             0.00727381346            0.000306681723           
       2.813326              0.0066858468            0.000297663257           
       2.815967             0.00678715072            0.000298019835           
       2.818607             0.00631431323            0.000290324901           
       2.821248             0.00678947084            0.000297296614           
       2.823888             0.00677954351            0.000301864175           
       2.826528             0.00672510801            0.000298856103           
       2.829169             0.00678284458            0.000298811169           
       2.831809             0.00640284635            0.000290574686           
       2.834449             0.00721715897            0.000303114626           
       2.837090              0.0065214745             0.00028986942           
       2.839730             0.00677118615            0.000293269393           
       2.842371             0.00661371488            0.000291858622           
       2.845011             0.00736670352            0.000307338315           
       2.847651             0.00653428419            0.000289985283           
       2.850292             0.00644943211            0.000286459381           
       2.852932             0.00692062704            0.000297271398           
       2.855573             0.00667940357            0.000294609549           
       2.858213             0.00683470264            0.000294670965           
       2.860853             0.00680535928            0.000296238576           
       2.863494             0.00684787093            0.000297877936           
       2.866134             0.00729791501            0.000311823849           
       2.868774             0.00717145267            0.000304378587           
       2.871415             0.00737662314            0.000311757278           
       2.874055             0.00654774815            0.000295175109           
       2.876696             0.00689555602             0.00030018572           
       2.879336             0.00683057912            0.000300751281           
       2.881976              0.0072372275            0.000309319465           
       2.884617             0.00696309568            0.000301719249           
       2.887257             0.00683531079            0.000296853545           
       2.889897              0.0065426541            0.000293757994           
       2.892538             0.00710901201            0.000304085479           
       2.895178             0.00714899873            0.000301829799           
       2.897819             0.00642027376            0.000288974921           
       2.900459             0.00705864426            0.000300492263           
       2.903099             0.00721689447            0.000305428493           
       2.905740             0.00699480842            0.000297335835           
       2.908380              0.0067071457             0.00029503902           
       2.911021             0.00648327692            0.000290624807           
       2.913661              0.0066721173            0.000291582471           
       2.916301              0.0065900505            0.000293906136           
       2.918942             0.00710746852            0.000300621424           
       2.921582             0.00701874788            0.000301873526           
       2.924222             0.00666690927            0.000292503567           
       2.926863             0.00652721247            0.000290191584           
       2.929503             0.00662521851            0.000295607573           
       2.932144             0.00770688704            0.000313597819           
       2.934784             0.00705816975            0.000301384789           
       2.937424                0.00692786            0.000299141979           
       2.940065             0.00728595423            0.000307025431           
       2.942705             0.00685448662            0.000298700686           
       2.945346             0.00696921527            0.000299411134           
       2.947986             0.00785345819            0.000318949962           
       2.950626             0.00828974136            0.000328697098           
       2.953267              0.0104122253             0.00036446749           
       2.955907              0.0094617074            0.000352026956           
       2.958547             0.00800749604            0.000320526083           
       2.961188             0.00764137135            0.000315846099           
       2.963828             0.00705716484            0.000301812223           
       2.966469             0.00719704432            0.000304864556           
       2.969109             0.00715453945            0.000305517536           
       2.971749             0.00770292716            0.000316077744           
       2.974390               0.009029438            0.000343151941           
       2.977030             0.00908825615            0.000343612588           
       2.979670             0.00860617151             0.00033221922           
       2.982311             0.00685462086            0.000298630716           
       2.984951             0.00727290317            0.000308402675           
       2.987592             0.00727212363             0.00030734527           
       2.990232             0.00741877135             0.00031122141           
       2.992872             0.00835538572             0.00032769934           
       2.995513             0.00883288367            0.000339579656           
       2.998153              0.0109406112            0.000380368099           
       3.000794              0.0194575262            0.000499874557           
       3.003434              0.0380075563            0.000706046017           
       3.006074              0.0277658817            0.000605412203           
       3.008715              0.0180056989            0.000491241359           
       3.011355              0.0183447157            0.000501001031           
       3.013995              0.0171310301            0.000481776778           
       3.016636              0.0284703599            0.000622248886           
       3.019276               0.139168481             0.00140862226           
       3.021917               0.424936323             0.00241967616           
       3.024557                0.15393325             0.00146796245           
       3.027197              0.0849591286             0.00110887449           
       3.029838               0.101437406              0.0012058539           
       3.032478              0.0893629045             0.00113857502           
       3.035118               0.052944731            0.000880894982           
       3.037759              0.0950645487              0.0011824595           
       3.040399              0.0780172064             0.00108346142           
       3.043040              0.0544740871            0.000914136404           
       3.045680              0.0555824972            0.000909168583           
       3.048320              0.0733493011             0.00106117517           
       3.050961               0.139771443             0.00147955626           
       3.053601               0.122191986             0.00137726896           
       3.056242               0.055488123            0.000934067261           
       3.058882                0.16070671              0.0016132736           
       3.061522               0.275660109             0.00209825625           
       3.064163              0.0450341792            0.000849634661           
       3.066803              0.0182362092            0.000551120032           
       3.069443              0.0305673289            0.000708770288           
       3.072084              0.0932697511             0.00124909665           
       3.074724              0.0504787789            0.000924351181           
       3.077365              0.0111752899            0.000434611218           
       3.080005             0.00946333651             0.00040437396           
       3.082645             0.00850511403            0.000385306895           
       3.085286             0.00833074176              0.0003814062           
       3.087926             0.00787027367             0.00037307425           
       3.090566             0.00766487304            0.000371966194           
       3.093207             0.00681259627            0.000346888259           
       3.095847             0.00810797019            0.000386365699           
       3.098488             0.00731499488            0.000366320579           
       3.101128             0.00788678887            0.000382440396           
       3.103768             0.00864733354            0.000402712031           
       3.106409             0.00953948296            0.000425809258           
       3.109049              0.0087348992            0.000410624375           
       3.111690              0.0134579342            0.000507681816           
       3.114330              0.0150027467            0.000540797835           
       3.116970               0.017639362            0.000594553601           
       3.119611              0.0148224786            0.000541470593           
       3.122251              0.0109424225            0.000469043824           
       3.124891              0.0091861699            0.000431844335           
       3.127532             0.00674135355            0.000376605979           
       3.130172              0.0084986754            0.000414154098           
       3.132813             0.00781211801            0.000405154751           
       3.135453             0.00830415731            0.000426530588           
       3.138093             0.00698187237            0.000381820746           
       3.140734             0.00628039891            0.000368871883           
       3.143374             0.00633057956             0.00037600392           
       3.146014             0.00628612937            0.000371961722           
       3.148655             0.00649743797             0.00038113914           
       3.151295             0.00650622305            0.000384415563           
       3.153936             0.00685612722            0.000400442687           
       3.156576             0.00642975811            0.000383339837           
       3.159216             0.00695789362            0.000402034284           
       3.161857              0.0069843673            0.000407739641           
       3.164497             0.00732102205            0.000426252845           
       3.167138              0.0065335496            0.000393015412           
       3.169778             0.00584941897            0.000378584994           
       3.172418             0.00624531746            0.000393472743           
       3.175059             0.00596940667            0.000389717265           
       3.177699             0.00586894653            0.000384897746           
       3.180339             0.00610499923            0.000396070773           
       3.182980             0.00646020359            0.000412930317           
       3.185620             0.00607134904              0.0004046843           
       3.188261             0.00689281678            0.000425544193           
       3.190901             0.00680946272            0.000429480763           
       3.193541             0.00573881339            0.000395573397           
       3.196182             0.00632644235            0.000423974001           
       3.198822             0.00606021621            0.000409927084           
       3.201463             0.00576334746            0.000404930153           
       3.204103             0.00584848573            0.000413341893           
       3.206743              0.0049804868            0.000384662616           
       3.209384             0.00606315305            0.000422525604           
       3.212024             0.00627717267             0.00043144543           
       3.214664             0.00603345457            0.000431049112           
       3.217305              0.0050291732            0.000402724379           
       3.219945              0.0059856529            0.000435680912           
       3.222586             0.00543752146            0.000417603494           
       3.225226             0.00639994255            0.000463262375           
       3.227866             0.00497025523             0.00041141034           
       3.230507             0.00568036556            0.000445067287           
       3.233147              0.0065297023            0.000470124134           
       3.235787             0.00545071506            0.000429645859           
       3.238428             0.00602780105            0.000459797445           
       3.241068             0.00625013979            0.000477694614           
       3.243709             0.00534008699             0.00043909896           
       3.246349             0.00575640596            0.000453343329           
       3.248989             0.00590164264            0.000469518696           
       3.251630             0.00640494075            0.000491293649           
       3.254270             0.00565076548            0.000475648161           
       3.256911             0.00600622205             0.00047809322           
       3.259551             0.00585502107            0.000482467831           
       3.262191             0.00489866294            0.000445369104           
       3.264832              0.0051473356            0.000460817066           
       3.267472             0.00480507756            0.000451547236           
       3.270112             0.00528685295            0.000474991867           
       3.272753             0.00629980637            0.000524874813           
       3.275393             0.00499915147             0.00046996983           
       3.278034             0.00548064741            0.000502106546           
       3.280674             0.00574485666            0.000515558751           
       3.283314             0.00477743718            0.000472747394           
       3.285955             0.00510898038            0.000498058657           
       3.288595             0.00569871363            0.000531887749           
       3.291235             0.00493351964            0.000497798648           
       3.293876             0.00598901884            0.000551717875           
       3.296516             0.00594595683             0.00056094336           
       3.299157             0.00631344326             0.00058675429           
       3.301797             0.00519241078            0.000532343766           
       3.304437             0.00483947796            0.000523566952           
       3.307078              0.0060748292            0.000592295765           
       3.309718             0.00478582047            0.000530962091           
       3.312359             0.00541145178            0.000576009884           
       3.314999             0.00557853592            0.000590969936           
       3.317639             0.00520866962              0.0005771918           
       3.320280             0.00548867059            0.000601155052           
       3.322920             0.00640086613             0.00065890378           
       3.325560              0.0058815553            0.000643805793           
       3.328201             0.00635264661            0.000671920874           
       3.330841              0.0054858886            0.000639587949           
       3.333482             0.00528419745            0.000635690702           
       3.336122             0.00498139466            0.000630623142           
       3.338762             0.00475519143            0.000621774043           
       3.341403             0.00477476721            0.000628832586           
       3.344043              0.0059284419            0.000727438952           
       3.346683             0.00514128419            0.000684297131           
       3.349324             0.00623845882            0.000765453762           
       3.351964             0.00564233042            0.000751366326           
       3.354605             0.00496401491            0.000712736923           
       3.357245             0.00595174212            0.000807863359           
       3.359885             0.00433744968            0.000689904781           
       3.362526             0.00583106628            0.000840819604           
       3.365166              0.0057017171            0.000821176298           
       3.367807              0.0049373835              0.0008180021           
       3.370447             0.00442635969            0.000774814403           
       3.373087             0.00597747173            0.000950275501           
       3.375728             0.00648865812            0.000982591019           
       3.378368             0.00514195613            0.000945179689           
       3.381008             0.00437100005            0.000863847714           
       3.383649             0.00433047051            0.000930535418           
       3.386289             0.00352353084            0.000839718023           
       3.388930             0.00549742088             0.00115192431           
       3.391570             0.00523152288             0.00112419223           
       3.394210             0.00521198731             0.00120229629           
       3.396851             0.00414275572             0.00116112125           
       3.399491             0.00495358401             0.00129271891           
       3.402131             0.00785856999             0.00192736469           
       3.404772              0.0036458406             0.00131333968           
       3.407412              0.0055751438             0.00201527337           
       3.410053             0.00375498989             0.00172217431           
       3.412693             0.00444349295             0.00265052555           
       3.415333             0.00872330806             0.00455022188           
