################################################################################
# EDF_DataBlockID                     0.Image.Psd
# EDF_BinarySize                      2105344
# EDF_HeaderSize                      2560
# ByteOrder                           LowByteFirst
# DataType                            FloatValue
# Dim_1                               512
# Dim_2                               1028
# Image                               0
# HeaderID                            EH:000000:000000:000000
# Size                                2105344
# Center_1                            304.9000
# Center_2                            588.7000
# Comment                             Xenocs_Cell_Window - front_window_open_only
# DDummy                              0.6
# Date                                2025-10-19T07:52:37
# Delta                               21.910000
# Dummy                               -1.5
# ExposureTime                        360
# Gamma                               15.360000
# Intensity1                          8.96911e-10
# PSize_1                             7.5e-05
# PSize_2                             7.5e-05
# Pressure                            0.0330896
# SampleDistance                      0.115750
# SampleEnvKind                       large
# SampleEnvPN                         ElectroChemical cell
# SampleEnvSN                         1141
# Thickness                           0
# Wavelength                          1.541891e-10
# Wavelength                          1.54189e-10
# aux                                 0
# aux_dial                            0.002375
# beamx                               588.429
# beamx_dial                          588.429
# beamz                               657.855
# beamz_dial                          657.855
# det0x                               -0.000396875
# det0x_dial                          6.36905
# det0xvd                             -0.0005
# det0xvd_dial                        -0.0005
# det0y                               450.002
# det0y_dial                          481.635
# det0z                               0
# det0z_dial                          1.2295
# det0zvd                             0
# det0zvd_dial                        0
# mag                                 1.818
# mag_dial                            1.818
# om                                  0.2499
# om_dial                             -0.610199
# phi                                 -0.0120535
# phi_dial                            0
# ry                                  0.599993
# ry_dial                             0.599993
# s1bot                               0.8
# s1bot_dial                          -1.66094
# s1hl                                0.8
# s1hl_dial                           -0.608437
# s1hr                                0.8
# s1hr_dial                           0.970938
# s1top                               0.8
# s1top_dial                          -0.461562
# s2bot                               0.45
# s2bot_dial                          1.36109
# s2hl                                0.45
# s2hl_dial                           -0.83375
# s2hr                                0.45
# s2hr_dial                           -0.118594
# s2top                               0.45
# s2top_dial                          1.44734
# w2theta                             32
# w2theta_dial                        32
# waxsch                              19.2605
# waxsch_dial                         -32.7238
# waxsh                               137.085
# waxsh_dial                          -43.5335
# waxsth                              26.0607
# waxsth_dial                         -19.4068
# waxsz                               67.0407
# waxsz_dial                          -23.7962
# wind                                65.9854
# wind_dial                           66.0041
# wpsi                                124
# wpsi_dial                           124
# wstod                               115
# wstod_dial                          115
# x                                   0
# x_dial                              1.00969
# z                                   0
# z_dial                              13.3172
# CountCutoff                         6807993
# DetectorModel                       Dectris EIGER2 Si 500K, S/N E-01-0554
# ThresholdSetting                    4023.88989258
# Saturation                          0
# FlatField                           Corrected
# BackgroundReductionExtra            0.02
# BackgroundCorrectionConstant        0.0026712
# Detector                            0
# Monitor                             0
# Pil_Roi0                            0
# SumForIntensity1                    3.22888e+08
# TransmittedFlux                     896911
# det                                 0
# mon                                 0
# pilai0                              3.22888e+08
# pilai1                              694007
# pilct0                              5.58852e+08
# pilct1                              694007
# pilroi0                             0
# pilroi1                             0
# sec                                 1
# title                               20251017__1_00343.edf
# usaxs0                              0
# Operation                           Azimuthal average I(q)
# Error_model                         ErrorModel.poisson
# Geometrical_correction              True
# Transmission_correction             True
# Thickness_correction                False
# Binning mode                        Uniform
# Binning factor                      1.0
# Psi                                 0.0
# Omega                               0.2499
# MaskInvalidPixels                   True
# DetectorEdge                        3
# MaskFiles                           ['20251017__1_00233_mask.edf']
################################################################################
    q(A⁻¹)                Intensity(a.u.)            Sigma_I(a.u.)            
       0.690460             0.00768927814             0.00807370742           
       0.693100             0.00463033612             0.00280107171           
       0.695741             0.00927428635             0.00334907088           
       0.698381              0.0100837323             0.00326618598           
       0.701021              0.0061485517             0.00208152455           
       0.703662              0.0040832144             0.00157014063           
       0.706302             0.00830610221             0.00216277802           
       0.708942             0.00691155294             0.00175244767           
       0.711583             0.00695782956             0.00175798265           
       0.714223             0.00792563069             0.00163500405           
       0.716864             0.00789780831             0.00166550875           
       0.719504             0.00710861894             0.00146238966           
       0.722144             0.00605571065             0.00130358316           
       0.724785             0.00751899211             0.00142875875           
       0.727425             0.00578203092             0.00116213655           
       0.730065             0.00580090405              0.0011977229           
       0.732706             0.00693041686             0.00117724279           
       0.735346             0.00786890881             0.00135498958           
       0.737987             0.00710775205             0.00111463526           
       0.740627             0.00728057899             0.00123582621           
       0.743267             0.00695576742             0.00103904055           
       0.745908             0.00493834758            0.000938283218           
       0.748548             0.00631699824            0.000989757282           
       0.751189             0.00604920394            0.000959425959           
       0.753829             0.00571536833            0.000940989047           
       0.756469             0.00789291568             0.00104006677           
       0.759110             0.00654056345            0.000979295282           
       0.761750             0.00658821065            0.000899514147           
       0.764390              0.0060167631            0.000922753038           
       0.767031             0.00655696286            0.000871662259           
       0.769671             0.00922698039             0.00109660655           
       0.772312             0.00527710414            0.000755727269           
       0.774952             0.00491116669            0.000781584452           
       0.777592             0.00705669459            0.000856918097           
       0.780233             0.00657212158            0.000871802878           
       0.782873              0.0058662941            0.000753192859           
       0.785513             0.00662416861            0.000851401411           
       0.788154             0.00788285094            0.000853091007           
       0.790794             0.00638105071            0.000794379634           
       0.793435             0.00688140716            0.000792343616           
       0.796075             0.00749549094            0.000831310882           
       0.798715              0.0070491166            0.000801575369           
       0.801356             0.00580101887             0.00070769858           
       0.803996              0.0076195707            0.000824037203           
       0.806637             0.00583848401            0.000681843545           
       0.809277             0.00694743178            0.000778119361           
       0.811917             0.00658762415            0.000717006383           
       0.814558             0.00635870347            0.000721651726           
       0.817198             0.00801689982            0.000772623077           
       0.819838             0.00773243066            0.000791500781           
       0.822479             0.00670579139            0.000679264854           
       0.825119             0.00694733457            0.000742730689           
       0.827760             0.00590997137            0.000634758462           
       0.830400             0.00714829312            0.000735535649           
       0.833040             0.00686721641            0.000672832804           
       0.835681             0.00767689464            0.000744980135           
       0.838321             0.00680489352            0.000656492545           
       0.840961             0.00710176788            0.000701003024           
       0.843602             0.00683310997            0.000647706825           
       0.846242             0.00686626489            0.000672199958           
       0.848883             0.00521361925            0.000569797364           
       0.851523             0.00729079594            0.000678860975           
       0.854163             0.00730089741            0.000671438859           
       0.856804             0.00594474726            0.000590375186           
       0.859444             0.00716739192            0.000652909981           
       0.862085             0.00769727562            0.000666772126           
       0.864725              0.0061632302            0.000594450546           
       0.867365             0.00680241456            0.000620042853           
       0.870006             0.00705513548            0.000640265788           
       0.872646             0.00622794599            0.000575381078           
       0.875286             0.00619428343             0.00059337598           
       0.877927             0.00621358141            0.000569017387           
       0.880567             0.00711810101            0.000620924891           
       0.883208             0.00660640579            0.000580914869           
       0.885848             0.00679447893            0.000604403617           
       0.888488             0.00690389807            0.000579288162           
       0.891129             0.00560416045            0.000548629728           
       0.893769             0.00759890435            0.000603872886           
       0.896410             0.00587232361            0.000547206023           
       0.899050             0.00798529045            0.000615256923           
       0.901690             0.00732588267            0.000601607347           
       0.904331             0.00795630788            0.000605069778           
       0.906971             0.00742523438            0.000603580312           
       0.909611             0.00727694805            0.000573521617           
       0.912252             0.00693595148            0.000569625236           
       0.914892             0.00751476286            0.000577899037           
       0.917533             0.00698034884            0.000569538916           
       0.920173             0.00767337632             0.00057280829           
       0.922813             0.00813379695            0.000616291842           
       0.925454             0.00811637812            0.000584271013           
       0.928094             0.00709040674            0.000557817538           
       0.930734             0.00648929915            0.000520912845           
       0.933375             0.00637864637            0.000527461961           
       0.936015             0.00694643778            0.000526667718           
       0.938656             0.00750927665            0.000570557895           
       0.941296             0.00710215716            0.000534898655           
       0.943936             0.00730124698            0.000552111538           
       0.946577             0.00759213046            0.000542205973           
       0.949217             0.00632082701            0.000512203374           
       0.951858             0.00787297422            0.000540421291           
       0.954498             0.00640258849            0.000512713211           
       0.957138             0.00710266697            0.000519036461           
       0.959779             0.00788447685            0.000558818072           
       0.962419             0.00697610489            0.000506033772           
       0.965059             0.00675534931            0.000512107159           
       0.967700             0.00738324267            0.000518064995           
       0.970340             0.00719465215            0.000525776053           
       0.972981             0.00756420301            0.000520526326           
       0.975621             0.00799865073            0.000546473295           
       0.978261             0.00663738627            0.000474968247           
       0.980902             0.00715610819            0.000516661684           
       0.983542             0.00746243401            0.000512241633           
       0.986182             0.00816751324            0.000542952141           
       0.988823             0.00769232546             0.00050991952           
       0.991463             0.00725982755            0.000507209217           
       0.994104             0.00794647312            0.000512766763           
       0.996744             0.00732442519            0.000508252522           
       0.999384             0.00758963641            0.000499812585           
       1.002025             0.00716851694            0.000499273018           
       1.004665             0.00674870377            0.000464589536           
       1.007306              0.0067327138            0.000479587861           
       1.009946             0.00773912603            0.000494404699           
       1.012586              0.0070572141            0.000485701744           
       1.015227             0.00644935363            0.000450258777           
       1.017867              0.0075484134            0.000501074585           
       1.020507             0.00792256558            0.000494017675           
       1.023148             0.00829363845            0.000511559673           
       1.025788             0.00820080113            0.000503479626           
       1.028429             0.00843113892             0.00052166128           
       1.031069             0.00782272623            0.000484121021           
       1.033709             0.00734288904            0.000478045259           
       1.036350             0.00779852284            0.000479735308           
       1.038990             0.00834252989            0.000508435613           
       1.041630              0.0087077154              0.0005094512           
       1.044271             0.00777474614            0.000481440197           
       1.046911             0.00756950368            0.000466216807           
       1.049552             0.00847036942            0.000510952972           
       1.052192             0.00834093225            0.000484233383           
       1.054832              0.0081081021            0.000486711621           
       1.057473             0.00714583145            0.000451133804           
       1.060113             0.00792781369            0.000480322872           
       1.062754               0.007007537            0.000446590169           
       1.065394             0.00836222164            0.000482718268           
       1.068034             0.00801592568            0.000470787691           
       1.070675             0.00673093184            0.000438993596           
       1.073315             0.00767386264            0.000454407532           
       1.075955             0.00698674132            0.000440858436           
       1.078596             0.00814256012            0.000474988427           
       1.081236             0.00876711154            0.000485557942           
       1.083877              0.0077002993            0.000469273292           
       1.086517             0.00813524054            0.000471433109           
       1.089157             0.00831230701             0.00048002978           
       1.091798             0.00874440358             0.00048191683           
       1.094438             0.00806836572            0.000470270542           
       1.097078             0.00825511325            0.000463457928           
       1.099719             0.00793674478            0.000466079806           
       1.102359             0.00777338026            0.000436958747           
       1.105000             0.00875548452            0.000482004912           
       1.107640             0.00858945963            0.000461850557           
       1.110280             0.00797301217            0.000453878848           
       1.112921             0.00888432048              0.0004704469           
       1.115561             0.00739590939            0.000434681438           
       1.118202             0.00857822602            0.000454474712           
       1.120842             0.00832085647            0.000461708076           
       1.123482             0.00841622417            0.000451320723           
       1.126123             0.00771386444            0.000434775013           
       1.128763             0.00872539764            0.000460110085           
       1.131403             0.00753876318            0.000427015401           
       1.134044             0.00831190092            0.000447599112           
       1.136684             0.00917120627            0.000473700518           
       1.139325             0.00807976115            0.000432093514           
       1.141965             0.00835258327            0.000445073737           
       1.144605             0.00762150668            0.000427647067           
       1.147246             0.00922229298            0.000461509481           
       1.149886             0.00768094523            0.000424176128           
       1.152527             0.00830515673            0.000441517336           
       1.155167             0.00810120356            0.000429931332           
       1.157807             0.00869375049            0.000445683956           
       1.160448             0.00941509091            0.000470151191           
       1.163088             0.00870289187             0.00043524962           
       1.165728             0.00836826403             0.00044439177           
       1.168369             0.00859181825             0.00043421344           
       1.171009             0.00830555489            0.000430458094           
       1.173650              0.0088744683            0.000441748032           
       1.176290             0.00893542494            0.000448463675           
       1.178930             0.00923780936            0.000443170422           
       1.181571             0.00876908021            0.000445883395           
       1.184211             0.00904694736            0.000439214615           
       1.186851             0.00861460278            0.000432543174           
       1.189492             0.00842287954             0.00043007787           
       1.192132             0.00905074547            0.000439216726           
       1.194773             0.00917438927            0.000439538797           
       1.197413             0.00838915152            0.000423736615           
       1.200053             0.00929290972            0.000443171407           
       1.202694              0.0113613442            0.000486323904           
       1.205334              0.0100597386            0.000462621536           
       1.207975             0.00876226997            0.000423298695           
       1.210615             0.00873494852            0.000431575414           
       1.213255             0.00857293938            0.000416243345           
       1.215896             0.00902215363            0.000435103496           
       1.218536             0.00868876507            0.000414690506           
       1.221176             0.00955815256            0.000445324259           
       1.223817             0.00911612958            0.000425842848           
       1.226457             0.00918725483            0.000432930831           
       1.229098             0.00910884504            0.000424539583           
       1.231738              0.0104514506            0.000461155822           
       1.234378             0.00931655857            0.000426938791           
       1.237019             0.00933561815            0.000430822452           
       1.239659             0.00972257575            0.000439422626           
       1.242299             0.00867202261            0.000412882044           
       1.244940             0.00930288276            0.000423020277           
       1.247580             0.00947903293            0.000428891867           
       1.250221             0.00965507563            0.000439921881           
       1.252861              0.0104995123            0.000441664907           
       1.255501               0.010420332            0.000452419303           
       1.258142             0.00978077059            0.000429650089           
       1.260782             0.00954926822            0.000429330324           
       1.263423              0.0099018393            0.000428522793           
       1.266063              0.0105113169            0.000449743303           
       1.268703               0.010035994            0.000428384826           
       1.271344             0.00990815129            0.000434918219           
       1.273984              0.0094465734            0.000418037555           
       1.276624              0.0101487389            0.000430651775           
       1.279265             0.00986259275            0.000425464103           
       1.281905             0.00965429635            0.000423541899           
       1.284546             0.00972998433            0.000420553852           
       1.287186               0.010582777            0.000439018063           
       1.289826             0.00938700309            0.000415616079           
       1.292467              0.0107367876            0.000436560768           
       1.295107              0.0110972948            0.000451652546           
       1.297747             0.00991424496            0.000415702204           
       1.300388              0.0102003458             0.00043248546           
       1.303028              0.0108499701            0.000434702095           
       1.305669             0.00972865652            0.000416945255           
       1.308309              0.0101592443            0.000419665864           
       1.310949              0.0100484669            0.000422573657           
       1.313590             0.00992764726            0.000413525297           
       1.316230              0.0111449841            0.000446032431           
       1.318871              0.0105807273            0.000425218995           
       1.321511              0.0101117979            0.000417772681           
       1.324151              0.0104306799            0.000425985548           
       1.326792              0.0110621995            0.000435137935           
       1.329432              0.0105099436            0.000426349656           
       1.332072               0.009836756            0.000405396497           
       1.334713             0.00984125898            0.000410518105           
       1.337353              0.0107899363            0.000423237409           
       1.339994              0.0100682262            0.000414661148           
       1.342634                0.01035003             0.00041095939           
       1.345274              0.0120048066            0.000448380327           
       1.347915               0.011161759            0.000433499254           
       1.350555              0.0103233542            0.000415271788           
       1.353195              0.0105912567            0.000412578919           
       1.355836              0.0110781659             0.00042991747           
       1.358476              0.0100369091            0.000408063727           
       1.361117               0.010336784            0.000403726314           
       1.363757              0.0104027987            0.000418435876           
       1.366397              0.0101135341            0.000399729258           
       1.369038              0.0109212194            0.000424139383           
       1.371678              0.0102739943             0.00040307291           
       1.374319              0.0113090431            0.000426243462           
       1.376959              0.0106869977            0.000408650676           
       1.379599              0.0106695488            0.000416275837           
       1.382240              0.0107396241            0.000409708116           
       1.384880              0.0101340057            0.000402875056           
       1.387520              0.0106723486            0.000408603606           
       1.390161              0.0103838877            0.000401948289           
       1.392801              0.0109520552            0.000415258755           
       1.395442              0.0107463305            0.000407078074           
       1.398082              0.0106753569            0.000407120039           
       1.400722              0.0106152684            0.000404138624           
       1.403363              0.0113588747            0.000421933591           
       1.406003              0.0103354826            0.000392594801           
       1.408644              0.0103191358            0.000400519715           
       1.411284              0.0103080986            0.000398110116           
       1.413924              0.0105717205            0.000398196115           
       1.416565              0.0103565838            0.000393660295           
       1.419205              0.0101759482             0.00039405594           
       1.421845              0.0105555134            0.000396292328           
       1.424486              0.0102563656            0.000392360976           
       1.427126              0.0106961314            0.000400431583           
       1.429767               0.011403328            0.000407086079           
       1.432407              0.0107289328            0.000404812269           
       1.435047              0.0102414318             0.00038362316           
       1.437688               0.010694978             0.00040070696           
       1.440328              0.0099795096            0.000379570844           
       1.442968              0.0106895932            0.000398280937           
       1.445609              0.0105747566            0.000389620155           
       1.448249               0.010889681            0.000397935655           
       1.450890              0.0107459927            0.000392481679           
       1.453530              0.0105297469            0.000391390339           
       1.456170              0.0104798756            0.000389583311           
       1.458811              0.0104670084            0.000386246532           
       1.461451              0.0104237949            0.000388281778           
       1.464092              0.0104279566            0.000384974087           
       1.466732              0.0101914604            0.000378249296           
       1.469372              0.0104632362            0.000382081402           
       1.472013              0.0104353074            0.000388397784           
       1.474653              0.0102504048            0.000375436528           
       1.477293              0.0112356239             0.00039968141           
       1.479934              0.0108265269            0.000388231216           
       1.482574              0.0112462981            0.000394709444           
       1.485215             0.00982821504            0.000369936271           
       1.487855              0.0104004358            0.000380474569           
       1.490495              0.0106725012            0.000384589311           
       1.493136                0.01095214            0.000384485996           
       1.495776              0.0108301587            0.000389004796           
       1.498416             0.00962901115            0.000359673341           
       1.501057              0.0101563153            0.000372567546           
       1.503697              0.0104154151            0.000373662408           
       1.506338              0.0100068125             0.00036895309           
       1.508978              0.0100075907            0.000366788926           
       1.511618              0.0106196036            0.000377647021           
       1.514259             0.00999742388            0.000367079064           
       1.516899             0.00991735837            0.000365776468           
       1.519540               0.010075004            0.000366626276           
       1.522180              0.0106742196            0.000372658713           
       1.524820              0.0100626045            0.000369132845           
       1.527461              0.0101850724            0.000363156879           
       1.530101              0.0101406236            0.000366110172           
       1.532741             0.00999402688             0.00036173223           
       1.535382             0.00996776447            0.000362052205           
       1.538022              0.0100335522            0.000360031189           
       1.540663              0.0102215711            0.000366823237           
       1.543303              0.0104251151            0.000365847461           
       1.545943              0.0109163062            0.000376465004           
       1.548584              0.0106509868            0.000373842077           
       1.551224             0.00986844866            0.000350621414           
       1.553864              0.0105274956            0.000371600357           
       1.556505             0.00986607602            0.000354203742           
       1.559145             0.00977386928            0.000353359705           
       1.561786             0.00974434322            0.000351227174           
       1.564426              0.0099891975             0.00035529138           
       1.567066             0.00951819108            0.000344107041           
       1.569707             0.00936453837            0.000346259693           
       1.572347             0.00969604154             0.00034776389           
       1.574988             0.00942106705            0.000341441109           
       1.577628             0.00999187397            0.000359549619           
       1.580268             0.00940469656            0.000336787236           
       1.582909              0.0102342643            0.000357898258           
       1.585549             0.00980988107            0.000347124638           
       1.588189              0.0103157837            0.000359938606           
       1.590830             0.00893761147            0.000329282305           
       1.593470             0.00897183518              0.0003326063           
       1.596111             0.00929437582            0.000335606998           
       1.598751             0.00921456414            0.000337579012           
       1.601391             0.00868027822            0.000325551171           
       1.604032             0.00902667251            0.000329210991           
       1.606672             0.00894490805            0.000334312464           
       1.609312             0.00893866278            0.000324251684           
       1.611953             0.00866576034            0.000323890404           
       1.614593             0.00938202609            0.000334447005           
       1.617234             0.00921086931            0.000333260699           
       1.619874             0.00877797404            0.000321507794           
       1.622514             0.00855793182            0.000320260111           
       1.625155              0.0088123932            0.000324182832           
       1.627795             0.00834122544             0.00031221019           
       1.630436             0.00937832718            0.000334378479           
       1.633076             0.00907120224            0.000327186916           
       1.635716              0.0088774346            0.000323109129           
       1.638357             0.00911654677              0.0003260405           
       1.640997             0.00856035198            0.000318408984           
       1.643637             0.00972300185            0.000333042335           
       1.646278             0.00860139147            0.000317933379           
       1.648918             0.00842030594            0.000310513405           
       1.651559             0.00877176621            0.000320912309           
       1.654199             0.00954310496            0.000330136484           
       1.656839             0.00877637139            0.000316511299           
       1.659480             0.00855732353             0.00031528905           
       1.662120             0.00857327986            0.000311353939           
       1.664761             0.00913936637            0.000324949453           
       1.667401             0.00828925767             0.00030658492           
       1.670041             0.00845223672            0.000309938486           
       1.672682             0.00855180154            0.000308825034           
       1.675322             0.00923065259            0.000326521313           
       1.677962             0.00804382228            0.000298754649           
       1.680603              0.0082806144            0.000305810265           
       1.683243              0.0086215404            0.000309733714           
       1.685884             0.00829053603            0.000304885563           
       1.688524             0.00834585555            0.000305040414           
       1.691164             0.00834734837            0.000304283582           
       1.693805             0.00885120085            0.000315866234           
       1.696445             0.00840758849             0.00030357631           
       1.699085             0.00813557017            0.000299817219           
       1.701726              0.0084184731            0.000301018424           
       1.704366             0.00821075068            0.000304515001           
       1.707007               0.008369159            0.000300877895           
       1.709647               0.008659091            0.000309847795           
       1.712287             0.00822534005            0.000296940854           
       1.714928             0.00827641775            0.000300856493           
       1.717568             0.00828892107            0.000298315012           
       1.720209             0.00828199444            0.000300031702           
       1.722849             0.00883619915            0.000310404643           
       1.725489             0.00847372548            0.000299126399           
       1.728130             0.00840396084            0.000303956655           
       1.730770             0.00822933038            0.000294424243           
       1.733410             0.00876413982            0.000307829431           
       1.736051             0.00825351043            0.000294090432           
       1.738691             0.00813047875            0.000294869627           
       1.741332             0.00808838715            0.000292294907           
       1.743972             0.00882531215            0.000305433293           
       1.746612             0.00791685445             0.00028935272           
       1.749253             0.00835653989            0.000298563896           
       1.751893             0.00799213491            0.000290229835           
       1.754533             0.00882239389            0.000300747468           
       1.757174             0.00767385228            0.000285732967           
       1.759814              0.0082926207             0.00029250109           
       1.762455             0.00853554589            0.000299280851           
       1.765095             0.00865064412            0.000297060811           
       1.767735             0.00876646545            0.000304124274           
       1.770376              0.0081994359            0.000289663773           
       1.773016             0.00809144911            0.000288204143           
       1.775657             0.00835251089            0.000293416444           
       1.778297             0.00797521581            0.000288115448           
       1.780937             0.00825488229            0.000291755739           
       1.783578             0.00814423402            0.000288433011           
       1.786218             0.00850794752            0.000299507561           
       1.788858             0.00878203605            0.000296733472           
       1.791499             0.00822469568            0.000292455706           
       1.794139             0.00853247191            0.000292376847           
       1.796780             0.00851776779            0.000293860572           
       1.799420             0.00877469001            0.000297879787           
       1.802060             0.00920828223            0.000301397591           
       1.804701             0.00863285902            0.000295743682           
       1.807341             0.00889862477            0.000297360152           
       1.809981             0.00902276105            0.000301415635           
       1.812622             0.00892376572             0.00029812439           
       1.815262             0.00943932408            0.000307708597           
       1.817903             0.00911484915            0.000298637955           
       1.820543             0.00883137086            0.000297590679           
       1.823183             0.00807840735            0.000280236318           
       1.825824             0.00832066934            0.000288684266           
       1.828464             0.00837288399            0.000288700129           
       1.831105             0.00800513946            0.000283381831           
       1.833745             0.00861087944             0.00029372448           
       1.836385             0.00845102956            0.000289853663           
       1.839026               0.008460864            0.000294381992           
       1.841666             0.00860642614            0.000293048287           
       1.844306             0.00865882095            0.000297649832           
       1.846947             0.00834749555            0.000288494252           
       1.849587             0.00820524935            0.000289904958           
       1.852228             0.00813350341            0.000285564854           
       1.854868             0.00862790551            0.000299510272           
       1.857508             0.00822225597            0.000286985788           
       1.860149             0.00859140896            0.000295708826           
       1.862789             0.00839529545            0.000293607784           
       1.865429             0.00845241256            0.000295493064           
       1.868070             0.00826753946            0.000291233822           
       1.870710             0.00821586566            0.000291112904           
       1.873351             0.00858441553            0.000299470412           
       1.875991             0.00742843945             0.00028008526           
       1.878631             0.00870195253            0.000300326983           
       1.881272             0.00797135316            0.000286769864           
       1.883912             0.00815263213            0.000293413503           
       1.886553             0.00813950588            0.000289660398           
       1.889193             0.00817912868            0.000293718754           
       1.891833             0.00825964165            0.000291801958           
       1.894474             0.00802318091            0.000289870873           
       1.897114             0.00824093793             0.00029149948           
       1.899754             0.00763195325            0.000283668266           
       1.902395              0.0076886138            0.000284780011           
       1.905035             0.00834224473            0.000295475607           
       1.907676             0.00799661152            0.000289626148           
       1.910316              0.0080995409            0.000293342717           
       1.912956             0.00808625267            0.000293090339           
       1.915597             0.00759753809            0.000281133653           
       1.918237             0.00774081665            0.000288079761           
       1.920878             0.00819962786            0.000291247123           
       1.923518             0.00786399658            0.000292802114           
       1.926158             0.00783768377             0.00028559481           
       1.928799             0.00854985986            0.000302251902           
       1.931439             0.00792842154             0.00028872772           
       1.934079             0.00852834211            0.000302484653           
       1.936720               0.007684477            0.000285439779           
       1.939360             0.00785608494            0.000291390932           
       1.942001              0.0079208304            0.000291463623           
       1.944641             0.00835338224             0.00029802638           
       1.947281             0.00772768374             0.00028803242           
       1.949922             0.00785826512            0.000290819333           
       1.952562              0.0080585752            0.000297036767           
       1.955202             0.00845630466            0.000296633663           
       1.957843             0.00721036372            0.000282611756           
       1.960483              0.0085476318            0.000302796864           
       1.963124             0.00808895254            0.000294342138           
       1.965764             0.00756979245            0.000284841672           
       1.968404               0.007714579            0.000292694898           
       1.971045             0.00753654619            0.000282045979           
       1.973685             0.00746381127            0.000285919554           
       1.976326             0.00811911713            0.000296906927           
       1.978966             0.00771635475            0.000290818646           
       1.981606             0.00774559744            0.000288287791           
       1.984247             0.00803032008            0.000296098164           
       1.986887             0.00733216603            0.000285580297           
       1.989527             0.00778068923            0.000288056526           
       1.992168             0.00744643369            0.000288600226           
       1.994808             0.00785248455            0.000292917239           
       1.997449             0.00793621501            0.000294042934           
       2.000089              0.0077871384            0.000289553052           
       2.002729             0.00758003198             0.00029222275           
       2.005370             0.00753514517            0.000285817712           
       2.008010             0.00766732513            0.000292141536           
       2.010650             0.00796908684            0.000296982926           
       2.013291             0.00764848504            0.000292603739           
       2.015931             0.00802051239            0.000297490939           
       2.018572             0.00770414538             0.00029543699           
       2.021212             0.00784614138            0.000295471391           
       2.023852             0.00763393526            0.000292979395           
       2.026493             0.00748531615             0.00028884211           
       2.029133             0.00768284012            0.000290396004           
       2.031774             0.00713400478            0.000282545106           
       2.034414             0.00753219972            0.000288590778           
       2.037054             0.00779327755            0.000297251113           
       2.039695             0.00772796811            0.000290172489           
       2.042335             0.00786202624            0.000297660296           
       2.044975             0.00748704365            0.000288153544           
       2.047616             0.00707246204            0.000281262023           
       2.050256             0.00745358157            0.000285344443           
       2.052897             0.00802541487            0.000304857153           
       2.055537             0.00740883834            0.000284926434           
       2.058177             0.00712756021            0.000281934047           
       2.060818             0.00782000262            0.000296198183           
       2.063458             0.00786640219            0.000297484794           
       2.066098             0.00784306687            0.000295725019           
       2.068739             0.00733621206             0.00028899202           
       2.071379             0.00749412033            0.000287772239           
       2.074020             0.00766221081            0.000294966316           
       2.076660             0.00745608127            0.000288999316           
       2.079300             0.00686785141            0.000277324998           
       2.081941             0.00732927602            0.000288231472           
       2.084581             0.00766547156            0.000294986322           
       2.087222             0.00778377172            0.000297456348           
       2.089862             0.00764213707            0.000291064031           
       2.092502              0.0073158418            0.000289956973           
       2.095143             0.00768544496            0.000292943761           
       2.097783             0.00753532506            0.000294482533           
       2.100423             0.00733857867            0.000285040272           
       2.103064             0.00748510343             0.00029284214           
       2.105704             0.00797322082            0.000301083483           
       2.108345             0.00751678061            0.000293680594           
       2.110985             0.00769437965            0.000292956274           
       2.113625             0.00709708061            0.000285788758           
       2.116266             0.00780468659            0.000297479216           
       2.118906             0.00758418041             0.00029303354           
       2.121546             0.00785706074            0.000298021841           
       2.124187              0.0072127264             0.00028949003           
       2.126827             0.00741866375            0.000288989315           
       2.129468             0.00803214392            0.000303838884           
       2.132108             0.00762310994            0.000295388856           
       2.134748             0.00724621352            0.000286908738           
       2.137389              0.0075616563            0.000295541873           
       2.140029             0.00698622607            0.000283384393           
       2.142670             0.00687890192             0.00028165873           
       2.145310             0.00737472814            0.000292747181           
       2.147950             0.00721538123            0.000290686612           
       2.150591             0.00687965201            0.000281240186           
       2.153231             0.00731123433            0.000294213925           
       2.155871             0.00764966008             0.00029659992           
       2.158512             0.00760306203            0.000301023374           
       2.161152             0.00758556437            0.000293165934           
       2.163793             0.00684869166             0.00028309556           
       2.166433             0.00736677578            0.000288516618           
       2.169073             0.00700203131            0.000287850732           
       2.171714             0.00719018373            0.000285754082           
       2.174354             0.00728548522            0.000292037045           
       2.176995             0.00737605035            0.000291409076           
       2.179635             0.00721164286            0.000293596273           
       2.182275             0.00756538703            0.000294741427           
       2.184916             0.00719632427            0.000293537825           
       2.187556              0.0078628743            0.000301891394           
       2.190196             0.00718763991             0.00029317459           
       2.192837             0.00742759478            0.000294764564           
       2.195477              0.0070983439            0.000290936961           
       2.198118             0.00753617258            0.000294240883           
       2.200758             0.00718182172            0.000291700625           
       2.203398             0.00755299076            0.000294182636           
       2.206039             0.00694592101            0.000286424649           
       2.208679             0.00715638216            0.000287885637           
       2.211319             0.00707646134            0.000287621085           
       2.213960              0.0070964139            0.000284963867           
       2.216600             0.00715775667            0.000292936012           
       2.219241             0.00733425723             0.00029221472           
       2.221881             0.00717836388            0.000290599345           
       2.224521             0.00774613562            0.000300826078           
       2.227162             0.00729281487            0.000296475579           
       2.229802             0.00728929002            0.000291592579           
       2.232443              0.0069803562            0.000286468367           
       2.235083             0.00686228423            0.000282332081           
       2.237723              0.0077147937            0.000301650153           
       2.240364             0.00761612431            0.000298190476           
       2.243004             0.00742390854            0.000295292984           
       2.245644             0.00696876845            0.000285437343           
       2.248285             0.00760957034              0.0003002085           
       2.250925             0.00730286461            0.000292721038           
       2.253566             0.00697677698            0.000286810715           
       2.256206             0.00776919766            0.000301754096           
       2.258846             0.00690259318            0.000284429802           
       2.261487              0.0071883653            0.000290759995           
       2.264127             0.00729918585             0.00029576492           
       2.266767             0.00703441724             0.00028565819           
       2.269408              0.0072587345            0.000293623436           
       2.272048               0.007038631            0.000287358871           
       2.274689             0.00742139325            0.000296229053           
       2.277329             0.00773967626             0.00030211261           
       2.279969             0.00738193238            0.000295942147           
       2.282610             0.00763735023            0.000298082923           
       2.285250             0.00730901115            0.000296191291           
       2.287891             0.00671630777            0.000281062885           
       2.290531              0.0068767791            0.000285803224           
       2.293171             0.00700024137            0.000288343179           
       2.295812             0.00730045981            0.000292898464           
       2.298452             0.00719644742            0.000292666984           
       2.301092             0.00729343805             0.00029650417           
       2.303733             0.00746795605             0.00029409614           
       2.306373               0.006876719            0.000289117064           
       2.309014             0.00730362907            0.000292214543           
       2.311654             0.00756310509             0.00030018208           
       2.314294             0.00793263371            0.000306756826           
       2.316935             0.00731261724            0.000295688907           
       2.319575             0.00708056597            0.000289870006           
       2.322215             0.00734988904            0.000299539849           
       2.324856             0.00649077544            0.000274420825           
       2.327496             0.00715169955            0.000295113227           
       2.330137             0.00690788045            0.000284689991           
       2.332777             0.00661793731            0.000281698989           
       2.335417             0.00659085733            0.000280278111           
       2.338058              0.0073977819            0.000298128639           
       2.340698             0.00752455492            0.000297711877           
       2.343339             0.00728964935            0.000298619746           
       2.345979             0.00698228372            0.000286424452           
       2.348619             0.00739445881            0.000300323694           
       2.351260             0.00679660396            0.000281806471           
       2.353900             0.00707908238            0.000293695192           
       2.356540             0.00708601189            0.000289797664           
       2.359181             0.00690604908            0.000289919706           
       2.361821             0.00673214597             0.00028275845           
       2.364462             0.00737967599            0.000300992578           
       2.367102             0.00699596106            0.000284588204           
       2.369742             0.00729428615             0.00030100656           
       2.372383             0.00666168452            0.000279272597           
       2.375023             0.00679413039            0.000289383339           
       2.377663             0.00709407241            0.000289418252           
       2.380304             0.00736301599            0.000298943414           
       2.382944             0.00686780599            0.000285891585           
       2.385585             0.00699945996            0.000291347316           
       2.388225             0.00661542914            0.000281962321           
       2.390865             0.00678007172            0.000286180404           
       2.393506             0.00690535932            0.000287481455           
       2.396146             0.00690409678            0.000288407944           
       2.398787             0.00731344625            0.000297094444           
       2.401427             0.00678428308            0.000284407085           
       2.404067             0.00769600352            0.000307538599           
       2.406708             0.00723930651            0.000294525048           
       2.409348             0.00699107873            0.000291608849           
       2.411988             0.00616474954            0.000272958782           
       2.414629             0.00681250892            0.000287880043           
       2.417269             0.00727063064            0.000294701283           
       2.419910             0.00747987746            0.000302681427           
       2.422550             0.00675417402            0.000283257623           
       2.425190             0.00715002722            0.000300616081           
       2.427831             0.00703994969            0.000287074631           
       2.430471             0.00719311019            0.000298663004           
       2.433112             0.00685413653            0.000284661617           
       2.435752             0.00722444854            0.000299648899           
       2.438392             0.00711682592            0.000292409709           
       2.441033             0.00688631359            0.000288953242           
       2.443673             0.00694953408            0.000291051741           
       2.446313             0.00669843481            0.000284222818           
       2.448954             0.00748855652            0.000303155532           
       2.451594             0.00760398544            0.000303650072           
       2.454235             0.00754784397            0.000301585713           
       2.456875              0.0077333498            0.000306815593           
       2.459515             0.00776390923            0.000307895218           
       2.462156                0.00816533            0.000314126851           
       2.464796             0.00792760461            0.000314980056           
       2.467436             0.00756518697            0.000301244141           
       2.470077             0.00808975352             0.00031580881           
       2.472717             0.00710524641            0.000292265626           
       2.475358             0.00746831357            0.000303034529           
       2.477998             0.00786337236            0.000309287274           
       2.480638             0.00711125364            0.000294838825           
       2.483279             0.00702228509            0.000294247337           
       2.485919             0.00741721034            0.000300290786           
       2.488560             0.00758654471            0.000304958973           
       2.491200             0.00715527704            0.000295758198           
       2.493840             0.00724385107            0.000295962927           
       2.496481             0.00733787996            0.000301772907           
       2.499121             0.00738858963            0.000298782012           
       2.501761              0.0072835928            0.000301688776           
       2.504402             0.00708809669            0.000291909019           
       2.507042             0.00733705496             0.00030192817           
       2.509683             0.00760329811            0.000304558394           
       2.512323             0.00730902994            0.000299775846           
       2.514963              0.0145896202            0.000424376792           
       2.517604              0.0306354897            0.000612545678           
       2.520244              0.0327147622            0.000633130005           
       2.522884             0.00910109556            0.000333209057           
       2.525525             0.00904771493            0.000334959397           
       2.528165              0.0185034289            0.000476826976           
       2.530806              0.0202274107            0.000496674155           
       2.533446             0.00969977764            0.000346996203           
       2.536086              0.0099152479            0.000347884694           
       2.538727              0.0113037128            0.000373825919           
       2.541367              0.0110036177            0.000367775654           
       2.544008             0.00769728838               0.000307859           
       2.546648             0.00720068496            0.000298100533           
       2.549288             0.00724372097            0.000299033068           
       2.551929              0.0071439013            0.000297946484           
       2.554569             0.00687883249            0.000289694989           
       2.557209             0.00700066274            0.000295551163           
       2.559850             0.00781870602            0.000308750439           
       2.562490             0.00747282572            0.000304041797           
       2.565131              0.0071762494            0.000298465811           
       2.567771             0.00703379203            0.000293922409           
       2.570411             0.00701583711             0.00029711918           
       2.573052             0.00732436957            0.000300038348           
       2.575692              0.0073067475            0.000300472156           
       2.578332             0.00695193425            0.000292220166           
       2.580973               0.006759078            0.000290474595           
       2.583613             0.00700721983            0.000293063344           
       2.586254             0.00694931447            0.000294431914           
       2.588894             0.00637625797             0.00028052655           
       2.591534             0.00758488379            0.000306523372           
       2.594175             0.00672798048             0.00029036561           
       2.596815              0.0071119405            0.000295760464           
       2.599456             0.00698984252            0.000295609633           
       2.602096             0.00747352501            0.000304522472           
       2.604736             0.00683521469            0.000291991492           
       2.607377             0.00689042149             0.00029204719           
       2.610017             0.00669401509            0.000287754233           
       2.612657             0.00667468244             0.00028936815           
       2.615298             0.00671129971            0.000287322525           
       2.617938             0.00730084449            0.000302298259           
       2.620579             0.00724959125            0.000298774614           
       2.623219              0.0071052707            0.000300517096           
       2.625859             0.00673964664            0.000287750139           
       2.628500             0.00692790722            0.000296404001           
       2.631140             0.00672108059            0.000286797702           
       2.633780             0.00708769144            0.000298298525           
       2.636421             0.00657690373            0.000284734057           
       2.639061             0.00717099934             0.00030087099           
       2.641702             0.00724417506            0.000299169517           
       2.644342             0.00735393906            0.000303900146           
       2.646982             0.00721704329            0.000300802672           
       2.649623             0.00680935844            0.000293934724           
       2.652263             0.00753420505            0.000306723383           
       2.654904             0.00748177576            0.000307313928           
       2.657544             0.00732406306            0.000301918419           
       2.660184             0.00772133262            0.000310395101           
       2.662825             0.00690103269            0.000294147725           
       2.665465             0.00723281749            0.000301692622           
       2.668105             0.00668016249            0.000290052341           
       2.670746             0.00684271039             0.00029107612           
       2.673386             0.00649298541            0.000286976628           
       2.676027             0.00706575573            0.000296821865           
       2.678667             0.00766748312            0.000310809951           
       2.681307             0.00739915623            0.000302922154           
       2.683948             0.00788919564            0.000315898907           
       2.686588             0.00701357443            0.000295119372           
       2.689229             0.00754498531            0.000308842847           
       2.691869             0.00763668483            0.000307612569           
       2.694509             0.00728669738            0.000304601743           
       2.697150             0.00747337491            0.000303555418           
       2.699790             0.00688780139            0.000297473831           
       2.702430             0.00730191473            0.000300413392           
       2.705071             0.00724264364            0.000303286366           
       2.707711             0.00735486772            0.000302596348           
       2.710352             0.00653078213            0.000286763436           
       2.712992             0.00690410394            0.000295804353           
       2.715632             0.00722495787            0.000300878473           
       2.718273             0.00658540111            0.000288206623           
       2.720913             0.00703763765            0.000298435697           
       2.723553             0.00713018513            0.000299347735           
       2.726194             0.00685974366            0.000295031922           
       2.728834             0.00717435904            0.000299039655           
       2.731475              0.0064338601            0.000285661793           
       2.734115             0.00698499676            0.000295871999           
       2.736755             0.00747163693            0.000308027917           
       2.739396             0.00676993897            0.000291656688           
       2.742036             0.00680688762            0.000294447641           
       2.744677             0.00684140217            0.000295624788           
       2.747317             0.00763431456            0.000310769422           
       2.749957             0.00753020518            0.000310882228           
       2.752598             0.00658245887            0.000291536162           
       2.755238             0.00763672546            0.000313874597           
       2.757878             0.00717589404            0.000303390721           
       2.760519             0.00693894352            0.000295189608           
       2.763159             0.00718769281            0.000305319051           
       2.765800             0.00672465292             0.00029031817           
       2.768440             0.00681357974            0.000296081148           
       2.771080             0.00705318283            0.000298703516           
       2.773721             0.00697893789            0.000300772341           
       2.776361             0.00635835877             0.00028400504           
       2.779001             0.00701131433            0.000301366207           
       2.781642             0.00715334876            0.000302326333           
       2.784282             0.00641957043            0.000286500736           
       2.786923             0.00692006514            0.000295197222           
       2.789563             0.00674342971            0.000291990779           
       2.792203             0.00690275575             0.00029730054           
       2.794844             0.00698040847            0.000297607749           
       2.797484               0.006639359            0.000290655392           
       2.800125             0.00624231942            0.000281466499           
       2.802765             0.00690804515            0.000301584189           
       2.805405              0.0065808264            0.000290105839           
       2.808046              0.0071121139            0.000306213498           
       2.810686              0.0060795364             0.00028009655           
       2.813326             0.00706687066            0.000305721726           
       2.815967             0.00663618693            0.000294392296           
       2.818607             0.00661432923            0.000296845071           
       2.821248             0.00674645547            0.000296057141           
       2.823888             0.00711151624            0.000308857509           
       2.826528             0.00648827833            0.000293253325           
       2.829169             0.00674666595            0.000297715339           
       2.831809             0.00693116203            0.000302022971           
       2.834449             0.00684148823            0.000294825308           
       2.837090             0.00672842814            0.000294138601           
       2.839730             0.00635117712            0.000283744328           
       2.842371             0.00676065412            0.000294788043           
       2.845011             0.00691888023            0.000297552586           
       2.847651             0.00626687816            0.000283705847           
       2.850292             0.00646084015            0.000286426055           
       2.852932             0.00685487321            0.000295560116           
       2.855573             0.00716033268            0.000304726547           
       2.858213             0.00684002228            0.000294490985           
       2.860853             0.00707779325            0.000301807989           
       2.863494             0.00669870245            0.000294321244           
       2.866134             0.00698949977            0.000304858766           
       2.868774             0.00730522027            0.000306897181           
       2.871415             0.00696912748            0.000302721119           
       2.874055             0.00665254979            0.000297230607           
       2.876696             0.00654119018            0.000292078429           
       2.879336             0.00684377521            0.000300740767           
       2.881976              0.0065815759            0.000294680771           
       2.884617             0.00663726691            0.000294280978           
       2.887257             0.00670888737            0.000293801541           
       2.889897             0.00689658306             0.00030129742           
       2.892538             0.00668654697            0.000294616944           
       2.895178              0.0069923732            0.000298206783           
       2.897819             0.00682787798            0.000297709003           
       2.900459             0.00682175811            0.000295111761           
       2.903099             0.00672205507            0.000294476822           
       2.905740             0.00675985003            0.000292007217           
       2.908380             0.00689782825            0.000298904523           
       2.911021             0.00643451425            0.000289240426           
       2.913661             0.00688634212            0.000295930403           
       2.916301             0.00759747922            0.000315257012           
       2.918942             0.00620862548            0.000280689327           
       2.921582             0.00714086562            0.000304183988           
       2.924222             0.00693026018            0.000297926666           
       2.926863             0.00667273606            0.000293115392           
       2.929503             0.00658133063            0.000294332365           
       2.932144             0.00745748534            0.000308173615           
       2.934784             0.00780585875            0.000316629472           
       2.937424             0.00767295203             0.00031450298           
       2.940065             0.00686613566            0.000297750866           
       2.942705             0.00665022352            0.000293922334           
       2.945346             0.00718697422            0.000303748934           
       2.947986             0.00740520419            0.000309404281           
       2.950626             0.00821624429            0.000326909667           
       2.953267              0.0101898762            0.000360194588           
       2.955907             0.00943360733            0.000351152507           
       2.958547              0.0083609632            0.000327196673           
       2.961188             0.00754810268            0.000313598861           
       2.963828             0.00731559956            0.000306981616           
       2.966469             0.00705584283            0.000301557412           
       2.969109             0.00685635632            0.000298784252           
       2.971749             0.00774145401            0.000316550499           
       2.974390             0.00880952047            0.000338608571           
       2.977030               0.010154809            0.000362852716           
       2.979670             0.00918009394            0.000342774915           
       2.982311             0.00751595654            0.000312392501           
       2.984951             0.00818503761            0.000326843826           
       2.987592             0.00825672281            0.000327163972           
       2.990232             0.00759785738            0.000314640595           
       2.992872             0.00802697365             0.00032087357           
       2.995513             0.00892390616              0.0003409837           
       2.998153              0.0100078063            0.000363428056           
       3.000794              0.0170210919            0.000467064266           
       3.003434              0.0383145517            0.000708183201           
       3.006074              0.0371084237            0.000699193532           
       3.008715              0.0216667893            0.000538335381           
       3.011355              0.0202082113            0.000525306501           
       3.013995              0.0175869017            0.000487657046           
       3.016636              0.0291995621            0.000629537393           
       3.019276               0.132631274             0.00137376608           
       3.021917               0.389102762              0.0023130935           
       3.024557               0.139961804             0.00139836068           
       3.027197              0.0942693758             0.00116688591           
       3.029838              0.0929762782             0.00115331361           
       3.032478              0.0754645758             0.00104525028           
       3.035118              0.0493731952            0.000849814413           
       3.037759              0.0959141657             0.00118654461           
       3.040399              0.0925243209             0.00117872344           
       3.043040              0.0498371816            0.000873491078           
       3.045680              0.0573723052            0.000922767425           
       3.048320              0.0719412482             0.00104988997           
       3.050961               0.118432406             0.00136057739           
       3.053601                0.12471664             0.00139003365           
       3.056242              0.0607498947             0.00097637491           
       3.058882                0.13661219             0.00148594065           
       3.061522               0.283694053             0.00212648533           
       3.064163              0.0511727156            0.000904786351           
       3.066803              0.0188691061            0.000560041604           
       3.069443              0.0267574619            0.000662468037           
       3.072084              0.0916390737             0.00123689175           
       3.074724              0.0543308369            0.000958013193           
       3.077365              0.0118314769            0.000446741941           
       3.080005             0.00947603868            0.000404240819           
       3.082645              0.0085718659            0.000386429353           
       3.085286             0.00874169445            0.000390309782           
       3.087926             0.00785576294            0.000372357628           
       3.090566             0.00747305594            0.000366915296           
       3.093207             0.00775729537            0.000369789138           
       3.095847             0.00754454497            0.000372327171           
       3.098488             0.00805871873            0.000384107702           
       3.101128             0.00745548948            0.000371464611           
       3.103768             0.00864396776            0.000402231224           
       3.106409             0.00967094548            0.000428304722           
       3.109049              0.0093021795            0.000423324933           
       3.111690              0.0111296586            0.000461220966           
       3.114330              0.0144532017            0.000530270296           
       3.116970              0.0169801234              0.0005827546           
       3.119611              0.0164287352            0.000569484931           
       3.122251              0.0108699423            0.000467020574           
       3.124891             0.00905048114            0.000428214665           
       3.127532             0.00744661728            0.000395420233           
       3.130172             0.00838447546            0.000410950964           
       3.132813             0.00906832246            0.000436079558           
       3.135453             0.00807704539            0.000420237082           
       3.138093             0.00705330893            0.000383385545           
       3.140734             0.00662318365            0.000378426071           
       3.143374              0.0059362819            0.000363742132           
       3.146014             0.00647437264            0.000377112694           
       3.148655             0.00656909043            0.000382851904           
       3.151295              0.0064198939            0.000381475039           
       3.153936             0.00610400636             0.00037746278           
       3.156576             0.00763776908            0.000417383821           
       3.159216             0.00657996817             0.00039057263           
       3.161857             0.00623413526            0.000384833813           
       3.164497             0.00747574292            0.000430302952           
       3.167138             0.00572447487            0.000367509462           
       3.169778             0.00588354117            0.000379308123           
       3.172418             0.00581102905            0.000379166211           
       3.175059             0.00507897151            0.000359118406           
       3.177699              0.0057651813            0.000381098719           
       3.180339             0.00581505964            0.000386164893           
       3.182980             0.00605335625            0.000399316722           
       3.185620             0.00607538955            0.000404414328           
       3.188261             0.00523183491            0.000370372753           
       3.190901             0.00597059384            0.000401755444           
       3.193541             0.00640798452            0.000417582668           
       3.196182              0.0056205929            0.000399223618           
       3.198822             0.00613372923            0.000411993692           
       3.201463             0.00598389766              0.0004121929           
       3.204103             0.00592123097            0.000415488895           
       3.206743             0.00556677978            0.000406267252           
       3.209384             0.00583925361            0.000414236294           
       3.212024             0.00560633384            0.000407332465           
       3.214664             0.00602190967            0.000430206098           
       3.217305             0.00662846403            0.000461882798           
       3.219945             0.00556753216            0.000419768503           
       3.222586              0.0058879909            0.000434123114           
       3.225226             0.00608487749            0.000451263933           
       3.227866             0.00616051491             0.00045757267           
       3.230507             0.00489797637            0.000412868346           
       3.233147              0.0058739682            0.000445448359           
       3.235787             0.00675472621            0.000477808068           
       3.238428             0.00556107263            0.000441196537           
       3.241068             0.00605101705            0.000469553822           
       3.243709             0.00630447582            0.000476626787           
       3.246349             0.00670361937            0.000488733275           
       3.248989             0.00585072363            0.000467021572           
       3.251630             0.00562847129            0.000460091842           
       3.254270             0.00492133694            0.000443444673           
       3.256911             0.00577876967            0.000468484576           
       3.259551             0.00614944196            0.000493955353           
       3.262191             0.00650985674            0.000512900042           
       3.264832             0.00485613711             0.00044714512           
       3.267472             0.00605311043            0.000506300083           
       3.270112             0.00673595431            0.000535615131           
       3.272753             0.00584940834            0.000505258717           
       3.275393             0.00583528633            0.000507245998           
       3.278034             0.00543119258            0.000499336446           
       3.280674             0.00489425658            0.000475387375           
       3.283314             0.00430084992            0.000448099549           
       3.285955             0.00595967824            0.000537391131           
       3.288595             0.00502168312            0.000498794821           
       3.291235             0.00526370862            0.000513673208           
       3.293876             0.00547700981            0.000527080182           
       3.296516             0.00643965568            0.000583183424           
       3.299157             0.00561457461            0.000552773576           
       3.301797             0.00545790173            0.000545238131           
       3.304437             0.00508912924            0.000536364987           
       3.307078             0.00664026709            0.000618628719           
       3.309718             0.00529120904            0.000557735754           
       3.312359             0.00589223285            0.000600452562           
       3.314999             0.00494965174            0.000556106927           
       3.317639             0.00556256139            0.000595881452           
       3.320280             0.00578142566            0.000616362352           
       3.322920             0.00612575794            0.000643944229           
       3.325560               0.006356284            0.000668615049           
       3.328201             0.00471622865            0.000578367557           
       3.330841             0.00471612983            0.000592427717           
       3.333482             0.00545486985            0.000645229551           
       3.336122             0.00550788218             0.00066244902           
       3.338762             0.00620231863            0.000709400245           
       3.341403             0.00637323689            0.000725779473           
       3.344043             0.00459762879            0.000639968994           
       3.346683              0.0052323587            0.000689641489           
       3.349324             0.00605940148            0.000753634693           
       3.351964             0.00473249242            0.000687437384           
       3.354605              0.0064752752            0.000813219056           
       3.357245             0.00575302546            0.000793468552           
       3.359885             0.00531698466            0.000763080483           
       3.362526             0.00597293337            0.000850135961           
       3.365166             0.00409595266            0.000695307237           
       3.367807             0.00413676284            0.000748000714           
       3.370447             0.00565302383            0.000874742958           
       3.373087             0.00611739324            0.000960372421           
       3.375728             0.00528858767            0.000886198297           
       3.378368             0.00618912389             0.00103593021           
       3.381008             0.00573375083            0.000988398104           
       3.383649             0.00692748465             0.00117576049           
       3.386289             0.00667890429             0.00115494887           
       3.388930             0.00427387669             0.00101466144           
       3.391570             0.00616477158             0.00121913198           
       3.394210             0.00216350915            0.000773846659           
       3.396851             0.00540504037             0.00132494574           
       3.399491             0.00623761755             0.00144917028           
       3.402131             0.00500450204             0.00153652024           
       3.404772             0.00408241812             0.00138836188           
       3.407412             0.00422958359             0.00175355926           
       3.410053            0.000733898712            0.000760600304           
       3.412693             0.00291840967             0.00214589559           
       3.415333             0.00212490563              0.0022435074           
