################################################################################
# EDF_DataBlockID                     0.Image.Psd
# EDF_BinarySize                      2105344
# EDF_HeaderSize                      2560
# ByteOrder                           LowByteFirst
# DataType                            FloatValue
# Dim_1                               512
# Dim_2                               1028
# Image                               0
# HeaderID                            EH:000000:000000:000000
# Size                                2105344
# Center_1                            304.9000
# Center_2                            588.7000
# Comment                             Xenocs_Cell_Window - front_window_open_only
# DDummy                              0.6
# Date                                2025-10-18T22:51:04
# Delta                               21.910000
# Dummy                               -1.5
# ExposureTime                        360
# Gamma                               15.360000
# Intensity1                          8.99588e-10
# PSize_1                             7.5e-05
# PSize_2                             7.5e-05
# Pressure                            0.0332394
# SampleDistance                      0.115750
# SampleEnvKind                       large
# SampleEnvPN                         ElectroChemical cell
# SampleEnvSN                         1141
# Thickness                           0
# Wavelength                          1.541891e-10
# Wavelength                          1.54189e-10
# aux                                 0
# aux_dial                            0.002375
# beamx                               588.429
# beamx_dial                          588.429
# beamz                               657.855
# beamz_dial                          657.855
# det0x                               -0.000396875
# det0x_dial                          6.36905
# det0xvd                             -0.0005
# det0xvd_dial                        -0.0005
# det0y                               450.002
# det0y_dial                          481.635
# det0z                               0
# det0z_dial                          1.2295
# det0zvd                             0
# det0zvd_dial                        0
# mag                                 1.818
# mag_dial                            1.818
# om                                  0.2499
# om_dial                             -0.610199
# phi                                 -0.0120535
# phi_dial                            0
# ry                                  0.599993
# ry_dial                             0.599993
# s1bot                               0.8
# s1bot_dial                          -1.66094
# s1hl                                0.8
# s1hl_dial                           -0.608437
# s1hr                                0.8
# s1hr_dial                           0.970938
# s1top                               0.8
# s1top_dial                          -0.461562
# s2bot                               0.45
# s2bot_dial                          1.36109
# s2hl                                0.45
# s2hl_dial                           -0.83375
# s2hr                                0.45
# s2hr_dial                           -0.118594
# s2top                               0.45
# s2top_dial                          1.44734
# w2theta                             32
# w2theta_dial                        32
# waxsch                              19.2605
# waxsch_dial                         -32.7238
# waxsh                               137.085
# waxsh_dial                          -43.5335
# waxsth                              26.0607
# waxsth_dial                         -19.4068
# waxsz                               67.0407
# waxsz_dial                          -23.7962
# wind                                65.9854
# wind_dial                           66.0041
# wpsi                                124
# wpsi_dial                           124
# wstod                               115
# wstod_dial                          115
# x                                   0
# x_dial                              1.00969
# z                                   0
# z_dial                              13.3172
# CountCutoff                         6807993
# DetectorModel                       Dectris EIGER2 Si 500K, S/N E-01-0554
# ThresholdSetting                    4023.88989258
# Saturation                          0
# FlatField                           Corrected
# BackgroundReductionExtra            0.02
# BackgroundCorrectionConstant        0.0026712
# Detector                            0
# Monitor                             0
# Pil_Roi0                            0
# SumForIntensity1                    3.23852e+08
# TransmittedFlux                     899588
# det                                 0
# mon                                 0
# pilai0                              3.23852e+08
# pilai1                              701177
# pilct0                              5.60753e+08
# pilct1                              701177
# pilroi0                             0
# pilroi1                             0
# sec                                 1
# title                               20251017__1_00261.edf
# usaxs0                              0
# Operation                           Azimuthal average I(q)
# Error_model                         ErrorModel.poisson
# Geometrical_correction              True
# Transmission_correction             True
# Thickness_correction                False
# Binning mode                        Uniform
# Binning factor                      1.0
# Psi                                 0.0
# Omega                               0.2499
# MaskInvalidPixels                   True
# DetectorEdge                        3
# MaskFiles                           ['20251017__1_00233_mask.edf']
################################################################################
    q(A⁻¹)                Intensity(a.u.)            Sigma_I(a.u.)            
       0.690460           -2.25773289e-05                         0           
       0.693100             0.00470407757             0.00281908424           
       0.695741              0.0115234552             0.00372759136           
       0.698381             0.00920184969             0.00311544918           
       0.701021             0.00616063869             0.00208046704           
       0.703662             0.00812080299             0.00221100536           
       0.706302             0.00603457816               0.001840728           
       0.708942             0.00649358032              0.0016961029           
       0.711583             0.00915050736             0.00201304335           
       0.714223             0.00594389329             0.00141380745           
       0.716864             0.00481527944             0.00129854564           
       0.719504             0.00624236334             0.00136835209           
       0.722144             0.00554687834             0.00124575704           
       0.724785             0.00807292521             0.00147824834           
       0.727425             0.00572024649             0.00115418965           
       0.730065             0.00631589037             0.00124789675           
       0.732706             0.00849873232             0.00130171612           
       0.735346             0.00435529817             0.00100656191           
       0.737987             0.00668041573             0.00107899949           
       0.740627             0.00770231418             0.00126922292           
       0.743267             0.00940454522              0.0012063733           
       0.745908             0.00688039049             0.00110586602           
       0.748548             0.00627844642            0.000985263224           
       0.751189             0.00793222377             0.00109701529           
       0.753829             0.00550651952            0.000922261111           
       0.756469             0.00569141778            0.000881872031           
       0.759110             0.00665441558            0.000986311028           
       0.761750             0.00828478121             0.00100720444           
       0.764390             0.00827124981              0.0010802952           
       0.767031             0.00781446869            0.000950165936           
       0.769671             0.00516122858            0.000818936888           
       0.772312             0.00621852106            0.000819150431           
       0.774952             0.00627023517            0.000881816736           
       0.777592             0.00577416859            0.000773991573           
       0.780233             0.00619070148            0.000844866876           
       0.782873             0.00707270509            0.000825790536           
       0.785513             0.00671605969            0.000856009922           
       0.788154             0.00747155468            0.000829300725           
       0.790794             0.00548191187            0.000735192176           
       0.793435             0.00550844839             0.00070785194           
       0.796075             0.00565091406            0.000720735018           
       0.798715             0.00638655616            0.000761839055           
       0.801356             0.00580229575            0.000706722575           
       0.803996             0.00600345708            0.000730356874           
       0.806637             0.00726021788            0.000759210772           
       0.809277             0.00707171546            0.000783879511           
       0.811917             0.00579687101             0.00067159628           
       0.814558             0.00649513452            0.000728266431           
       0.817198             0.00634935193            0.000686565531           
       0.819838             0.00528813484            0.000653578021           
       0.822479             0.00739124592              0.0007120751           
       0.825119              0.0077145289            0.000781501499           
       0.827760             0.00568323983            0.000621536519           
       0.830400             0.00690087033            0.000721617958           
       0.833040             0.00646204745            0.000651710488           
       0.835681             0.00786759218            0.000753053222           
       0.838321             0.00716415332             0.00067259621           
       0.840961             0.00652133092            0.000670745276           
       0.843602             0.00754606517            0.000679645417           
       0.846242             0.00704612919            0.000679933365           
       0.848883             0.00672516832            0.000646182522           
       0.851523             0.00600283328             0.00061506974           
       0.854163             0.00557279013            0.000585743585           
       0.856804             0.00668272085             0.00062501567           
       0.859444             0.00553727015            0.000573024823           
       0.862085             0.00642462933            0.000608255162           
       0.864725             0.00674796834            0.000621084802           
       0.867365             0.00644955054            0.000602847871           
       0.870006             0.00732265715            0.000651320603           
       0.872646             0.00763818075            0.000636254652           
       0.875286             0.00759718022            0.000656165645           
       0.877927             0.00677886864            0.000593452547           
       0.880567             0.00579698302            0.000559513872           
       0.883208             0.00735138358            0.000611881412           
       0.885848               0.006878344            0.000607216789           
       0.888488              0.0072734989            0.000593706775           
       0.891129             0.00626856719            0.000579376728           
       0.893769             0.00676903516            0.000569096972           
       0.896410             0.00612652976            0.000558092262           
       0.899050             0.00706113248            0.000577698418           
       0.901690             0.00764590418            0.000613691949           
       0.904331             0.00679640745            0.000558395903           
       0.906971             0.00823617597            0.000634739665           
       0.909611             0.00637811826            0.000536135157           
       0.912252             0.00662264058            0.000555782208           
       0.914892             0.00606756024            0.000518506527           
       0.917533             0.00727790538             0.00058068538           
       0.920173             0.00812100736            0.000588401602           
       0.922813             0.00671647915            0.000559195206           
       0.925454             0.00763695198            0.000565908325           
       0.928094             0.00721643472            0.000561915202           
       0.930734              0.0092496236             0.00062098491           
       0.933375             0.00735390932            0.000565508147           
       0.936015              0.0077521294            0.000555544663           
       0.938656             0.00741004236            0.000565931491           
       0.941296             0.00656509974            0.000513511152           
       0.943936             0.00670860052            0.000528441744           
       0.946577              0.0079593361            0.000554336833           
       0.949217             0.00745583835            0.000555464839           
       0.951858             0.00659407431            0.000493847436           
       0.954498             0.00746049721            0.000552628715           
       0.957138             0.00737812209            0.000528217649           
       0.959779             0.00711139723             0.00052992489           
       0.962419             0.00688390107            0.000501930007           
       0.965059             0.00666667588            0.000507977482           
       0.967700             0.00752813857            0.000522344862           
       0.970340              0.0069814631            0.000517156483           
       0.972981             0.00622303567            0.000471427708           
       0.975621             0.00693623867            0.000508130706           
       0.978261             0.00749809588            0.000504074088           
       0.980902             0.00736100588            0.000523225904           
       0.983542             0.00655652168            0.000479428913           
       0.986182             0.00723509396            0.000510260044           
       0.988823             0.00775161903            0.000511118818           
       0.991463             0.00725250284            0.000506198422           
       0.994104             0.00716228332            0.000486083919           
       0.996744             0.00737746284            0.000509329853           
       0.999384             0.00749541576            0.000495960871           
       1.002025              0.0072145553            0.000500127885           
       1.004665             0.00803410063            0.000506151728           
       1.007306             0.00678004278            0.000480553971           
       1.009946             0.00831754855            0.000511784527           
       1.012586             0.00906559382            0.000549672479           
       1.015227             0.00749282827            0.000484596005           
       1.017867              0.0079847648            0.000514586572           
       1.020507              0.0074038369            0.000476859936           
       1.023148             0.00708134462            0.000471991812           
       1.025788             0.00734665746            0.000475829655           
       1.028429             0.00736780463            0.000486930949           
       1.031069             0.00831178412            0.000498281601           
       1.033709             0.00799365591            0.000498036424           
       1.036350              0.0083023199            0.000494251606           
       1.038990             0.00803764233            0.000498315348           
       1.041630              0.0075779729            0.000474547673           
       1.044271             0.00895012766            0.000515782618           
       1.046911             0.00824556284            0.000485866801           
       1.049552             0.00735597477            0.000475447664           
       1.052192             0.00737537224            0.000454665761           
       1.054832             0.00750206816            0.000467471849           
       1.057473              0.0073323546            0.000456303253           
       1.060113             0.00761515944             0.00047005524           
       1.062754             0.00846561113            0.000490126816           
       1.065394             0.00803221931            0.000472393078           
       1.068034             0.00789911493            0.000466648982           
       1.070675             0.00773210407            0.000469810028           
       1.073315             0.00831544437            0.000472317559           
       1.075955             0.00890384371            0.000496939405           
       1.078596             0.00930775779            0.000507081687           
       1.081236             0.00887850209            0.000487905255           
       1.083877             0.00859034448            0.000494914495           
       1.086517             0.00810679848            0.000469907545           
       1.089157             0.00834089712            0.000480138602           
       1.091798             0.00767573036            0.000450837154           
       1.094438             0.00776400588            0.000460628456           
       1.097078             0.00786822533            0.000451793565           
       1.099719             0.00834993542            0.000477346218           
       1.102359             0.00778960388            0.000436763177           
       1.105000             0.00770467291            0.000451482918           
       1.107640             0.00814383109            0.000449040774           
       1.110280              0.0080098143            0.000454247768           
       1.112921             0.00842151193             0.00045734758           
       1.115561             0.00834252934            0.000460974629           
       1.118202             0.00843326038            0.000449947232           
       1.120842             0.00840130996            0.000463244006           
       1.123482             0.00789267414            0.000436406854           
       1.126123             0.00834578213             0.00045155946           
       1.128763             0.00866655891            0.000457873316           
       1.131403             0.00831552835            0.000447807395           
       1.134044             0.00852629114            0.000452659839           
       1.136684             0.00885127366            0.000464671848           
       1.139325             0.00900675135            0.000455528361           
       1.141965              0.0085029512            0.000448393442           
       1.144605             0.00903539306            0.000464934157           
       1.147246              0.0090105494            0.000455501335           
       1.149886             0.00829329559            0.000440103995           
       1.152527             0.00848428255            0.000445588788           
       1.155167             0.00839180783            0.000436923031           
       1.157807             0.00801207246            0.000427217168           
       1.160448             0.00931691497            0.000466997113           
       1.163088             0.00846956324            0.000428736011           
       1.165728             0.00839818638            0.000444522679           
       1.168369             0.00878582062            0.000438434515           
       1.171009             0.00890124076            0.000444963794           
       1.173650             0.00846122879            0.000430698164           
       1.176290             0.00895987186            0.000448408064           
       1.178930             0.00839417485            0.000421820929           
       1.181571             0.00882383422            0.000446607279           
       1.184211              0.0084283132            0.000423300647           
       1.186851             0.00913179706            0.000444675097           
       1.189492             0.00919783404            0.000448758238           
       1.192132             0.00955084832            0.000450516309           
       1.194773              0.0089092162            0.000432495139           
       1.197413             0.00913640272            0.000441547509           
       1.200053             0.00948240846            0.000447000543           
       1.202694             0.00839560138            0.000417435627           
       1.205334             0.00933565438            0.000444997662           
       1.207975             0.00944911657            0.000438921714           
       1.210615             0.00946752618            0.000448639623           
       1.213255             0.00912757618            0.000428857499           
       1.215896             0.00890081902             0.00043152434           
       1.218536             0.00990108486            0.000442017339           
       1.221176             0.00891051658              0.0004293324           
       1.223817             0.00876974179             0.00041705215           
       1.226457               0.009469903            0.000438885514           
       1.229098             0.00914150051            0.000424666618           
       1.231738             0.00836419392            0.000411930838           
       1.234378             0.00859611377            0.000409488568           
       1.237019              0.0105261105            0.000456786856           
       1.239659             0.00916097435            0.000425907638           
       1.242299             0.00937796419            0.000428719195           
       1.244940              0.0093989431            0.000424565567           
       1.247580               0.009243161            0.000422891448           
       1.250221             0.00963574302            0.000438826834           
       1.252861             0.00968016785            0.000423450472           
       1.255501             0.00862736697            0.000411047804           
       1.258142              0.0100875625            0.000435686734           
       1.260782               0.009025917            0.000416778239           
       1.263423             0.00992682889            0.000428424311           
       1.266063              0.0101129791            0.000440482382           
       1.268703             0.00940640064            0.000414112622           
       1.271344               0.010092076            0.000438282764           
       1.273984             0.00963156671            0.000421482419           
       1.276624              0.0099861628            0.000426552383           
       1.279265             0.00991945809            0.000426053557           
       1.281905             0.00933141826            0.000415779184           
       1.284546              0.0112930932            0.000452402347           
       1.287186             0.00975967902            0.000420971973           
       1.289826              0.0101671949            0.000431899085           
       1.292467              0.0101803775            0.000424465417           
       1.295107              0.0101138714            0.000430534009           
       1.297747              0.0106113358            0.000429428022           
       1.300388             0.00892245172            0.000403886201           
       1.303028             0.00959525133            0.000408186361           
       1.305669              0.0106376002            0.000435338704           
       1.308309             0.00998969577            0.000415529558           
       1.310949               0.010240084            0.000425948531           
       1.313590              0.0101700669            0.000417920492           
       1.316230              0.0105637861            0.000433600085           
       1.318871             0.00975182804            0.000407615567           
       1.321511               0.010316484            0.000421351505           
       1.324151              0.0105511505            0.000427800525           
       1.326792             0.00970181602            0.000406898013           
       1.329432             0.00989563862            0.000413086009           
       1.332072              0.0103130641            0.000414477299           
       1.334713               0.010971662            0.000432808761           
       1.337353               0.011336976            0.000433187652           
       1.339994              0.0103065078            0.000418914586           
       1.342634              0.0108355473            0.000419861816           
       1.345274              0.0118241051            0.000444330326           
       1.347915              0.0111979367            0.000433554688           
       1.350555              0.0103118498            0.000414422334           
       1.353195              0.0107722938            0.000415470536           
       1.355836              0.0109462879            0.000426714541           
       1.358476              0.0111015942            0.000428522391           
       1.361117              0.0107177753            0.000410487097           
       1.363757             0.00989794587            0.000407548408           
       1.366397             0.00975432187            0.000391981757           
       1.369038              0.0110683979             0.00042635196           
       1.371678              0.0104645704            0.000406188385           
       1.374319              0.0102984168            0.000406146655           
       1.376959              0.0105041251             0.00040453598           
       1.379599              0.0111899152             0.00042567135           
       1.382240              0.0105889725            0.000406218581           
       1.384880              0.0104762307            0.000409011183           
       1.387520              0.0100922238             0.00039675141           
       1.390161              0.0102811289            0.000399358971           
       1.392801              0.0108876463            0.000413419385           
       1.395442              0.0101140984            0.000394333842           
       1.398082              0.0110253438            0.000413123782           
       1.400722              0.0108100636            0.000407222571           
       1.403363             0.00950222932            0.000385338186           
       1.406003              0.0111241935            0.000406692608           
       1.408644              0.0103864811            0.000401226215           
       1.411284              0.0096337569              0.0003842949           
       1.413924               0.010353498            0.000393478117           
       1.416565              0.0102846798            0.000391707229           
       1.419205              0.0105717853            0.000401049012           
       1.421845              0.0106745869            0.000397927881           
       1.424486              0.0102776286            0.000392182643           
       1.427126              0.0109199299            0.000403996622           
       1.429767              0.0099548389            0.000379787275           
       1.432407              0.0103639374            0.000397274457           
       1.435047              0.0102576345            0.000383354829           
       1.437688              0.0100843367            0.000388520067           
       1.440328              0.0108398593            0.000395005294           
       1.442968              0.0108097226            0.000399916252           
       1.445609              0.0102358127             0.00038275444           
       1.448249              0.0103545136             0.00038745652           
       1.450890              0.0105713156            0.000388699057           
       1.453530              0.0100409844             0.00038162967           
       1.456170              0.0108261475            0.000395377636           
       1.458811              0.0106932868            0.000389817886           
       1.461451              0.0101192546            0.000381998091           
       1.464092             0.00987822751            0.000374131479           
       1.466732               0.010814292            0.000389055726           
       1.469372              0.0104147369            0.000380627257           
       1.472013              0.0102774599            0.000384875143           
       1.474653              0.0100680923            0.000371528779           
       1.477293              0.0105713991             0.00038711004           
       1.479934              0.0107027612            0.000385430997           
       1.482574              0.0112198486            0.000393657988           
       1.485215              0.0102216907              0.0003767071           
       1.487855              0.0106068132            0.000383658808           
       1.490495              0.0102178324            0.000375747706           
       1.493136              0.0104016333            0.000374140438           
       1.495776              0.0102272949            0.000377459868           
       1.498416              0.0104576511            0.000374271991           
       1.501057              0.0101264687            0.000371465765           
       1.503697              0.0104266457            0.000373307119           
       1.506338              0.0102073012            0.000372075936           
       1.508978             0.00953145475            0.000357424148           
       1.511618             0.00989530508            0.000363998298           
       1.514259              0.0102832208            0.000371734603           
       1.516899             0.00982129109            0.000363458557           
       1.519540             0.00965910549            0.000358444794           
       1.522180              0.0101109427            0.000362152833           
       1.524820              0.0102937027            0.000372791625           
       1.527461              0.0098871795            0.000357273885           
       1.530101              0.0105481571            0.000372838377           
       1.532741              0.0103459475             0.00036749796           
       1.535382             0.00956547466            0.000354142806           
       1.538022              0.0102823165            0.000363924339           
       1.540663             0.00929608795             0.00034930192           
       1.543303              0.0102306654            0.000361879853           
       1.545943             0.00954622572            0.000351524383           
       1.548584             0.00958784156            0.000354165726           
       1.551224              0.0100559477            0.000353409602           
       1.553864               0.010367851            0.000368222913           
       1.556505             0.00963084026            0.000349434559           
       1.559145              0.0101219998            0.000359062268           
       1.561786              0.0101227872            0.000357449525           
       1.564426              0.0100985566            0.000356698984           
       1.567066             0.00910634657             0.00033607893           
       1.569707              0.0095061779            0.000348349001           
       1.572347              0.0094253513            0.000342364616           
       1.574988             0.00944077573            0.000341289125           
       1.577628             0.00957815977             0.00035150317           
       1.580268              0.0091304417            0.000331346184           
       1.582909             0.00933080301             0.00034122719           
       1.585549             0.00914078327            0.000334578572           
       1.588189             0.00893891954             0.00033455897           
       1.590830             0.00904067328            0.000330682257           
       1.593470             0.00944924217             0.00034083263           
       1.596111             0.00912254109            0.000331995086           
       1.598751             0.00933457341            0.000339264271           
       1.601391              0.0087794513            0.000326918106           
       1.604032             0.00897354885            0.000327752073           
       1.606672             0.00888135511             0.00033262669           
       1.609312             0.00856149865            0.000316864589           
       1.611953             0.00895855594            0.000328826339           
       1.614593             0.00882946487            0.000323965701           
       1.617234              0.0084330373            0.000318404099           
       1.619874             0.00894692618            0.000324103809           
       1.622514             0.00840684235            0.000316947798           
       1.625155             0.00870241127             0.00032167383           
       1.627795              0.0083601065            0.000312097936           
       1.630436             0.00869607775            0.000321506815           
       1.633076             0.00847834201            0.000315843409           
       1.635716             0.00886983426            0.000322489878           
       1.638357             0.00860350845            0.000316261999           
       1.640997             0.00889113591            0.000324019371           
       1.643637             0.00863370569            0.000313365173           
       1.646278             0.00804462163            0.000307013469           
       1.648918             0.00870275686            0.000315208334           
       1.651559             0.00824280987            0.000310622808           
       1.654199             0.00902045728            0.000320490969           
       1.656839             0.00847340141            0.000310537077           
       1.659480             0.00814260574            0.000307096215           
       1.662120             0.00893942607            0.000317459649           
       1.664761             0.00866346929            0.000315905026           
       1.667401             0.00877679741            0.000315002395           
       1.670041             0.00840570803            0.000308623989           
       1.672682             0.00819024879             0.00030177627           
       1.675322             0.00830745971            0.000309301697           
       1.677962             0.00856508981            0.000307823838           
       1.680603             0.00876240264            0.000314112507           
       1.683243             0.00864419602            0.000309678603           
       1.685884             0.00885905139            0.000314696573           
       1.688524             0.00879097023            0.000312603044           
       1.691164             0.00762545177            0.000290395504           
       1.693805             0.00816985917            0.000303013682           
       1.696445             0.00829697944            0.000301123749           
       1.699085             0.00800299385            0.000296921513           
       1.701726             0.00847584912            0.000301592731           
       1.704366             0.00783042781            0.000296935999           
       1.707007             0.00841920425            0.000301326789           
       1.709647             0.00821202548            0.000301293839           
       1.712287             0.00876548337            0.000306079192           
       1.714928              0.0086495615            0.000307105844           
       1.717568             0.00869505067            0.000305080897           
       1.720209             0.00798945873            0.000294246432           
       1.722849             0.00872267836            0.000307945058           
       1.725489             0.00852061942            0.000299506313           
       1.728130             0.00822535591            0.000300261635           
       1.730770             0.00802033067            0.000290228664           
       1.733410             0.00791580221             0.00029211631           
       1.736051             0.00862474586            0.000300184003           
       1.738691             0.00806745517            0.000293287201           
       1.741332             0.00793235981             0.00028903094           
       1.743972             0.00817200255             0.00029347319           
       1.746612              0.0085574466            0.000300383578           
       1.749253             0.00812767377            0.000294008593           
       1.751893             0.00794656207            0.000288970254           
       1.754533             0.00791727161            0.000284478454           
       1.757174             0.00826297029            0.000296056484           
       1.759814             0.00829547521            0.000292115815           
       1.762455             0.00813039517            0.000291656698           
       1.765095             0.00819505848            0.000288702149           
       1.767735             0.00879037486             0.00030408526           
       1.770376             0.00883123283            0.000300168912           
       1.773016             0.00839238261             0.00029307755           
       1.775657             0.00877195396            0.000300245803           
       1.778297             0.00786150932            0.000285628236           
       1.780937             0.00830569838            0.000292216606           
       1.783578              0.0079323988            0.000284233302           
       1.786218             0.00821424836             0.00029385437           
       1.788858             0.00792312855            0.000281429831           
       1.791499             0.00798999141            0.000287823457           
       1.794139             0.00844874823            0.000290505646           
       1.796780             0.00865277203            0.000295739205           
       1.799420             0.00882506821            0.000298288855           
       1.802060             0.00867002197            0.000292020549           
       1.804701             0.00873034456            0.000296965974           
       1.807341             0.00877807844            0.000294899407           
       1.809981             0.00934935113            0.000306365341           
       1.812622             0.00923715395            0.000302862405           
       1.815262             0.00919157188            0.000303191432           
       1.817903             0.00921832839            0.000299881169           
       1.820543             0.00838038945            0.000289461102           
       1.823183             0.00860730215            0.000288833735           
       1.825824             0.00911271189            0.000301662031           
       1.828464             0.00908306983            0.000300246958           
       1.831105             0.00860024285            0.000293288988           
       1.833745             0.00829527743            0.000287862237           
       1.836385             0.00821127581            0.000285287111           
       1.839026             0.00861165255            0.000296551401           
       1.841666             0.00840584409            0.000289182014           
       1.844306             0.00872950124            0.000298417182           
       1.846947             0.00850790217            0.000290819256           
       1.849587             0.00914209063            0.000305552162           
       1.852228             0.00858402335             0.00029293025           
       1.854868             0.00876018913            0.000301348213           
       1.857508             0.00838659366            0.000289408007           
       1.860149             0.00892871771            0.000301009004           
       1.862789             0.00840439542            0.000293329445           
       1.865429             0.00810407471            0.000288909295           
       1.868070              0.0085742268            0.000296144727           
       1.870710              0.0082477015            0.000291242069           
       1.873351             0.00792873604             0.00028737791           
       1.875991             0.00832858221            0.000296128255           
       1.878631             0.00912196474            0.000307031575           
       1.881272             0.00830371059            0.000292251289           
       1.883912              0.0083581431            0.000296646291           
       1.886553             0.00840819746            0.000293964172           
       1.889193              0.0086711894            0.000301974549           
       1.891833             0.00897316565            0.000303691957           
       1.894474             0.00864755737            0.000300490579           
       1.897114             0.00864659292            0.000298143137           
       1.899754              0.0088004756            0.000304157705           
       1.902395             0.00879884597            0.000304194379           
       1.905035              0.0084861757             0.00029756992           
       1.907676             0.00886579053            0.000304506348           
       1.910316             0.00844802744            0.000299140776           
       1.912956             0.00858539383            0.000301551025           
       1.915597             0.00832895499            0.000293916859           
       1.918237             0.00817917228             0.00029568336           
       1.920878             0.00835366472             0.00029353233           
       1.923518              0.0089752621             0.00031234098           
       1.926158             0.00879058154            0.000302007755           
       1.928799             0.00815074915             0.00029467355           
       1.931439             0.00772395103            0.000284555981           
       1.934079             0.00823965711            0.000296878301           
       1.936720             0.00858009337            0.000301166176           
       1.939360             0.00880086231            0.000307955815           
       1.942001             0.00877005564            0.000306233731           
       1.944641             0.00857195006             0.00030145063           
       1.947281             0.00782151308            0.000289344306           
       1.949922             0.00845411182             0.00030119432           
       1.952562             0.00825477399            0.000300183295           
       1.955202             0.00864173503            0.000299421819           
       1.957843             0.00802056805            0.000297623383           
       1.960483             0.00810315982            0.000294380149           
       1.963124             0.00786511678            0.000289808909           
       1.965764             0.00831791988            0.000298141035           
       1.968404             0.00805742875            0.000298682737           
       1.971045             0.00855155171            0.000299991564           
       1.973685             0.00761640019            0.000288397346           
       1.976326             0.00826695821            0.000299151818           
       1.978966             0.00803185245            0.000296262624           
       1.981606             0.00792692901            0.000291208551           
       1.984247             0.00742104269            0.000284219976           
       1.986887              0.0078378508            0.000294824411           
       1.989527             0.00788898139              0.0002896223           
       1.992168             0.00806891938            0.000299973603           
       1.994808             0.00819149228            0.000298727874           
       1.997449             0.00732839338            0.000282137797           
       2.000089             0.00801069079            0.000293242581           
       2.002729             0.00790472244            0.000297971458           
       2.005370             0.00837934611            0.000300954775           
       2.008010             0.00810902905             0.00029999129           
       2.010650             0.00788196875            0.000294915368           
       2.013291             0.00813731741            0.000301360021           
       2.015931             0.00775618267            0.000292112101           
       2.018572             0.00756959742            0.000292409767           
       2.021212             0.00769909715            0.000292253769           
       2.023852             0.00768058876            0.000293435697           
       2.026493             0.00772259168            0.000292947516           
       2.029133             0.00753911043            0.000287238493           
       2.031774             0.00757545435            0.000290722258           
       2.034414             0.00801624208            0.000297275963           
       2.037054             0.00793206863            0.000299439782           
       2.039695             0.00769145008            0.000289055033           
       2.042335             0.00824726117            0.000304411733           
       2.044975             0.00762286198            0.000290322476           
       2.047616             0.00750708162            0.000289343814           
       2.050256             0.00727638494            0.000281512443           
       2.052897             0.00782176994            0.000300516285           
       2.055537             0.00756789072            0.000287539794           
       2.058177              0.0082818271            0.000303454098           
       2.060818             0.00700599898            0.000279941203           
       2.063458             0.00710675801            0.000282335384           
       2.066098             0.00778342972            0.000294159895           
       2.068739             0.00792687816            0.000299953444           
       2.071379             0.00760898912             0.00028953755           
       2.074020             0.00808149759            0.000302478248           
       2.076660             0.00740904018            0.000287657248           
       2.079300             0.00732505376            0.000285980769           
       2.081941              0.0072213605            0.000285675648           
       2.084581             0.00718756591            0.000285217526           
       2.087222             0.00783590737            0.000298006469           
       2.089862             0.00766327165             0.00029103223           
       2.092502             0.00715968291            0.000286418554           
       2.095143             0.00767231202            0.000292257538           
       2.097783              0.0074538308            0.000292449684           
       2.100423             0.00709367393            0.000279826413           
       2.103064             0.00739123681            0.000290566858           
       2.105704              0.0070973547            0.000283642392           
       2.108345              0.0074910788            0.000292741534           
       2.110985             0.00800498956            0.000298365931           
       2.113625              0.0070830626            0.000285081254           
       2.116266             0.00769848545            0.000295008405           
       2.118906              0.0070169783            0.000281443303           
       2.121546             0.00760093593            0.000292687666           
       2.124187             0.00773504137            0.000299342272           
       2.126827             0.00743232942            0.000288824657           
       2.129468             0.00738834936            0.000290973991           
       2.132108             0.00710805732            0.000284810715           
       2.134748             0.00776758858            0.000296608893           
       2.137389             0.00695355344            0.000282987206           
       2.140029             0.00742249662            0.000291663756           
       2.142670             0.00735021153            0.000290714321           
       2.145310             0.00730976177            0.000291020896           
       2.147950             0.00732296308            0.000292409622           
       2.150591             0.00796258968              0.0003021163           
       2.153231             0.00721652399            0.000291866837           
       2.155871              0.0071460867            0.000286244368           
       2.158512             0.00747428519            0.000298018781           
       2.161152             0.00700321117            0.000281268446           
       2.163793             0.00773945989            0.000300495122           
       2.166433             0.00733705113            0.000287505216           
       2.169073             0.00760728925            0.000299587113           
       2.171714             0.00775846089            0.000296389685           
       2.174354             0.00810600815            0.000307584942           
       2.176995             0.00719817709            0.000287445325           
       2.179635             0.00742518264            0.000297467724           
       2.182275             0.00715509652            0.000286210922           
       2.184916             0.00703189367            0.000289732829           
       2.187556             0.00716457526            0.000287745234           
       2.190196             0.00727627884            0.000294537561           
       2.192837             0.00780903596            0.000301788531           
       2.195477             0.00725395211            0.000293670668           
       2.198118             0.00740342001            0.000291203533           
       2.200758              0.0074559921            0.000296773841           
       2.203398             0.00788846691            0.000300197251           
       2.206039             0.00741183466            0.000295434479           
       2.208679             0.00772617143            0.000298681453           
       2.211319             0.00762462126            0.000298108691           
       2.213960             0.00789931287            0.000300204938           
       2.216600             0.00755756271            0.000300557817           
       2.219241             0.00742901352             0.00029365841           
       2.221881              0.0075855645            0.000298283134           
       2.224521             0.00762592752            0.000298038328           
       2.227162             0.00732155961            0.000296616961           
       2.229802             0.00734934893             0.00029235541           
       2.232443             0.00711935861            0.000288875801           
       2.235083             0.00696059404            0.000283923852           
       2.237723             0.00710497016            0.000289051594           
       2.240364             0.00709800529            0.000287440371           
       2.243004             0.00714521704            0.000289265995           
       2.245644             0.00733010815            0.000292308074           
       2.248285             0.00750098057            0.000297614979           
       2.250925             0.00747848598            0.000295778772           
       2.253566             0.00702956278            0.000287464988           
       2.256206             0.00682740742            0.000282452775           
       2.258846             0.00705955375            0.000287217193           
       2.261487             0.00748220298            0.000296201446           
       2.264127             0.00667112141            0.000282333051           
       2.266767             0.00691603882            0.000282822643           
       2.269408             0.00740706274            0.000296166628           
       2.272048               0.007156048            0.000289314354           
       2.274689             0.00693779331            0.000285988424           
       2.277329             0.00743463665            0.000295658369           
       2.279969             0.00754563813            0.000298760119           
       2.282610               0.007203717            0.000289065933           
       2.285250             0.00751333797            0.000299855682           
       2.287891             0.00719847332            0.000290543559           
       2.290531             0.00736409472            0.000295316096           
       2.293171             0.00711877614            0.000290341216           
       2.295812             0.00691323062            0.000284600303           
       2.298452              0.0068098072             0.00028427254           
       2.301092             0.00693817677            0.000288762096           
       2.303733             0.00713217479            0.000286980433           
       2.306373             0.00695843468            0.000290396724           
       2.309014             0.00689218769            0.000283441781           
       2.311654              0.0075921088            0.000300309282           
       2.314294             0.00700178022            0.000287768081           
       2.316935             0.00686964488            0.000286166375           
       2.319575               0.006694199            0.000281430687           
       2.322215             0.00722468722            0.000296535429           
       2.324856             0.00704240193            0.000285418438           
       2.327496             0.00758664664            0.000303502184           
       2.330137             0.00771120166            0.000300340342           
       2.332777             0.00663045878            0.000281545508           
       2.335417             0.00758576182            0.000300241468           
       2.338058             0.00705384403            0.000290682383           
       2.340698             0.00690203572            0.000284706382           
       2.343339             0.00662126454            0.000284176735           
       2.345979             0.00655248844            0.000277055851           
       2.348619             0.00728885001            0.000297727366           
       2.351260             0.00740442816            0.000293699758           
       2.353900             0.00699319523            0.000291473468           
       2.356540             0.00762189661            0.000300108514           
       2.359181             0.00743855293            0.000300441542           
       2.361821             0.00778248347             0.00030356436           
       2.364462             0.00761852839            0.000305369412           
       2.367102             0.00731513335            0.000290574284           
       2.369742             0.00682671234            0.000290765726           
       2.372383             0.00629270925            0.000271024139           
       2.375023             0.00723090725            0.000298095781           
       2.377663             0.00705058977            0.000288100279           
       2.380304             0.00721113933            0.000295403686           
       2.382944              0.0073681607            0.000295681911           
       2.385585             0.00763687251            0.000303871083           
       2.388225              0.0069740455            0.000289072849           
       2.390865             0.00739649099            0.000298461601           
       2.393506             0.00655638869            0.000279706068           
       2.396146             0.00698795218             0.00028972208           
       2.398787              0.0072325953            0.000295007749           
       2.401427             0.00751064883            0.000298799597           
       2.404067             0.00681894988            0.000289053745           
       2.406708             0.00726834059             0.00029467564           
       2.409348             0.00676518361            0.000286431809           
       2.411988             0.00740010531            0.000298614678           
       2.414629             0.00743117603            0.000300220013           
       2.417269             0.00706467983            0.000290064831           
       2.419910              0.0072289352            0.000297117715           
       2.422550             0.00658307656            0.000279230456           
       2.425190             0.00709265253            0.000298961698           
       2.427831              0.0077649723            0.000301045986           
       2.430471               0.006904425            0.000292172731           
       2.433112             0.00729258138             0.00029318789           
       2.435752             0.00715037274             0.00029766483           
       2.438392             0.00690222695            0.000287538553           
       2.441033             0.00671791071            0.000284973276           
       2.443673             0.00702248663            0.000292139759           
       2.446313             0.00761659575            0.000302625538           
       2.448954             0.00708322195            0.000294397905           
       2.451594              0.0074276134            0.000299661014           
       2.454235             0.00673449566            0.000284449185           
       2.456875             0.00740817342            0.000299848596           
       2.459515             0.00711506959            0.000294310084           
       2.462156             0.00772754948            0.000305134937           
       2.464796             0.00748499218            0.000305605094           
       2.467436             0.00763189027            0.000302118753           
       2.470077             0.00785206353            0.000310671452           
       2.472717             0.00754474927            0.000300720769           
       2.475358              0.0073159295            0.000299480431           
       2.477998             0.00738503601            0.000299286266           
       2.480638             0.00706370932            0.000293414008           
       2.483279             0.00775556904            0.000308768505           
       2.485919             0.00718382258            0.000295088549           
       2.488560             0.00606151948             0.00027218426           
       2.491200             0.00672998868            0.000286406968           
       2.493840             0.00696674607            0.000289814691           
       2.496481             0.00731715167            0.000300897668           
       2.499121             0.00712259975             0.00029291782           
       2.501761             0.00692251768            0.000293677861           
       2.504402             0.00674747615            0.000284384698           
       2.507042             0.00688017259            0.000291941116           
       2.509683             0.00680755988            0.000287751865           
       2.512323             0.00703100677            0.000293581289           
       2.514963              0.0131949682            0.000402982933           
       2.517604              0.0295018371            0.000600210302           
       2.520244              0.0358554929            0.000661838016           
       2.522884             0.00939922881            0.000338118489           
       2.525525             0.00946606222            0.000342105643           
       2.528165              0.0153902984            0.000434221255           
       2.530806              0.0180907477            0.000469010453           
       2.533446              0.0112650452            0.000373390403           
       2.536086              0.0128055887            0.000394762741           
       2.538727              0.0137709026             0.00041199591           
       2.541367              0.0107676765            0.000363269619           
       2.544008             0.00821465319            0.000317563398           
       2.546648             0.00736063559            0.000300944461           
       2.549288             0.00739634681            0.000301717042           
       2.551929             0.00776856676            0.000310237178           
       2.554569             0.00728190779            0.000297617903           
       2.557209             0.00710151066            0.000297229092           
       2.559850             0.00708165114            0.000293400098           
       2.562490             0.00694244578            0.000292617275           
       2.565131              0.0068565935            0.000291308314           
       2.567771             0.00685566776             0.00028974481           
       2.570411             0.00702805479            0.000296934976           
       2.573052             0.00757264419             0.00030462691           
       2.575692             0.00723028332             0.00029845076           
       2.578332             0.00670231839             0.00028649875           
       2.580973             0.00692992698             0.00029368489           
       2.583613             0.00729970745             0.00029867179           
       2.586254             0.00680406034             0.00029090476           
       2.588894             0.00663053817            0.000285639503           
       2.591534              0.0071321451            0.000296791912           
       2.594175             0.00686674506            0.000292907928           
       2.596815              0.0073899631            0.000301037116           
       2.599456             0.00708583784            0.000297189417           
       2.602096             0.00683951377            0.000290885493           
       2.604736             0.00692678323            0.000293503148           
       2.607377             0.00687743333             0.00029133736           
       2.610017             0.00646272538             0.00028231833           
       2.612657             0.00678911464            0.000291403553           
       2.615298             0.00765884754            0.000306479139           
       2.617938             0.00679885788            0.000291286211           
       2.620579             0.00684617116            0.000289910309           
       2.623219             0.00656728911            0.000288486029           
       2.625859             0.00718901543            0.000296745768           
       2.628500             0.00735728749             0.00030499642           
       2.631140             0.00706962675            0.000293702205           
       2.633780             0.00692467592            0.000294409134           
       2.636421             0.00683976702            0.000289936022           
       2.639061              0.0071450914            0.000299879803           
       2.641702             0.00789247442            0.000311804452           
       2.644342             0.00769976766            0.000310500679           
       2.646982             0.00689455951            0.000293567615           
       2.649623             0.00788623458            0.000315853352           
       2.652263             0.00713362264            0.000298013599           
       2.654904             0.00698183189            0.000296426784           
       2.657544             0.00745074583            0.000304064902           
       2.660184             0.00680238218            0.000290905606           
       2.662825             0.00747733101            0.000305727569           
       2.665465             0.00714249807            0.000299356609           
       2.668105             0.00676701413            0.000291497109           
       2.670746             0.00681183054            0.000289986155           
       2.673386             0.00731614952            0.000304171451           
       2.676027             0.00690258739             0.00029293778           
       2.678667             0.00760967584            0.000309175041           
       2.681307             0.00743438352            0.000303190275           
       2.683948             0.00773078467             0.00031224565           
       2.686588             0.00782352911            0.000311230545           
       2.689229             0.00702928949            0.000297657555           
       2.691869              0.0076792847            0.000308010042           
       2.694509             0.00708349518            0.000299877352           
       2.697150             0.00745122951            0.000302654003           
       2.699790             0.00723204642            0.000304363037           
       2.702430             0.00743805281            0.000302749467           
       2.705071             0.00747444319             0.00030764269           
       2.707711             0.00717431792            0.000298414146           
       2.710352             0.00653617622            0.000286454667           
       2.712992             0.00655358764            0.000287768534           
       2.715632             0.00691814623            0.000293982294           
       2.718273              0.0071823841            0.000300538423           
       2.720913             0.00659840339            0.000288542372           
       2.723553             0.00618709196            0.000278433641           
       2.726194             0.00666143853            0.000290303269           
       2.728834             0.00676433429            0.000289936311           
       2.731475              0.0071296008            0.000300262991           
       2.734115             0.00639256413            0.000282625379           
       2.736755              0.0068935878            0.000295432114           
       2.739396             0.00664420505            0.000288505386           
       2.742036             0.00659790043            0.000289460639           
       2.744677             0.00687374398            0.000295881499           
       2.747317             0.00805660805            0.000318773507           
       2.749957              0.0070213692            0.000299747966           
       2.752598             0.00678077912            0.000295454768           
       2.755238             0.00683807577            0.000296566698           
       2.757878             0.00667251146             0.00029212034           
       2.760519             0.00646637503              0.0002845363           
       2.763159             0.00742302668            0.000309815049           
       2.765800             0.00737458373            0.000303571421           
       2.768440             0.00742286381             0.00030857567           
       2.771080             0.00715779032            0.000300462377           
       2.773721             0.00684191851            0.000297361697           
       2.776361              0.0071013268            0.000299692677           
       2.779001             0.00733908062            0.000307870808           
       2.781642             0.00750077865            0.000309120139           
       2.784282             0.00653160342            0.000288559589           
       2.786923             0.00698386733            0.000296113368           
       2.789563             0.00651048253            0.000286475942           
       2.792203             0.00732254259            0.000305751254           
       2.794844             0.00724294354            0.000302701251           
       2.797484             0.00705925127            0.000299259176           
       2.800125             0.00610471587            0.000277932474           
       2.802765             0.00705629772            0.000304349283           
       2.805405             0.00708189656            0.000300499595           
       2.808046             0.00625644762            0.000286775295           
       2.810686             0.00675222383            0.000294746591           
       2.813326             0.00685602486            0.000300678083           
       2.815967             0.00684608771            0.000298566593           
       2.818607             0.00698082697            0.000304504155           
       2.821248             0.00699265312            0.000300961923           
       2.823888             0.00731538541            0.000312786871           
       2.826528             0.00765507559            0.000318057616           
       2.829169             0.00683101334            0.000299124525           
       2.831809             0.00648826416            0.000291779019           
       2.834449             0.00629929837            0.000282480457           
       2.837090             0.00677851366            0.000294791733           
       2.839730              0.0070766898            0.000299066662           
       2.842371              0.0067110897            0.000293268134           
       2.845011             0.00677366099            0.000293975001           
       2.847651              0.0066409867            0.000291616313           
       2.850292             0.00670468906             0.00029134676           
       2.852932             0.00680499681             0.00029404441           
       2.855573             0.00695472929            0.000299872509           
       2.858213             0.00669553302            0.000290930111           
       2.860853             0.00735134607            0.000307127057           
       2.863494              0.0065439694             0.00029046897           
       2.866134              0.0066096398            0.000296017499           
       2.868774              0.0070094238            0.000300172049           
       2.871415             0.00690141653            0.000300798374           
       2.874055             0.00714345899            0.000307543525           
       2.876696             0.00676719671            0.000296639066           
       2.879336             0.00664992757            0.000296009563           
       2.881976             0.00660257016            0.000294710908           
       2.884617             0.00662533731              0.0002935786           
       2.887257             0.00666437247            0.000292389181           
       2.889897             0.00712675239            0.000305827906           
       2.892538             0.00677848317            0.000296193743           
       2.895178             0.00696649415            0.000297211223           
       2.897819             0.00640468104            0.000287905986           
       2.900459             0.00667656619            0.000291519619           
       2.903099             0.00723564542            0.000305064429           
       2.905740             0.00670313898            0.000290346781           
       2.908380             0.00665113478            0.000293073817           
       2.911021             0.00653820786            0.000291127559           
       2.913661             0.00660481327            0.000289386594           
       2.916301             0.00710505978            0.000304415465           
       2.918942             0.00664774245            0.000290013429           
       2.921582             0.00692287504            0.000299059095           
       2.924222             0.00687322955            0.000296256494           
       2.926863             0.00677200384             0.00029484794           
       2.929503              0.0070859453            0.000304953001           
       2.932144             0.00705977817            0.000299397125           
       2.934784             0.00784286988            0.000316906645           
       2.937424             0.00691485096            0.000298117715           
       2.940065             0.00727036431            0.000305934023           
       2.942705             0.00669780861             0.00029453281           
       2.945346             0.00689607681            0.000297095184           
       2.947986             0.00724704572            0.000305626599           
       2.950626             0.00777900129            0.000317618552           
       2.953267             0.00993055571            0.000355052319           
       2.955907             0.00975424335             0.00035653857           
       2.958547             0.00820079424            0.000323564993           
       2.961188             0.00796316523            0.000321626103           
       2.963828             0.00747252482            0.000309794667           
       2.966469             0.00703019506            0.000300560632           
       2.969109             0.00668879178            0.000294671206           
       2.971749             0.00732830474            0.000307529189           
       2.974390             0.00904803153            0.000342650771           
       2.977030             0.00981725238            0.000356239707           
       2.979670              0.0094473562            0.000347210989           
       2.982311             0.00710810427            0.000303345958           
       2.984951             0.00717563521            0.000305571587           
       2.987592             0.00814881373            0.000324535092           
       2.990232             0.00755373071            0.000313258442           
       2.992872             0.00866182731            0.000332824767           
       2.995513             0.00878171421            0.000337752537           
       2.998153             0.00874338238            0.000339188868           
       3.000794              0.0156710802            0.000447491972           
       3.003434              0.0386777808            0.000710472658           
       3.006074              0.0408778399            0.000732753609           
       3.008715              0.0214909058            0.000535347591           
       3.011355              0.0218858885            0.000545863153           
       3.013995              0.0172917914            0.000482828256           
       3.016636              0.0308722358            0.000646353718           
       3.019276               0.135720396             0.00138760299           
       3.021917                0.37511403             0.00226775187           
       3.024557               0.137274807             0.00138281063           
       3.027197                0.09552686             0.00117289377           
       3.029838              0.0882302527             0.00112181941           
       3.032478              0.0753622464             0.00104298603           
       3.035118              0.0491211744             0.00084638059           
       3.037759              0.0958963613             0.00118466786           
       3.040399               0.100127513              0.0012243724           
       3.043040              0.0514123629             0.00088586668           
       3.045680              0.0590600506            0.000934847694           
       3.048320              0.0845005097             0.00113615429           
       3.050961               0.210218957             0.00180999243           
       3.053601               0.108242751             0.00129305015           
       3.056242               0.049495961            0.000879997776           
       3.058882               0.200595399             0.00179791878           
       3.061522               0.234728667             0.00193140428           
       3.064163              0.0319395665            0.000713746785           
       3.066803              0.0186140662            0.000555415637           
       3.069443              0.0345735569            0.000751912579           
       3.072084              0.0997157746             0.00128832706           
       3.074724              0.0393749085            0.000814349661           
       3.077365              0.0112679111            0.000435323187           
       3.080005             0.00832617387            0.000378357493           
       3.082645             0.00979664748            0.000412500056           
       3.085286             0.00851563921            0.000384656522           
       3.087926             0.00783483973            0.000371307719           
       3.090566              0.0082908391            0.000385894681           
       3.093207             0.00760794759             0.00036566685           
       3.095847             0.00737480431            0.000367566822           
       3.098488             0.00813051998            0.000385240578           
       3.101128             0.00719558969            0.000364389126           
       3.103768             0.00921928023            0.000414782637           
       3.106409              0.0103978893            0.000443449162           
       3.109049              0.0100467556            0.000439285892           
       3.111690              0.0125064891            0.000488189769           
       3.114330              0.0129331703            0.000500864919           
       3.116970              0.0165160113            0.000573879516           
       3.119611              0.0167214037            0.000573679575           
       3.122251              0.0120499185            0.000490983953           
       3.124891              0.0093057516            0.000433565062           
       3.127532             0.00878891363             0.00042894323           
       3.130172             0.00784922194            0.000397025323           
       3.132813             0.00904420228             0.00043485076           
       3.135453             0.00826963552            0.000424584508           
       3.138093             0.00728575093            0.000389071384           
       3.140734              0.0066931372            0.000379852827           
       3.143374             0.00645563665            0.000378755316           
       3.146014              0.0061499454            0.000366995538           
       3.148655              0.0056548029            0.000354682512           
       3.151295             0.00644656942            0.000381697557           
       3.153936             0.00675451008            0.000396475559           
       3.156576             0.00675900118            0.000392054514           
       3.159216             0.00680738028            0.000396673113           
       3.161857             0.00647920572            0.000391740837           
       3.164497             0.00634193701            0.000395740918           
       3.167138              0.0063599045            0.000386793212           
       3.169778             0.00583655904            0.000377228098           
       3.172418             0.00664028976            0.000404715157           
       3.175059             0.00606533848            0.000391859288           
       3.177699             0.00649170053            0.000403797003           
       3.180339             0.00613016143            0.000395899092           
       3.182980              0.0060030002            0.000397060246           
       3.185620             0.00633658434            0.000412401206           
       3.188261             0.00588100831            0.000392094508           
       3.190901             0.00633047586            0.000413070359           
       3.193541             0.00539099511             0.00038244506           
       3.196182             0.00548242359            0.000393698992           
       3.198822             0.00598642976            0.000406410632           
       3.201463             0.00595529618            0.000410594341           
       3.204103             0.00573451277            0.000408276638           
       3.206743             0.00484867508              0.0003785944           
       3.209384             0.00561866988            0.000405731835           
       3.212024             0.00582711552              0.0004146572           
       3.214664             0.00554302505            0.000412131408           
       3.217305             0.00631832336            0.000450276321           
       3.219945             0.00621459854             0.00044283085           
       3.222586             0.00666460493            0.000461178867           
       3.225226             0.00596108623            0.000445985003           
       3.227866             0.00589987555            0.000447121799           
       3.230507             0.00625201118            0.000465764051           
       3.233147             0.00563314227            0.000435571822           
       3.235787             0.00619383372             0.00045685904           
       3.238428             0.00644918015            0.000474414455           
       3.241068             0.00607975632            0.000469966743           
       3.243709             0.00636937456            0.000478360375           
       3.246349             0.00562204316            0.000446907014           
       3.248989             0.00565046989            0.000458276175           
       3.251630             0.00632093007            0.000486847166           
       3.254270              0.0059505315            0.000486887494           
       3.256911             0.00591081666            0.000473101362           
       3.259551             0.00489161589            0.000439894837           
       3.262191             0.00559999255            0.000474999981           
       3.264832             0.00611282157            0.000500929644           
       3.267472             0.00599496779            0.000503112347           
       3.270112             0.00602721308            0.000505899665           
       3.272753             0.00487484284            0.000460565076           
       3.275393             0.00540837373            0.000487611276           
       3.278034             0.00568986405            0.000510328072           
       3.280674             0.00480238098            0.000470203038           
       3.283314              0.0054130119            0.000501960684           
       3.285955             0.00590708773             0.00053421816           
       3.288595             0.00509628459            0.000501737969           
       3.291235             0.00625176563            0.000558978607           
       3.293876             0.00500452254            0.000503082373           
       3.296516             0.00758782361              0.0006320993           
       3.299157             0.00587289075             0.00056450482           
       3.301797             0.00542302834            0.000542684165           
       3.304437             0.00463980378            0.000511377171           
       3.307078             0.00570619412            0.000572615926           
       3.309718             0.00499509129            0.000541097577           
       3.312359              0.0056877322             0.00058906222           
       3.314999             0.00597210754            0.000609940739           
       3.317639             0.00536899539            0.000584550213           
       3.320280             0.00565080207            0.000608452286           
       3.322920             0.00549328217            0.000608887618           
       3.325560             0.00543583638            0.000617391345           
       3.328201             0.00490298169            0.000588829394           
       3.330841             0.00560485462            0.000644877935           
       3.333482             0.00557864345             0.00065153718           
       3.336122             0.00543791462            0.000657247862           
       3.338762             0.00473291345            0.000618773103           
       3.341403             0.00359951671            0.000544627537           
       3.344043             0.00643801327            0.000756172298           
       3.346683             0.00502044881            0.000674526081           
       3.349324              0.0063132069            0.000768110811           
       3.351964             0.00648373223            0.000803440216           
       3.354605             0.00422667399            0.000656040507           
       3.357245             0.00442855905            0.000695129372           
       3.359885             0.00551774102            0.000776195547           
       3.362526              0.0066677081             0.00089688279           
       3.365166             0.00685680015            0.000898282377           
       3.367807             0.00479603542            0.000804203094           
       3.370447             0.00575796343            0.000881510209           
       3.373087              0.0050477905            0.000871083905           
       3.375728             0.00393279202            0.000763070027           
       3.378368             0.00461812725            0.000893514707           
       3.381008             0.00654553938             0.00105447931           
       3.383649              0.0058895303             0.00108249091           
       3.386289             0.00470285108            0.000967706395           
       3.388930             0.00470980635             0.00106356622           
       3.391570             0.00685583948             0.00128373504           
       3.394210             0.00516094208             0.00119341883           
       3.396851             0.00500721465             0.00127335523           
       3.399491             0.00229934691            0.000878547294           
       3.402131             0.00827558398             0.00197292249           
       3.404772             0.00455396939             0.00146417114           
       3.407412              0.0034499932             0.00158137041           
       3.410053             0.00595988504             0.00216426393           
       3.412693              0.0029663074             0.00216021206           
       3.415333             0.00652339272             0.00392506897           
