################################################################################
# EDF_DataBlockID                     0.Image.Psd
# EDF_BinarySize                      4366944
# EDF_HeaderSize                      2560
# ByteOrder                           LowByteFirst
# DataType                            FloatValue
# Dim_1                               1028
# Dim_2                               1062
# Image                               0
# HeaderID                            EH:000000:000000:000000
# Size                                4366944
# Center_1                            607.5320
# Center_2                            651.4720
# Comment                             Xenocs_Cell_Window - front_window_open_only
# DDummy                              0.6
# Date                                2025-10-18T00:43:49
# Delta                               0
# Dummy                               -1.5
# ExposureTime                        360
# Gamma                               0
# Intensity1                          9.29324e-10
# PSize_1                             7.5e-05
# PSize_2                             7.5e-05
# Pressure                            0.0349903
# SampleDistance                      0.450002
# SampleEnvKind                       large
# SampleEnvPN                         ElectroChemical cell
# SampleEnvSN                         1141
# Thickness                           0
# Wavelength                          1.541891e-10
# Wavelength                          1.54189e-10
# aux                                 0
# aux_dial                            0.002375
# beamx                               588.429
# beamx_dial                          588.429
# beamz                               657.855
# beamz_dial                          657.855
# det0x                               -0.000396875
# det0x_dial                          6.36905
# det0xvd                             -0.0005
# det0xvd_dial                        -0.0005
# det0y                               450.002
# det0y_dial                          481.635
# det0z                               0
# det0z_dial                          1.2295
# det0zvd                             0
# det0zvd_dial                        0
# mag                                 1.818
# mag_dial                            1.818
# om                                  0.2499
# om_dial                             -0.610199
# phi                                 -0.0120535
# phi_dial                            0
# ry                                  0.599993
# ry_dial                             0.599993
# s1bot                               0.8
# s1bot_dial                          -1.66094
# s1hl                                0.8
# s1hl_dial                           -0.608437
# s1hr                                0.8
# s1hr_dial                           0.970938
# s1top                               0.8
# s1top_dial                          -0.461562
# s2bot                               0.45
# s2bot_dial                          1.36109
# s2hl                                0.45
# s2hl_dial                           -0.83375
# s2hr                                0.45
# s2hr_dial                           -0.118594
# s2top                               0.45
# s2top_dial                          1.44734
# w2theta                             32
# w2theta_dial                        32
# waxsch                              19.2605
# waxsch_dial                         -32.7238
# waxsh                               137.085
# waxsh_dial                          -43.5335
# waxsth                              26.0607
# waxsth_dial                         -19.4068
# waxsz                               67.0407
# waxsz_dial                          -23.7962
# wind                                65.9854
# wind_dial                           66.0041
# wpsi                                124
# wpsi_dial                           124
# wstod                               115
# wstod_dial                          115
# x                                   0
# x_dial                              1.00969
# z                                   0
# z_dial                              13.3172
# CountCutoff                         15302352
# DetectorModel                       Dectris EIGER2 Si 1M, S/N E-02-0362
# ThresholdSetting                    4023.88989258
# Saturation                          0
# FlatField                           Corrected
# BackgroundReductionExtra            0.02
# BackgroundCorrectionConstant        0.0026712
# Detector                            0
# Monitor                             0
# Pil_Roi0                            0
# SumForIntensity1                    3.34557e+08
# TransmittedFlux                     929324
# det                                 0
# mon                                 0
# pilai0                              3.34557e+08
# pilai1                              723322
# pilct0                              5.76658e+08
# pilct1                              723322
# pilroi0                             0
# pilroi1                             0
# sec                                 1
# title                               20251017__0_00060.edf
# usaxs0                              0
# Operation                           Azimuthal average I(q)
# Error_model                         ErrorModel.poisson
# Geometrical_correction              True
# Transmission_correction             True
# Thickness_correction                False
# Binning mode                        Uniform
# Binning factor                      1.0
# Psi                                 0.0
# Omega                               0.2499
# MaskInvalidPixels                   True
# DetectorEdge                        3
# MaskFiles                           ['SAXS_correted.edf']
################################################################################
    q(A⁻¹)                Intensity(a.u.)            Sigma_I(a.u.)            
       0.000340                354979.075                112.838969           
       0.001019                353115.572                 68.917865           
       0.001698                348703.442                 48.426885           
       0.002377                331347.591                42.2226386           
       0.003056                299456.116                33.9239261           
       0.003735                260453.712                27.9018273           
       0.004415                203979.574                24.6922584           
       0.005094                151613.405                 18.436014           
       0.005773                100005.164                13.8623288           
       0.006452                59930.7545                10.3673655           
       0.007131                32549.2122                7.39774902           
       0.007810                16301.9221                 5.1554546           
       0.008490                8568.41085                 3.3130672           
       0.009169                3352.63115                2.04815892           
       0.009848                1343.59953                1.24684852           
       0.010527                384.020604               0.670199131           
       0.011206                131.619392               0.370819126           
       0.011885                 52.148075               0.220897768           
       0.012564                25.8019088               0.156061196           
       0.013244                17.2538013               0.121388882           
       0.013923                12.7097465               0.105879205           
       0.014602                 9.9006436              0.0860147631           
       0.015281                7.67548724              0.0779303182           
       0.015960                6.21536599              0.0693664196           
       0.016639                5.10273944              0.0587661029           
       0.017319                4.18243449              0.0523861968           
       0.017998                 3.3409648              0.0454554576           
       0.018677                3.10887091                0.04516527           
       0.019356                2.58483696              0.0404499317           
       0.020035                2.13722714              0.0346099461           
       0.020714                1.89009941              0.0329798184           
       0.021394                1.70389655              0.0294786575           
       0.022073                1.45644513              0.0285709277           
       0.022752                1.26661957              0.0251786448           
       0.023431                1.12980158              0.0232455027           
       0.024110                1.03448413              0.0232465248           
       0.024789               0.929818632              0.0205473267           
       0.025469               0.887269932              0.0205543953           
       0.026148               0.737242317                0.01774339           
       0.026827               0.670801167              0.0170609623           
       0.027506               0.611633977              0.0168436022           
       0.028185               0.557318785              0.0153966227           
       0.028864                0.50112208              0.0144018988           
       0.029544                0.47202473              0.0136909375           
       0.030223               0.458966451               0.013944722           
       0.030902               0.421088839              0.0137986131           
       0.031581               0.385695487              0.0123758635           
       0.032260               0.365599327              0.0125701875           
       0.032939               0.313326498              0.0116603694           
       0.033619               0.317089119              0.0121541668           
       0.034298               0.279258235              0.0110529153           
       0.034977               0.270897004              0.0107987736           
       0.035656               0.244113039              0.0107578585           
       0.036335               0.216115931             0.00986480838           
       0.037014               0.225366301              0.0106211235           
       0.037693               0.203068913             0.00981194241           
       0.038373               0.193774522              0.0100129923           
       0.039052               0.177212051             0.00941836781           
       0.039731               0.171066455             0.00957047868           
       0.040410               0.148917855             0.00892947018           
       0.041089               0.157362278             0.00959384831           
       0.041768               0.158885505              0.0101494068           
       0.042448               0.133490521             0.00865024232           
       0.043127                0.12662377             0.00879946191           
       0.043806               0.134186949             0.00944177428           
       0.044485               0.108688629             0.00815253847           
       0.045164               0.126176537             0.00930031764           
       0.045843               0.106580994             0.00789569831           
       0.046523               0.122639939             0.00870967847           
       0.047202               0.128187705             0.00934451409           
       0.047881               0.109080851             0.00853934538           
       0.048560              0.0993327924             0.00827844095           
       0.049239                0.11157365               0.008331509           
       0.049918               0.107659438             0.00919672075           
       0.050598              0.0987360535             0.00828019479           
       0.051277              0.0867475614             0.00754530161           
       0.051956               0.094885167             0.00876283466           
       0.052635              0.0813763911             0.00830462516           
       0.053314              0.0795059974             0.00776300415           
       0.053993               0.085246249             0.00840120223           
       0.054673              0.0762154831             0.00765481237           
       0.055352               0.080922988             0.00834755767           
       0.056031              0.0923453242             0.00888182243           
       0.056710              0.0854852849             0.00854558426           
       0.057389              0.0992378344             0.00920738438           
       0.058068              0.0914473777             0.00860288849           
       0.058748              0.0783742304             0.00799439721           
       0.059427               0.063581504             0.00656076465           
       0.060106              0.0603994376             0.00772311208           
       0.060785              0.0647403423              0.0072385653           
       0.061464              0.0613263907              0.0073862396           
       0.062143              0.0664882301             0.00725432505           
       0.062822              0.0559829876             0.00711623458           
       0.063502              0.0641311908             0.00795827294           
       0.064181              0.0571152973             0.00737625996           
       0.064860              0.0591470118             0.00806035644           
       0.065539              0.0665302795             0.00837938604           
       0.066218              0.0695001825             0.00896924355           
       0.066897              0.0488405707             0.00736225086           
       0.067577              0.0527299661             0.00794173455           
       0.068256              0.0516047485             0.00752907191           
       0.068935              0.0728602084             0.00918364769           
       0.069614              0.0597870453               0.007982819           
       0.070293              0.0641076663             0.00880592929           
       0.070972              0.0516528931              0.0075327137           
       0.071652              0.0373316178              0.0066094221           
       0.072331               0.038480813             0.00715155799           
       0.073010              0.0333287346             0.00696332214           
       0.073689              0.0479909938              0.0077964196           
       0.074368              0.0429989076             0.00717189992           
       0.075047              0.0461311884             0.00768929364           
       0.075727              0.0419878648             0.00809409188           
       0.076406              0.0385186709             0.00804967978           
       0.077085              0.0446149939             0.00789823139           
       0.077764              0.0367299772             0.00751619866           
       0.078443              0.0484589879             0.00807572059           
       0.079122              0.0352727197             0.00721272217           
       0.079802              0.0340642081             0.00762995497           
       0.080481              0.0376759642             0.00725825585           
       0.081160              0.0399158361             0.00892120163           
       0.081839              0.0305978069             0.00723143593           
       0.082518              0.0469374397             0.00843689044           
       0.083197              0.0308598539             0.00750455609           
       0.083876              0.0331915324             0.00652274457           
       0.084556              0.0358695435             0.00823159776           
       0.085235              0.0341662135              0.0074659898           
       0.085914              0.0337778846             0.00705858866           
       0.086593               0.043083349             0.00844818529           
       0.087272              0.0415405573             0.00772277039           
       0.087951              0.0412526397             0.00860439638           
       0.088631              0.0407434232             0.00815322085           
       0.089310              0.0306413211             0.00686561706           
       0.089989              0.0340089193             0.00680863426           
       0.090668              0.0396513881             0.00810498359           
       0.091347              0.0241660871             0.00647872209           
       0.092026              0.0374676471              0.0068495697           
       0.092706              0.0213306128             0.00646259794           
       0.093385              0.0318232309              0.0073176473           
       0.094064              0.0340551345             0.00762979496           
       0.094743              0.0409638077             0.00788252321           
       0.095422              0.0249571488             0.00669296971           
       0.096101               0.024246201             0.00770362375           
       0.096781              0.0228152492             0.00634672674           
       0.097460              0.0296320447             0.00741773727           
       0.098139              0.0184871982             0.00618787036           
       0.098818               0.019702048             0.00571358877           
       0.099497              0.0312621407             0.00782420867           
       0.100176               0.028005369             0.00681206825           
       0.100856              0.0273058345             0.00731247169           
       0.101535              0.0342125473             0.00885450734           
       0.102214              0.0210618882             0.00565252869           
       0.102893              0.0190751928             0.00553761849           
       0.103572              0.0195623193             0.00544765822           
       0.104251              0.0191322978              0.0058123281           
       0.104931              0.0267892325              0.0074492555           
       0.105610              0.0396402942             0.00865502021           
       0.106289              0.0253872636             0.00705125968           
       0.106968              0.0313194084             0.00653485569           
       0.107647              0.0141789556             0.00504536084           
       0.108326              0.0234150281             0.00677196268           
       0.109005              0.0257833217             0.00592935497           
       0.109685               0.018777007             0.00595703647           
       0.110364              0.0297326776             0.00666972487           
       0.111043              0.0272755264             0.00730912777           
       0.111722              0.0160108723             0.00486081667           
       0.112401               0.034070047             0.00763276713           
       0.113080              0.0277644628             0.00718125121           
       0.113760              0.0203271992             0.00614464638           
       0.114439              0.0372001841             0.00703404592           
       0.115118              0.0185337488              0.0051597606           
       0.115797               0.021082185             0.00565600821           
       0.116476               0.032495424                0.00745462           
       0.117155              0.0217861531             0.00605602685           
       0.117835              0.0226584121             0.00608182008           
       0.118514              0.0217354198             0.00604906218           
       0.119193              0.0310859579             0.00696714218           
       0.119872              0.0268417046             0.00694271698           
       0.120551              0.0234260979             0.00628005589           
       0.121230              0.0169479941             0.00538388399           
       0.121910              0.0210374983             0.00586050397           
       0.122589               0.026003899             0.00632678851           
       0.123268              0.0169182032             0.00514007096           
       0.123947               0.022780892             0.00553936677           
       0.124626              0.0187182027             0.00502123078           
       0.125305               0.020204104             0.00542413334           
       0.125985             0.00913548916             0.00377720877           
       0.126664              0.0259790847              0.0065128804           
       0.127343              0.0155355876             0.00551720313           
       0.128022              0.0154261447             0.00490844575           
       0.128701              0.0248802657             0.00571826115           
       0.129380              0.0132791729             0.00472870643           
       0.130059              0.0174607732              0.0055541419           
       0.130739              0.0364040427             0.00795486506           
       0.131418              0.0178319377             0.00516642624           
       0.132097              0.0252567505             0.00632695903           
       0.132776              0.0207472616             0.00600549587           
       0.133455              0.0207320016             0.00600333383           
       0.134134              0.0130885464             0.00439597879           
       0.134814              0.0192464669             0.00515707057           
       0.135493               0.029966863             0.00727669532           
       0.136172              0.0307645304             0.00656238948           
       0.136851              0.0161929645             0.00470040483           
       0.137530               0.034879906             0.00712789068           
       0.138209              0.0290593291             0.00650609429           
       0.138889              0.0216889561             0.00562082938           
       0.139568              0.0216999229              0.0056222993           
       0.140247              0.0194714741             0.00543718862           
       0.140926               0.018248782             0.00489799374           
       0.141605              0.0211415378             0.00530441812           
       0.142284              0.0180528078             0.00523550632           
       0.142964              0.0319261252             0.00681987999           
       0.143643              0.0279890767             0.00661291347           
       0.144322              0.0154555639             0.00491411048           
       0.145001              0.0169756481             0.00515014409           
       0.145680              0.0202005055             0.00506181643           
       0.146359              0.0197697577             0.00529581216           
       0.147039              0.0231106166             0.00580273138           
       0.147718              0.0221167415             0.00615228625           
       0.148397              0.0186405076             0.00539702869           
       0.149076               0.019285948             0.00537413974           
       0.149755              0.0173897605             0.00466934316           
       0.150434              0.0245674706             0.00615167807           
       0.151114              0.0214484055             0.00537674049           
       0.151793              0.0118300899             0.00423872722           
       0.152472              0.0106781555              0.0038177631           
       0.153151              0.0223484649             0.00578544071           
       0.153830              0.0208619008             0.00523784775           
       0.154509              0.0214614576              0.0053786248           
       0.155188              0.0254939164             0.00586224858           
       0.155868              0.0183240062             0.00460960692           
       0.156547              0.0164229015             0.00521996162           
       0.157226              0.0226457528             0.00536027494           
       0.157905              0.0186090484             0.00539318463           
       0.158584              0.0188448226             0.00488988103           
       0.159263              0.0242176176             0.00649061571           
       0.159943               0.021898045             0.00533437949           
       0.160622              0.0217448171             0.00544864982           
       0.161301              0.0157038712              0.0049908887           
       0.161980              0.0265384471             0.00567121414           
       0.162659              0.0394616121             0.00774275503           
       0.163338              0.0178024355             0.00478125557           
       0.164018               0.012948225             0.00434445534           
       0.164697              0.0176721545             0.00473571704           
       0.165376              0.0411354753             0.00754250909           
       0.166055              0.0205763246             0.00517135261           
       0.166734              0.0258572998             0.00566234124           
       0.167413              0.0171321152             0.00460908192           
       0.168093              0.0152747155             0.00462609213           
       0.168772              0.0278300502             0.00594326178           
       0.169451             0.00582038139             0.00297391482           
       0.170130              0.0203465528             0.00527130444           
       0.170809              0.0181060149             0.00524533261           
       0.171488              0.0248687603             0.00572026266           
       0.172168               0.011639768             0.00414773357           
       0.172847              0.0176447492             0.00533058655           
       0.173526              0.0180427019             0.00502822798           
       0.174205              0.0126469154             0.00403056956           
       0.174884              0.0115386429              0.0041298499           
       0.175563              0.0196873191             0.00494148089           
       0.176243              0.0230054213             0.00528138734           
       0.176922              0.0162123963             0.00470589813           
       0.177601              0.0103329226             0.00348141171           
       0.178280               0.016179474             0.00470122386           
       0.178959              0.0182737269             0.00473390106           
       0.179638              0.0165427674             0.00461015789           
       0.180317               0.011391573             0.00363585832           
       0.180997              0.0114935221              0.0036719281           
       0.181676             0.00805203746             0.00333788889           
       0.182355               0.015940062             0.00427810808           
       0.183034              0.0235423349             0.00528420888           
       0.183713              0.0167687672             0.00466973709           
       0.184392              0.0262401475             0.00573877984           
       0.185072              0.0204322588             0.00512399988           
       0.185751              0.0159389438              0.0042782036           
       0.186430              0.0230394695             0.00544123185           
       0.187109              0.0137568005             0.00399597681           
       0.187788              0.0108216945             0.00364348299           
       0.188467              0.0175804092             0.00456677158           
       0.189147              0.0151963986             0.00510294109           
       0.189826              0.0128139195             0.00408251523           
       0.190505              0.0143953761             0.00402352302           
       0.191184              0.0152462104             0.00409830143           
       0.191863              0.0180105961              0.0048402293           
       0.192542              0.0158980693             0.00427321085           
       0.193222              0.0144305534             0.00374654483           
       0.193901              0.0156769847             0.00475069061           
       0.194580              0.0152664661             0.00425608138           
       0.195259              0.0101443606             0.00387362585           
       0.195938              0.0139520734             0.00423498255           
       0.196617              0.0187823637             0.00472097346           
       0.197297              0.0175838083             0.00487184672           
       0.197976              0.0133273747             0.00387190216           
       0.198655              0.0136075337             0.00395383899           
       0.199334              0.0116347079             0.00354467195           
       0.200013              0.0170423663             0.00442491168           
       0.200692              0.0199934166             0.00536564326           
       0.201371              0.0196262241             0.00477409599           
       0.202051             0.00568097783              0.0025966322           
       0.202730              0.0166045047             0.00446392298           
       0.203409              0.0165610542             0.00461460833           
       0.204088              0.0122777471             0.00357090721           
       0.204767              0.0168974894             0.00471786513           
       0.205446              0.0178178105             0.00462436886           
       0.206126              0.0142225378             0.00382513152           
       0.206805              0.0255378437             0.00533290881           
       0.207484              0.0144122363              0.0041824806           
       0.208163              0.0166224882             0.00446678914           
       0.208842              0.0130610697             0.00364847259           
       0.209521               0.012347166             0.00359869473           
       0.210201               0.016779026             0.00421569501           
       0.210880              0.0137781799             0.00439685239           
       0.211559              0.0171454281             0.00430398706           
       0.212238              0.0155768971             0.00404225845           
       0.212917              0.0176380882             0.00430145419           
       0.213596              0.0112200295             0.00341423987           
       0.214276              0.0115163953             0.00387203191           
       0.214955              0.0128151577             0.00390091881           
       0.215634              0.0116556754             0.00372030815           
       0.216313              0.0163125822             0.00437727857           
       0.216992              0.0161349202             0.00432996767           
       0.217671              0.0262110271             0.00573906842           
       0.218351              0.0227921962             0.00511897977           
       0.219030              0.0114687576             0.00367049319           
       0.219709             0.00353666932             0.00212057474           
       0.220388              0.0140476109             0.00408462776           
       0.221067              0.0130304471             0.00379091845           
       0.221746              0.0144507571             0.00403360196           
       0.222426              0.0132854926             0.00371587902           
       0.223105              0.0128567483             0.00390787301           
       0.223784              0.0141289202             0.00394768923           
       0.224463              0.0225953762             0.00494216417           
       0.225142              0.0128217017              0.0035824036           
       0.225821              0.0215018383             0.00459685619           
       0.226500              0.0146608523             0.00408454234           
       0.227180              0.0142376839             0.00382874524           
       0.227859              0.0202936558             0.00491017603           
       0.228538              0.0098757096             0.00300806344           
       0.229217              0.0135743044             0.00365268658           
       0.229896              0.0180722101             0.00453523319           
       0.230575             0.00823364143             0.00295432157           
       0.231255              0.0112857554             0.00360304546           
       0.231934              0.0182921615             0.00458714896           
       0.232613              0.0120251933             0.00366134393           
       0.233292              0.0149237662             0.00416566665           
       0.233971             0.00970157669             0.00327191226           
       0.234650              0.0241120742             0.00515825993           
       0.235330              0.0132979393             0.00404255999           
       0.236009             0.00188896574              0.0014365026           
       0.236688              0.0123068115             0.00357745729           
       0.237367              0.0129641752             0.00378254649           
       0.238046              0.0143077612             0.00399420996           
       0.238725               0.013828589             0.00372146608           
       0.239405              0.0114617387             0.00348633244           
       0.240084              0.0137855642              0.0037157845           
       0.240763              0.0144671834             0.00459867245           
       0.241442              0.0169409558             0.00413847085           
       0.242121              0.0119568923             0.00381226812           
       0.242800              0.0187251661             0.00431097198           
       0.243480             0.00949783536             0.00320549186           
       0.244159              0.0164526058             0.00390043676           
       0.244838              0.0134435384             0.00375779676           
       0.245517              0.0126961056             0.00404387513           
       0.246196              0.0203886011             0.00469679839           
       0.246875              0.0178601411             0.00448664507           
       0.247554              0.0161424587             0.00433376297           
       0.248234              0.0223762338             0.00502210622           
       0.248913              0.0133395192             0.00405008243           
       0.249592              0.0133251403             0.00372358037           
       0.250271             0.00799674946             0.00306698122           
       0.250950               0.014300494             0.00399433562           
       0.251629              0.0168607576             0.00452798568           
       0.252309              0.0120431944             0.00366566691           
       0.252988              0.0156196518             0.00419638137           
       0.253667              0.0174387931             0.00452945737           
       0.254346             0.00886447904             0.00299449375           
       0.255025                0.01100833             0.00352305958           
       0.255704              0.0120519654             0.00350814858           
       0.256384              0.0166231348             0.00417971773           
       0.257063              0.0137635512             0.00384079022           
       0.257742              0.0156158604             0.00419633049           
       0.258421              0.0160241775             0.00380212864           
       0.259100               0.016753275              0.0048533444           
       0.259779              0.0102392245             0.00345251438           
       0.260459              0.0144407907             0.00375304841           
       0.261138                0.01560825             0.00419564592           
       0.261817              0.0145807959             0.00423558952           
       0.262496              0.0140773281             0.00409270742           
       0.263175              0.0150897059             0.00438439108           
       0.263854              0.0111113578             0.00354024543           
       0.264534              0.0125172938             0.00364542175           
       0.265213              0.0146549817             0.00394450557           
       0.265892             0.00723185009             0.00300034885           
       0.266571              0.0118269072             0.00377248835           
       0.267250              0.0166573517             0.00447715996           
       0.267929              0.0156244858             0.00419851156           
       0.268609              0.0105003534             0.00353522155           
       0.269288              0.0219821321             0.00492906279           
       0.269967              0.0103569485             0.00369877912           
       0.270646             0.00751892663             0.00288284857           
       0.271325              0.0165074111             0.00443284998           
       0.272004               0.015725312             0.00395327731           
       0.272683             0.00914695464             0.00349763094           
       0.273363             0.00431804314             0.00221905239           
       0.274042              0.0099122885             0.00316802258           
       0.274721             0.00676177504             0.00280665623           
       0.275400             0.00663291138             0.00276500413           
       0.276079               0.020996406             0.00511361855           
       0.276758             0.00905274539             0.00305645298           
       0.277438              0.0113636461             0.00382868336           
       0.278117              0.0112401996             0.00378542614           
       0.278796                0.01380794             0.00401114467           
       0.279475              0.0138906988             0.00442149039           
       0.280154              0.0106262962             0.00405603321           
       0.280833              0.0167244638             0.00485174704           
       0.281513              0.0181672831             0.00609511093           
       0.282192              0.0102421459             0.00365711467           
       0.282871             0.00567476291             0.00290269797           
       0.283550              0.0172628625               0.005245649           
       0.284229              0.0117998852              0.0045058229           
       0.284908              0.0128297761              0.0043061715           
       0.285588               0.013861615             0.00441755275           
       0.286267             0.00771334313             0.00350667154           
       0.286946              0.0112323843             0.00462204355           
       0.287625             0.00128306998             0.00141985421           
       0.288304             0.00964278072              0.0036847356           
       0.288983              0.0179107569             0.00498963078           
       0.289663              0.0178504756             0.00518471656           
       0.290342              0.0185616825             0.00622129382           
       0.291021             0.00877630699              0.0039825566           
       0.291700              0.0100676135             0.00416277377           
       0.292379              0.0137312102             0.00436922486           
       0.293058             0.00501669771             0.00296222556           
       0.293738              0.0150661218             0.00505269689           
       0.294417              0.0181980484             0.00551031716           
       0.295096             0.00951077169             0.00429182796           
       0.295775              0.0122719034             0.00467118722           
       0.296454             0.00336531393             0.00246650097           
       0.297133              0.0201684932             0.00584654852           
       0.297812              0.0145313561             0.00441134209           
       0.298492               0.011503368             0.00438150742           
       0.299171               0.013375866             0.00448922241           
       0.299850             0.00527103884             0.00311319316           
       0.300529              0.0150539132             0.00457582984           
       0.301208              0.0175040388             0.00506586241           
       0.301887              0.0102220114             0.00389775737           
       0.302567              0.0111028248             0.00500970681           
       0.303246               0.023192927             0.00622222163           
       0.303925              0.0197127059              0.0059707707           
       0.304604             0.00578711609             0.00341016611           
       0.305283              0.0187742503             0.00568669545           
       0.305962             0.00931844306             0.00421202872           
       0.306642              0.0121069023             0.00497902006           
       0.307321              0.0153195881             0.00544881986           
       0.308000              0.0157250094             0.00500982533           
       0.308679             0.00963588322             0.00436067216           
       0.309358                0.01558751             0.00593697914           
       0.310037              0.0129129593             0.00491593252           
       0.310717              0.0124753009             0.00475078075           
       0.311396              0.0116307911              0.0047912187           
       0.312075             0.00689846348             0.00350382423           
       0.312754             0.00407728219             0.00297536272           
       0.313433              0.0131433795               0.004685378           
       0.314112              0.0204843193             0.00594151109           
       0.314792             0.00530184171             0.00384190416           
       0.315471             0.00926977803             0.00467766627           
       0.316150              0.0514527021               0.011268322           
       0.316829             0.00790926335             0.00463370715           
       0.317508              0.0128025786             0.00527305506           
       0.318187              0.0101168806             0.00511453488           
       0.318866              0.0153515438             0.00583302691           
       0.319546             0.00282973872             0.00296322115           
       0.320225             0.00243896331             0.00257339321           
       0.320904             0.00670342156             0.00393586761           
       0.321583              0.0162400731             0.00576907242           
       0.322262             0.00991951883             0.00500575434           
       0.322941              0.0150261844             0.00535124167           
       0.323621               0.013681483             0.00562332878           
       0.324300             0.00947254509             0.00478201208           
       0.324979               0.012515612             0.00516337798           
       0.325658              0.0127457788             0.00574195941           
       0.326337             0.00505476182             0.00365990074           
       0.327016              0.0172416293              0.0061210176           
       0.327696              0.0147433288             0.00560454699           
       0.328375             0.00293298427             0.00306162727           
       0.329054              0.0112366783             0.00566856759           
       0.329733              0.0068552599             0.00402427177           
       0.330412              0.0172441306              0.0061220843           
       0.331091              0.0209212212             0.00856417871           
       0.331771             0.00491578699             0.00356658683           
       0.332450              0.0106725407             0.00621816392           
       0.333129              0.0106249131             0.00537317887           
       0.333808              0.0104428855              0.0052616966           
       0.334487              0.0058072713             0.00418746363           
       0.335166              0.0025066344             0.00264325364           
       0.335846           -0.000290386295                         0           
       0.336525              0.0122291746             0.00616322832           
       0.337204             0.00868689856             0.00439023181           
       0.337883              0.0116728434             0.00480362831           
       0.338562              0.0101903017             0.00513618286           
       0.339241              0.0260714245              0.0092684046           
       0.339921              0.0106868926             0.00538994204           
       0.340600               0.014770418             0.00561189172           
       0.341279                0.01096301             0.00552891702           
       0.341958             0.00295522295             0.00307448495           
       0.342637              0.0144777517             0.00652343039           
       0.343316             0.00266241662             0.00279751423           
       0.343995             0.00208076558             0.00221807612           
       0.344675              0.0104758897             0.00533726232           
       0.345354              0.0138579456             0.00697316689           
       0.346033               0.016150385             0.00662723306           
       0.346712             0.00503775963             0.00365600583           
       0.347391               0.022834099             0.00726997392           
       0.348070             0.00235690147             0.00250079214           
       0.348750             0.00251036732             0.00264633527           
       0.349429              0.0118558765             0.00598594677           
       0.350108              0.0124573086             0.00722025254           
       0.350787              0.0361268789              0.0112608312           
       0.351466             0.00259307575             0.00272496968           
       0.352145               0.012451816             0.00561355069           
       0.352825             0.00967446117             0.00564834459           
       0.353504           -0.000290706445                         0           
       0.354183              0.0149949524             0.00673293312           
       0.354862              0.0102881707             0.00601009774           
       0.355541              0.0119541454             0.00601189203           
       0.356220             0.00596920575             0.00430859968           
       0.356900             0.00862548698              0.0050374619           
       0.357579           -0.000290782938                         0           
       0.358258             0.00303300082             0.00316314805           
       0.358937              0.0125700029             0.00634422346           
       0.359616           -0.000290821706                         0           
       0.360295              0.0110696403             0.00644669864           
       0.360975              0.0209062293             0.00935686021           
       0.361654             0.00886555178             0.00517835053           
       0.362333           -0.000290872754                         0           
       0.363012              0.0129029199             0.00749692177           
       0.363691             0.00752191008             0.00540882234           
       0.364370             0.00965549793              0.0069135955           
       0.365050              0.0123405378             0.00718981036           
       0.365729              0.0101588989             0.00725873196           
       0.366408              0.0200221602             0.00898732067           
       0.367087              0.0171672775             0.00651916598           
       0.367766             0.00726539406             0.00522405979           
       0.368445              0.0146452587              0.0085157756           
       0.369124             0.00517285595             0.00530818448           
       0.369804           -0.000291017981                         0           
       0.370483           -0.000291030621                         0           
       0.371162              0.0115330958             0.00669914998           
       0.371841           -0.000291057954                         0           
       0.372520               0.016644332             0.00835205292           
       0.373199              0.0141195417             0.00817903555           
       0.373879              0.0110453306             0.00644251985           
       0.374558             0.00682370391              0.0048978466           
       0.375237              0.0119514534             0.00694567735           
       0.375916               0.015974731             0.00803028773           
       0.376595              0.0106598646             0.00622330188           
       0.377274             0.00729165914             0.00523515958           
       0.377954             0.00782407304             0.00562031338           
       0.378633              0.0169600176             0.00986444499           
       0.379312            -0.00029120412                         0           
       0.379991             0.00924585457             0.00662011673           
       0.380670             0.00336936083             0.00349929635           
       0.381349              0.0179717931              0.0104336689           
       0.382029           -0.000291258539                         0           
       0.382708              0.0193195222             0.00867394112           
       0.383387             0.00963807882             0.00564347531           
       0.384066           -0.000291302447                         0           
       0.384745              0.0180740145               0.009062556           
       0.385424           -0.000291329072                         0           
       0.386104              0.0078232516              0.0056216034           
       0.386783             0.00518516925             0.00531772682           
       0.387462             0.00776771106             0.00560187204           
       0.388141             0.00755986256             0.00542696899           
       0.388820             0.00519239554             0.00532179293           
       0.389499              0.0114597911             0.00668204821           
       0.390178              0.0092475391             0.00662305004           
       0.390858              0.0253235369             0.00959671552           
       0.391537             0.00928777774             0.00663779763           
       0.392216             0.00495251396             0.00507277458           
       0.392895             0.00547777261             0.00560890323           
       0.393574            -0.00029149588                         0           
       0.394253              0.0140493638             0.00816467758           
       0.394933              0.0161258767             0.00938061014           
       0.395612             0.00380503433             0.00392186502           
       0.396291              0.0201671547              0.0117292125           
       0.396970           -0.000291568047                         0           
       0.397649             0.00813791975             0.00826631606           
       0.398328              0.0114763887             0.00668900383           
       0.399008              0.0134153271              0.0078116686           
       0.399687             0.00929464821             0.00664220554           
       0.400366              0.0128917272             0.00750335085           
       0.401045             0.00619104114              0.0063057724           
       0.401724           -0.000291667654                         0           
       0.402403           -0.000291682881                         0           
       0.403083           -0.000291696284                         0           
       0.403762               0.010158615             0.00726829134           
       0.404441             0.00422261031             0.00438349041           
       0.405120             0.00521405471             0.00533602182           
       0.405799              0.0188438688             0.00945967041           
       0.406478              0.0102505403             0.00730182077           
       0.407158             0.00621784946             0.00632081617           
       0.407837             0.00382575387             0.00400921896           
       0.408516           -0.000291814512                         0           
       0.409195           -0.000291828894                         0           
       0.409874           -0.000291844581                         0           
       0.410553           -0.000291858737                         0           
       0.411233           -0.000291873028                         0           
       0.411912              0.0241220346              0.0121011261           
       0.412591             0.00575671955              0.0059117692           
       0.413270             0.00547540499             0.00561188267           
       0.413949           -0.000291931864                         0           
       0.414628              0.0191895712               0.011107299           
       0.415307              0.0153716149              0.0109548506           
       0.415987              0.0126680582             0.00902510971           
       0.416666             0.00448376235             0.00461628218           
       0.417345              0.0215503406              0.0153486576           
       0.418024              0.0233333536              0.0134983452           
       0.418703             0.00618912327             0.00630895922           
       0.419382           -0.000292050504                         0           
       0.420062             0.00756191034             0.00768493043           
       0.420741             0.00702617357             0.00715673127           
       0.421420              0.0286663541              0.0128446146           
       0.422099           -0.000292113966                         0           
       0.422778              0.0154378175             0.00896637322           
       0.423457              0.0156744718              0.0156492179           
       0.424137             0.00975782508             0.00696501417           
       0.424816              0.0133754159              0.0095622895           
       0.425495           -0.000292189508                         0           
       0.426174             0.00888434973             0.00899939043           
       0.426853           -0.000292218936                         0           
       0.427532           -0.000292235563                         0           
       0.428212              0.0106854096              0.0108123786           
       0.428891           -0.000292265404                         0           
       0.429570           -0.000292281576                         0           
       0.430249              0.0397529416              0.0198859617           
       0.430928              0.0135562301              0.0136173868           
       0.431607              0.0126471505             0.00902308283           
       0.432287           -0.000292344198                         0           
       0.432966             0.00816823196             0.00829276087           
       0.433645             0.00891761369             0.00901882987           
       0.434324           -0.000292391503                         0           
       0.435003           -0.000292405436                         0           
       0.435682           -0.000292423114                         0           
       0.436361              0.0198135451              0.0140426457           
       0.437041              0.0547823869              0.0316170649           
       0.437720           -0.000292467133                         0           
       0.438399           -0.000292484586                         0           
       0.439078              0.0183352868              0.0182927709           
       0.439757               0.010717016              0.0108332503           
       0.440436           -0.000292536469                         0           
       0.441116           -0.000292548819                         0           
       0.441795              0.0242963893              0.0171951794           
       0.442474           -0.000292580547                         0           
       0.443153              0.0119319922              0.0120508047           
       0.443832           -0.000292612331                         0           
       0.444511           -0.000292630271                         0           
       0.445191           -0.000292645457                         0           
       0.445870           -0.000292663146                         0           
       0.446549           -0.000292674956                         0           
       0.447228              0.0119586284              0.0120662381           
       0.447907            -0.00029271051                         0           
       0.448586           -0.000292729403                         0           
       0.449266              0.0437103186              0.0218868589           
       0.449945              0.0218859597              0.0219026786           
       0.450624              0.0728949208              0.0269504544           
       0.451303              0.0548839065              0.0316645919           
       0.451982              0.0274985525              0.0274512557           
       0.452661           -0.000292819958                         0           
       0.453341              0.0364456444              0.0258053207           
       0.454020            -0.00029285525                         0           
       0.454699           -0.000292868282                         0           
       0.455378              0.0371059507              0.0368264199           
       0.456057           -0.000292907249                         0           
       0.456736           -0.000292924512                         0           
       0.457416           -0.000292938123                         0           
       0.458095           -0.000292954358                         0           
       0.458774              0.0156848329              0.0156765861           
       0.459453           -0.000292988886                         0           
       0.460132           -0.000293004871                         0           
       0.460811              0.0365498768              0.0365577838           
       0.461490           -0.000293039164                         0           
       0.462170           -0.000293053677                         0           
       0.462849           -0.000293073753                         0           
       0.463528           -0.000293084355                         0           
       0.464207           -0.000293103192                         0           
       0.464886           -0.000293115052                         0           
       0.465565           -0.000293140245                         0           
       0.466245               0.111376662                0.11056041           
       0.466924              0.0272381678              0.0273379379           
       0.467603              0.0181313773              0.0182122372           
       0.468282              0.0364784859              0.0365334089           
       0.468961           -0.000293226784                         0           
       0.469640           -0.000293240675                         0           
       0.470320                       nan                       nan           
       0.470999               0.027242924              0.0273453749           
       0.471678            -0.00029329309                         0           
       0.472357           -0.000293304299                         0           
       0.473036              0.0536123215              0.0542548772           
       0.473715              0.0273135649              0.0273837249           
       0.474395           -0.000293358173                         0           
       0.475074                       nan                       nan           
       0.475753           -0.000293392638                         0           
       0.476432           -0.000293414265                         0           
       0.477111              0.0367870408              0.0367017979           
       0.477790                       nan                       nan           
       0.478470               0.109923453               0.109893647           
       0.479149           -0.000293481985                         0           
       0.479828           -0.000293501466                         0           
       0.480507           -0.000293515843                         0           
       0.481186           -0.000293535388                         0           
       0.481865           -0.000293550348                         0           
       0.482545           -0.000293567948                         0           
       0.483224           -0.000293582856                         0           
       0.483903                       nan                       nan           
       0.484582                       nan                       nan           
       0.485261           -0.000293639529                         0           
