################################################################################
# EDF_DataBlockID                     0.Image.Psd
# EDF_BinarySize                      2105344
# EDF_HeaderSize                      2560
# ByteOrder                           LowByteFirst
# DataType                            FloatValue
# Dim_1                               512
# Dim_2                               1028
# Image                               0
# HeaderID                            EH:000000:000000:000000
# Size                                2105344
# Center_1                            304.9000
# Center_2                            588.7000
# Comment                             Xenocs_Cell_Window - front_window_open_only
# DDummy                              0.6
# Date                                2025-10-18T06:20:30
# Delta                               21.910000
# Dummy                               -1.5
# ExposureTime                        360
# Gamma                               15.360000
# Intensity1                          9.21509e-10
# PSize_1                             7.5e-05
# PSize_2                             7.5e-05
# Pressure                            0.033946
# SampleDistance                      0.115750
# SampleEnvKind                       large
# SampleEnvPN                         ElectroChemical cell
# SampleEnvSN                         1141
# Thickness                           0
# Wavelength                          1.541891e-10
# Wavelength                          1.54189e-10
# aux                                 0
# aux_dial                            0.002375
# beamx                               588.429
# beamx_dial                          588.429
# beamz                               657.855
# beamz_dial                          657.855
# det0x                               -0.000396875
# det0x_dial                          6.36905
# det0xvd                             -0.0005
# det0xvd_dial                        -0.0005
# det0y                               450.002
# det0y_dial                          481.635
# det0z                               0
# det0z_dial                          1.2295
# det0zvd                             0
# det0zvd_dial                        0
# mag                                 1.818
# mag_dial                            1.818
# om                                  0.2499
# om_dial                             -0.610199
# phi                                 -0.0120535
# phi_dial                            0
# ry                                  0.599993
# ry_dial                             0.599993
# s1bot                               0.8
# s1bot_dial                          -1.66094
# s1hl                                0.8
# s1hl_dial                           -0.608437
# s1hr                                0.8
# s1hr_dial                           0.970938
# s1top                               0.8
# s1top_dial                          -0.461562
# s2bot                               0.45
# s2bot_dial                          1.36109
# s2hl                                0.45
# s2hl_dial                           -0.83375
# s2hr                                0.45
# s2hr_dial                           -0.118594
# s2top                               0.45
# s2top_dial                          1.44734
# w2theta                             32
# w2theta_dial                        32
# waxsch                              19.2605
# waxsch_dial                         -32.7238
# waxsh                               137.085
# waxsh_dial                          -43.5335
# waxsth                              26.0607
# waxsth_dial                         -19.4068
# waxsz                               67.0407
# waxsz_dial                          -23.7962
# wind                                65.9854
# wind_dial                           66.0041
# wpsi                                124
# wpsi_dial                           124
# wstod                               115
# wstod_dial                          115
# x                                   0
# x_dial                              1.00969
# z                                   0
# z_dial                              13.3172
# CountCutoff                         6807993
# DetectorModel                       Dectris EIGER2 Si 500K, S/N E-01-0554
# ThresholdSetting                    4023.88989258
# Saturation                          0
# FlatField                           Corrected
# BackgroundReductionExtra            0.02
# BackgroundCorrectionConstant        0.0026712
# Detector                            0
# Monitor                             0
# Pil_Roi0                            0
# SumForIntensity1                    3.31743e+08
# TransmittedFlux                     921509
# det                                 0
# mon                                 0
# pilai0                              3.31743e+08
# pilai1                              709153
# pilct0                              5.72807e+08
# pilct1                              709153
# pilroi0                             0
# pilroi1                             0
# sec                                 1
# title                               20251017__1_00111.edf
# usaxs0                              0
# Operation                           Azimuthal average I(q)
# Error_model                         ErrorModel.poisson
# Geometrical_correction              True
# Transmission_correction             True
# Thickness_correction                False
# Binning mode                        Uniform
# Binning factor                      1.0
# Psi                                 0.0
# Omega                               0.2499
# MaskInvalidPixels                   True
# DetectorEdge                        3
# MaskFiles                           ['20251017__1_00233_mask.edf']
################################################################################
    q(A⁻¹)                Intensity(a.u.)            Sigma_I(a.u.)            
       0.690460           -2.20402559e-05                         0           
       0.693100             0.00769782448             0.00356309051           
       0.695741             0.00783689123              0.0030372524           
       0.698381             0.00992786978             0.00319729844           
       0.701021             0.00532983455             0.00191195149           
       0.703662             0.00796671788               0.002163725           
       0.706302             0.00860984134             0.00217237987           
       0.708942             0.00633374947             0.00165505551           
       0.711583              0.0059352827              0.0016018553           
       0.714223              0.0054603698             0.00133886821           
       0.716864             0.00598010634             0.00142979233           
       0.719504             0.00843161684             0.00157126995           
       0.722144             0.00620098922             0.00130140226           
       0.724785             0.00651593839             0.00131217711           
       0.727425             0.00694508922             0.00125655283           
       0.730065             0.00854973435             0.00143453024           
       0.732706             0.00559201929             0.00104326725           
       0.735346             0.00764214236             0.00131738024           
       0.737987              0.0065866884             0.00105858342           
       0.740627              0.0064790273             0.00115014933           
       0.743267             0.00793698143             0.00109499601           
       0.745908             0.00690576009             0.00109464614           
       0.748548              0.0078163608             0.00108617677           
       0.751189             0.00704859738             0.00102173575           
       0.753829             0.00537838118            0.000900560989           
       0.756469             0.00541958064            0.000850256995           
       0.759110             0.00731248256             0.00102155884           
       0.761750              0.0064020047            0.000874796705           
       0.764390             0.00641261501            0.000939823924           
       0.767031             0.00660766031            0.000863267954           
       0.769671             0.00731385246            0.000963205648           
       0.772312              0.0060827694            0.000800465875           
       0.774952             0.00728799454            0.000939317639           
       0.777592             0.00684006778            0.000832326537           
       0.780233             0.00702514606             0.00088923811           
       0.782873             0.00513849758            0.000695452129           
       0.785513             0.00602381493              0.0008009942           
       0.788154             0.00719800116            0.000804237922           
       0.790794             0.00581765891             0.00074830908           
       0.793435             0.00649969582            0.000759707365           
       0.796075             0.00623867742            0.000748229064           
       0.798715             0.00684580935            0.000779317272           
       0.801356             0.00716292139            0.000775829273           
       0.803996             0.00592952556            0.000717160605           
       0.806637             0.00678376586            0.000725095142           
       0.809277             0.00742006419            0.000793346284           
       0.811917             0.00673373506            0.000715173663           
       0.814558             0.00562882644            0.000669849415           
       0.817198             0.00756939902            0.000740661946           
       0.819838             0.00626994235            0.000703153251           
       0.822479             0.00587566394            0.000627288728           
       0.825119             0.00738554751            0.000755507003           
       0.827760             0.00700700596            0.000681878408           
       0.830400             0.00554799365            0.000639286322           
       0.833040             0.00568459487            0.000603936718           
       0.835681             0.00682736153            0.000693111712           
       0.838321             0.00471281121            0.000538994133           
       0.840961             0.00716022378            0.000694424184           
       0.843602             0.00664224953            0.000630016243           
       0.846242             0.00585777952            0.000612533152           
       0.848883             0.00693552543            0.000648358708           
       0.851523              0.0075958592            0.000683607328           
       0.854163             0.00675164054            0.000637012405           
       0.856804             0.00585090472            0.000577826952           
       0.859444             0.00805997417            0.000683068788           
       0.862085              0.0064292199            0.000601191653           
       0.864725             0.00716671431            0.000632406705           
       0.867365             0.00694478838            0.000618079801           
       0.870006             0.00585355544            0.000575363582           
       0.872646             0.00637779282             0.00057443811           
       0.875286             0.00735893844            0.000638067898           
       0.877927             0.00730960241            0.000608872421           
       0.880567             0.00771636505            0.000637805505           
       0.883208             0.00637700117            0.000563070796           
       0.885848             0.00722922895            0.000615063352           
       0.888488             0.00730252722            0.000587772069           
       0.891129             0.00805199308            0.000648784756           
       0.893769             0.00711352715            0.000576417852           
       0.896410             0.00711874268            0.000594391254           
       0.899050             0.00591606192            0.000522459211           
       0.901690             0.00678387705            0.000571145844           
       0.904331             0.00655127441            0.000541673327           
       0.906971             0.00579220451            0.000525928626           
       0.909611             0.00730020448            0.000566718711           
       0.912252             0.00738483223            0.000579871013           
       0.914892             0.00705009959            0.000552225988           
       0.917533             0.00696680427            0.000561340698           
       0.920173             0.00705783655            0.000541971849           
       0.922813             0.00771852658            0.000592286511           
       0.925454             0.00680637015            0.000527856497           
       0.928094             0.00695789542            0.000545155531           
       0.930734             0.00619030867            0.000501934683           
       0.933375             0.00742752179            0.000561530997           
       0.936015             0.00595006474            0.000480885138           
       0.938656             0.00680985932            0.000536036819           
       0.941296             0.00687322471             0.00051913645           
       0.943936             0.00606074134            0.000496267761           
       0.946577             0.00746705635            0.000530495941           
       0.949217             0.00701349893            0.000532289298           
       0.951858             0.00737540097            0.000516036878           
       0.954498              0.0067594503            0.000519729403           
       0.957138             0.00734459398            0.000520710004           
       0.959779             0.00725268779            0.000528759736           
       0.962419             0.00746016099            0.000516264171           
       0.965059             0.00680934283            0.000507241089           
       0.967700             0.00597482589            0.000459778002           
       0.970340             0.00766909342            0.000535541093           
       0.972981              0.0073529703            0.000506311045           
       0.975621             0.00727858182            0.000514290907           
       0.978261             0.00715067935            0.000486367522           
       0.980902             0.00726786461            0.000513684079           
       0.983542              0.0069592838            0.000488024674           
       0.986182             0.00767334119            0.000519198902           
       0.988823             0.00806015874            0.000514955255           
       0.991463             0.00772651239            0.000516226889           
       0.994104             0.00785639733            0.000503001478           
       0.996744             0.00584062808            0.000447762202           
       0.999384             0.00686908985            0.000469106213           
       1.002025             0.00635732767            0.000463858609           
       1.004665             0.00702101661            0.000467502703           
       1.007306             0.00687441122            0.000478096697           
       1.009946              0.0075990745            0.000483327901           
       1.012586             0.00764823763            0.000498836918           
       1.015227             0.00700982847            0.000463108414           
       1.017867             0.00706757817            0.000478337833           
       1.020507             0.00734336497            0.000469225934           
       1.023148             0.00742963003             0.00047767469           
       1.025788             0.00674668816            0.000450530258           
       1.028429             0.00736055262            0.000480867666           
       1.031069             0.00756299935            0.000469620224           
       1.033709             0.00704700956            0.000462022205           
       1.036350             0.00727570824            0.000457149271           
       1.038990             0.00813758534            0.000495404263           
       1.041630             0.00826982026            0.000489805205           
       1.044271             0.00757319978             0.00046877434           
       1.046911             0.00752887966            0.000458716419           
       1.049552             0.00811751404            0.000493476145           
       1.052192             0.00731424216            0.000447359827           
       1.054832             0.00688949698            0.000442619714           
       1.057473             0.00788197229            0.000467435102           
       1.060113             0.00748652705            0.000460491516           
       1.062754             0.00809695105            0.000473600443           
       1.065394              0.0079422237            0.000464118457           
       1.068034             0.00754518305            0.000450617478           
       1.070675             0.00738713286            0.000453715304           
       1.073315             0.00724884275            0.000435710208           
       1.075955             0.00842526112            0.000477615478           
       1.078596             0.00787368128            0.000460804107           
       1.081236             0.00795882658            0.000456417409           
       1.083877             0.00790941063             0.00046921186           
       1.086517             0.00845366718            0.000474113518           
       1.089157             0.00841263807             0.00047642921           
       1.091798             0.00785859857            0.000450717514           
       1.094438             0.00778992498             0.00045587577           
       1.097078             0.00834110915            0.000459605889           
       1.099719             0.00881990845            0.000484725651           
       1.102359              0.0082082941            0.000442982755           
       1.105000             0.00849595295            0.000468427417           
       1.107640             0.00808747873            0.000442130027           
       1.110280              0.0082196925            0.000454654402           
       1.112921             0.00773547748            0.000433078826           
       1.115561             0.00762219662            0.000435351718           
       1.118202             0.00838739907            0.000443352865           
       1.120842             0.00823292237            0.000453090912           
       1.123482             0.00773550286            0.000426870152           
       1.126123              0.0076404845            0.000426887963           
       1.128763             0.00812041014            0.000437908128           
       1.131403             0.00743469998            0.000418359945           
       1.134044             0.00806736922              0.0004350407           
       1.136684             0.00835023668            0.000445928168           
       1.139325             0.00853406123            0.000438108065           
       1.141965             0.00761010398            0.000419123238           
       1.144605             0.00826568361            0.000439368941           
       1.147246             0.00795014585            0.000422740252           
       1.149886             0.00885043223            0.000449206483           
       1.152527             0.00824046971            0.000433885077           
       1.155167             0.00805907181            0.000423050022           
       1.157807             0.00871458083            0.000440221805           
       1.160448             0.00879333262            0.000448256831           
       1.163088             0.00781418937            0.000406886666           
       1.165728             0.00853935113            0.000442879564           
       1.168369             0.00793409066            0.000411655749           
       1.171009              0.0085153143            0.000430003289           
       1.173650             0.00897494283            0.000438272461           
       1.176290             0.00878356917             0.00043866205           
       1.178930             0.00915888978            0.000435344007           
       1.181571             0.00877639086             0.00044007545           
       1.184211             0.00916307798            0.000436085179           
       1.186851             0.00896125766            0.000435232383           
       1.189492             0.00961485445            0.000453328521           
       1.192132             0.00973659652            0.000449433216           
       1.194773             0.00950337507            0.000441339148           
       1.197413             0.00908617436            0.000435063242           
       1.200053             0.00901345647             0.00043059248           
       1.202694             0.00984548435            0.000446636474           
       1.205334             0.00851812713            0.000419980805           
       1.207975             0.00895835289            0.000422257704           
       1.210615             0.00931009908            0.000439570518           
       1.213255             0.00913660553            0.000423935464           
       1.215896             0.00917060706            0.000432774229           
       1.218536             0.00945512986            0.000426779647           
       1.221176             0.00873269003            0.000419941004           
       1.223817             0.00918094374            0.000421611706           
       1.226457             0.00862407431            0.000413815509           
       1.229098             0.00865420354            0.000408248849           
       1.231738             0.00908146398            0.000424094097           
       1.234378             0.00942580376            0.000423664366           
       1.237019             0.00913670248            0.000420481037           
       1.239659             0.00882688423            0.000413066854           
       1.242299             0.00922742833            0.000420175785           
       1.244940             0.00917847336            0.000414536257           
       1.247580              0.0100163375            0.000434955829           
       1.250221             0.00941327688            0.000428541637           
       1.252861             0.00927858314            0.000409613296           
       1.255501              0.0096613444            0.000429777836           
       1.258142             0.00905530328            0.000407854027           
       1.260782             0.00945037817            0.000421362612           
       1.263423                0.01072135            0.000439911801           
       1.266063             0.00969083037            0.000426031313           
       1.268703             0.00982983654            0.000418265376           
       1.271344              0.0100737035            0.000432644067           
       1.273984             0.00958059599            0.000415335731           
       1.276624              0.0100023609            0.000421790066           
       1.279265             0.00967121227             0.00041565472           
       1.281905             0.00941859557            0.000412718584           
       1.284546              0.0102105922            0.000425026388           
       1.287186             0.00988427218            0.000418581278           
       1.289826             0.00960677652            0.000414803669           
       1.292467             0.00961161216            0.000407502734           
       1.295107             0.00948695496            0.000411987657           
       1.297747              0.0101371005             0.00041470022           
       1.300388             0.00917223792            0.000404600676           
       1.303028             0.00967219341            0.000404915903           
       1.305669              0.0106075058            0.000429520725           
       1.308309              0.0105291112             0.00042149622           
       1.310949              0.0102892117            0.000421860101           
       1.313590             0.00989987724            0.000407397822           
       1.316230             0.00989857864              0.0004147038           
       1.318871              0.0106251074            0.000420384257           
       1.321511              0.0102726887            0.000415425159           
       1.324151              0.0100287754            0.000412085557           
       1.326792             0.00992425038            0.000406611768           
       1.329432             0.00967393593            0.000403545224           
       1.332072              0.0105938012            0.000415054221           
       1.334713              0.0101060603            0.000410414611           
       1.337353                0.01030712            0.000408101469           
       1.339994              0.0102321172             0.00041240555           
       1.342634              0.0110472116            0.000418870067           
       1.345274              0.0109025051            0.000421557675           
       1.347915              0.0115488057            0.000435026241           
       1.350555              0.0107575644            0.000418219113           
       1.353195              0.0102314861            0.000400062212           
       1.355836              0.0103314613            0.000409597146           
       1.358476              0.0104322203            0.000410432041           
       1.361117             0.00978578111            0.000387540389           
       1.363757             0.00981815548            0.000401045505           
       1.366397              0.0107003425            0.000405637587           
       1.369038              0.0103047373             0.00040645866           
       1.371678              0.0104315409             0.00040069421           
       1.374319              0.0101598196            0.000398577413           
       1.376959              0.0100236401            0.000390446902           
       1.379599              0.0102749886            0.000403017343           
       1.382240              0.0106318815             0.00040217028           
       1.384880               0.010206292            0.000398876717           
       1.387520              0.0102028307            0.000394146268           
       1.390161              0.0110213603            0.000408538206           
       1.392801              0.0100381948            0.000392214533           
       1.395442               0.010549816            0.000397919243           
       1.398082              0.0106945959            0.000402011384           
       1.400722              0.0106279711            0.000398946754           
       1.403363              0.0104381531            0.000399036998           
       1.406003              0.0104512101            0.000389481952           
       1.408644              0.0108739453            0.000405621244           
       1.411284             0.00985039867            0.000383942085           
       1.413924             0.00999818476            0.000382040713           
       1.416565              0.0105763868            0.000392470391           
       1.419205             0.00975507576            0.000380636685           
       1.421845             0.00952544349            0.000371401343           
       1.424486              0.0109385796            0.000399755466           
       1.427126              0.0102054335            0.000385882934           
       1.429767              0.0102407469            0.000380593304           
       1.432407              0.0107362041            0.000399508173           
       1.435047              0.0106872194            0.000386617694           
       1.437688              0.0101264402            0.000384671688           
       1.440328              0.0100171453            0.000375176059           
       1.442968              0.0105139739            0.000389688207           
       1.445609              0.0100715243            0.000375127334           
       1.448249              0.0105923335            0.000387191649           
       1.450890               0.010713488            0.000386621897           
       1.453530              0.0101638578            0.000379363297           
       1.456170              0.0108366842            0.000390836733           
       1.458811             0.00992565199            0.000371071597           
       1.461451               0.010380572            0.000382269464           
       1.464092               0.010345206            0.000378291293           
       1.466732              0.0107296344            0.000382892857           
       1.469372              0.0100073112            0.000368643407           
       1.472013              0.0103874524            0.000382299324           
       1.474653             0.00990859665            0.000364163972           
       1.477293              0.0104731584            0.000380696665           
       1.479934             0.00969556378            0.000362457666           
       1.482574              0.0101960152            0.000370777049           
       1.485215              0.0102001768            0.000371807651           
       1.487855             0.00955522245            0.000359786738           
       1.490495             0.00989481849            0.000365336365           
       1.493136             0.00971673451            0.000357286071           
       1.495776              0.0104164795            0.000376376858           
       1.498416              0.0100353584            0.000362250283           
       1.501057             0.00985238689            0.000362019986           
       1.503697              0.0097798179            0.000357216397           
       1.506338             0.00939597432            0.000352711049           
       1.508978              0.0103793127            0.000368519632           
       1.511618             0.00991468763            0.000359994871           
       1.514259             0.00951016972            0.000353211293           
       1.516899              0.0105949257            0.000372985201           
       1.519540             0.00977508074            0.000356275563           
       1.522180             0.00954336132            0.000347631227           
       1.524820              0.0100430575            0.000363818977           
       1.527461              0.0093277267            0.000342866462           
       1.530101              0.0096401107            0.000352164326           
       1.532741             0.00971690263            0.000351889055           
       1.535382             0.00990076433            0.000355984886           
       1.538022             0.00938984791              0.0003436109           
       1.540663             0.00950553015            0.000348988461           
       1.543303             0.00943285174            0.000343325456           
       1.545943             0.00967172797            0.000349593764           
       1.548584              0.0103616552            0.000363774883           
       1.551224             0.00971638687            0.000343234771           
       1.553864              0.0101788299            0.000360485167           
       1.556505             0.00960574936             0.00034480331           
       1.559145             0.00989722451            0.000350804662           
       1.561786             0.00997726505            0.000350624664           
       1.564426             0.00960516893            0.000343713634           
       1.567066             0.00928578692            0.000335313154           
       1.569707             0.00922584316            0.000339067896           
       1.572347             0.00886519799            0.000328062323           
       1.574988             0.00891674043            0.000327713029           
       1.577628              0.0094888581            0.000345674402           
       1.580268             0.00861131087            0.000317938228           
       1.582909             0.00930417719            0.000336662808           
       1.585549             0.00922285039            0.000332055773           
       1.588189              0.0088618102            0.000329126933           
       1.590830             0.00886118117            0.000323465786           
       1.593470             0.00900865356            0.000328809726           
       1.596111             0.00838358726            0.000314456606           
       1.598751             0.00909215109            0.000330823419           
       1.601391             0.00887656067            0.000324787784           
       1.604032             0.00884396809            0.000321483695           
       1.606672             0.00898326638            0.000330526779           
       1.609312             0.00914885649            0.000323634085           
       1.611953             0.00855001859            0.000317397249           
       1.614593             0.00851904911            0.000314412236           
       1.617234             0.00884782338            0.000322238107           
       1.619874             0.00865186471            0.000314901046           
       1.622514             0.00812728381              0.0003079045           
       1.625155             0.00827528819            0.000309927082           
       1.627795             0.00849248187            0.000310795229           
       1.630436             0.00853638573            0.000314729555           
       1.633076             0.00823723788            0.000307594944           
       1.635716             0.00819940265            0.000306352536           
       1.638357             0.00902106251            0.000319970618           
       1.640997             0.00903665307            0.000322751442           
       1.643637             0.00803446001            0.000298677488           
       1.646278             0.00882710678            0.000317750208           
       1.648918             0.00838351469            0.000305671091           
       1.651559             0.00839928651            0.000309805365           
       1.654199              0.0079885161            0.000297993378           
       1.656839             0.00830757916            0.000303804254           
       1.659480             0.00851091018            0.000310207862           
       1.662120             0.00841702042            0.000304358152           
       1.664761             0.00857850013            0.000310590618           
       1.667401             0.00852208192            0.000306683709           
       1.670041             0.00817130781            0.000300649407           
       1.672682               0.008279042            0.000299777213           
       1.675322             0.00818871268            0.000303408702           
       1.677962             0.00873657526            0.000307170097           
       1.680603              0.0081276338            0.000298901247           
       1.683243             0.00799471133            0.000294253966           
       1.685884             0.00807368082            0.000296828931           
       1.688524             0.00843138241            0.000302479696           
       1.691164             0.00769992402            0.000288318398           
       1.693805             0.00829115215            0.000301602149           
       1.696445             0.00822732617            0.000296269126           
       1.699085             0.00822275736            0.000297369345           
       1.701726             0.00825346341            0.000294048801           
       1.704366             0.00852898987            0.000306189958           
       1.707007             0.00831059728            0.000295794692           
       1.709647             0.00791059099            0.000292174028           
       1.712287             0.00794369519            0.000287891732           
       1.714928             0.00828916214            0.000297042361           
       1.717568             0.00777614073            0.000285057878           
       1.720209             0.00819338118            0.000294412431           
       1.722849             0.00886742547            0.000306774403           
       1.725489             0.00813176474            0.000289091176           
       1.728130             0.00847231444            0.000301089468           
       1.730770             0.00812306839            0.000288586663           
       1.733410             0.00831604907            0.000295827741           
       1.736051             0.00807527895            0.000286988963           
       1.738691             0.00816753028            0.000291569601           
       1.741332             0.00833720721            0.000292769254           
       1.743972             0.00819677551            0.000290400756           
       1.746612             0.00772021731             0.00028189728           
       1.749253             0.00845253752             0.00029623917           
       1.751893             0.00787708574            0.000284261682           
       1.754533             0.00855969452            0.000292255556           
       1.757174             0.00744457713            0.000277650548           
       1.759814             0.00758175024              0.0002759251           
       1.762455             0.00858469762            0.000296108357           
       1.765095             0.00800446324            0.000281911071           
       1.767735             0.00838283752            0.000293399407           
       1.770376             0.00831640381              0.0002878027           
       1.773016             0.00811681265            0.000284776869           
       1.775657             0.00822253649            0.000287212749           
       1.778297             0.00890522258            0.000300360346           
       1.780937             0.00875803581             0.00029647782           
       1.783578             0.00827845428            0.000286892605           
       1.786218             0.00768180686            0.000280770817           
       1.788858              0.0082047514            0.000282960965           
       1.791499             0.00836046317            0.000290897664           
       1.794139             0.00878928877            0.000292757005           
       1.796780             0.00856216536            0.000290666587           
       1.799420             0.00857191911            0.000290461824           
       1.802060             0.00842281638            0.000284383253           
       1.804701             0.00924683685            0.000301967103           
       1.807341             0.00903928853            0.000295674133           
       1.809981             0.00900383207            0.000297053467           
       1.812622             0.00930152572            0.000300279309           
       1.815262             0.00954565519            0.000305279005           
       1.817903             0.00883696122            0.000290099259           
       1.820543             0.00829538891            0.000284543404           
       1.823183             0.00878340943            0.000288282309           
       1.825824             0.00820868552            0.000282882236           
       1.828464             0.00820535081            0.000281957014           
       1.831105             0.00841499339             0.00028664167           
       1.833745             0.00863331265            0.000290154966           
       1.836385             0.00836573575            0.000284512229           
       1.839026             0.00823156568             0.00028646396           
       1.841666             0.00898666561            0.000295428194           
       1.844306             0.00845243968            0.000290129698           
       1.846947               0.008894284            0.000293791649           
       1.849587             0.00800183073            0.000282442024           
       1.852228             0.00893752446            0.000295324471           
       1.854868             0.00867765835            0.000296336529           
       1.857508             0.00879335392            0.000292797292           
       1.860149             0.00892793048            0.000297394119           
       1.862789             0.00848920912            0.000291278261           
       1.865429             0.00891740734            0.000299434016           
       1.868070             0.00920684293              0.0003032033           
       1.870710             0.00901154731            0.000300787206           
       1.873351             0.00859970911            0.000295709529           
       1.875991             0.00891663261            0.000302737891           
       1.878631             0.00836666328            0.000290527353           
       1.881272             0.00921148219            0.000304128506           
       1.883912             0.00857816855            0.000296929499           
       1.886553             0.00923562948            0.000304402516           
       1.889193             0.00846995912              0.0002948789           
       1.891833             0.00896779277            0.000299968233           
       1.894474             0.00872448841            0.000298212714           
       1.897114             0.00864314518            0.000294516921           
       1.899754             0.00905038796            0.000304755383           
       1.902395             0.00899287487            0.000303850278           
       1.905035             0.00883812016            0.000300044041           
       1.907676             0.00849666056            0.000294532883           
       1.910316             0.00888320466             0.00030307829           
       1.912956             0.00916201229            0.000307785509           
       1.915597             0.00885138828            0.000299369101           
       1.918237             0.00906815875            0.000307612373           
       1.920878             0.00904484692            0.000301779732           
       1.923518             0.00877039634            0.000305061249           
       1.926158             0.00857015522            0.000294629122           
       1.928799             0.00886060018            0.000303561016           
       1.931439             0.00879042832            0.000299933529           
       1.934079             0.00850303258            0.000297977069           
       1.936720             0.00826948529            0.000292126841           
       1.939360             0.00886398585            0.000305360149           
       1.942001             0.00837668525            0.000295705897           
       1.944641             0.00859384142            0.000298223651           
       1.947281             0.00855071777            0.000298911673           
       1.949922             0.00854597702            0.000299202819           
       1.952562              0.0086680939            0.000303925938           
       1.955202             0.00850540146            0.000293496156           
       1.957843             0.00832045404            0.000299509109           
       1.960483             0.00841661877             0.00029643002           
       1.963124             0.00847370199            0.000297212981           
       1.965764              0.0086879608            0.000301054658           
       1.968404             0.00817267884            0.000297211862           
       1.971045             0.00834506988            0.000292801707           
       1.973685             0.00832921432            0.000297982278           
       1.976326             0.00837269513            0.000297456491           
       1.978966             0.00847782917            0.000300734582           
       1.981606             0.00822371188            0.000293060724           
       1.984247             0.00888386257             0.00030725226           
       1.986887             0.00836932747            0.000301010926           
       1.989527             0.00800720347            0.000288292935           
       1.992168             0.00812922559            0.000297489729           
       1.994808             0.00886199688            0.000306995541           
       1.997449             0.00874356438            0.000304490099           
       2.000089             0.00811282337            0.000291574874           
       2.002729             0.00774570797            0.000291429794           
       2.005370             0.00744944482            0.000280369111           
       2.008010             0.00744092029            0.000283928886           
       2.010650             0.00817929643             0.00029683155           
       2.013291             0.00834838991            0.000301591021           
       2.015931             0.00809697138            0.000294889204           
       2.018572             0.00791817543            0.000295488157           
       2.021212             0.00754023528            0.000285762151           
       2.023852             0.00723996618            0.000281485478           
       2.026493             0.00773136168            0.000289606506           
       2.029133             0.00763905485            0.000285676448           
       2.031774             0.00801393928            0.000295439799           
       2.034414             0.00768782934            0.000287639342           
       2.037054             0.00765672899            0.000290676512           
       2.039695             0.00741470096             0.00028041115           
       2.042335             0.00775107311            0.000291581165           
       2.044975             0.00737336688            0.000282115267           
       2.047616             0.00756209981              0.0002869273           
       2.050256             0.00768679535            0.000285880451           
       2.052897             0.00808258607            0.000301830204           
       2.055537             0.00763595552            0.000285373908           
       2.058177             0.00723332635            0.000280201847           
       2.060818              0.0077983504            0.000291813378           
       2.063458             0.00691856472            0.000275238756           
       2.066098             0.00767392961             0.00028858842           
       2.068739             0.00784840951            0.000294893789           
       2.071379             0.00861853086            0.000304459879           
       2.074020             0.00773043221            0.000292295513           
       2.076660             0.00849061252            0.000304253717           
       2.079300             0.00715983197            0.000279353986           
       2.081941             0.00711308044            0.000280133215           
       2.084581             0.00760942783            0.000289956818           
       2.087222             0.00697741524             0.00027784358           
       2.089862             0.00716065509            0.000277960056           
       2.092502             0.00779358802            0.000295253471           
       2.095143             0.00746675268            0.000284865932           
       2.097783             0.00704391629            0.000280892744           
       2.100423             0.00772991719            0.000288610782           
       2.103064             0.00738336869            0.000286937184           
       2.105704             0.00788466628            0.000295383736           
       2.108345             0.00742967851            0.000288050881           
       2.110985             0.00761291751            0.000287485831           
       2.113625             0.00762517424            0.000292250352           
       2.116266             0.00747335923            0.000287184971           
       2.118906             0.00737097716            0.000285003649           
       2.121546             0.00745820709            0.000286457463           
       2.124187              0.0077079158            0.000295241394           
       2.126827             0.00778013187            0.000291969379           
       2.129468             0.00792392136            0.000297729984           
       2.132108             0.00803683009            0.000299223221           
       2.134748             0.00729954626            0.000284093324           
       2.137389             0.00710295736            0.000282588864           
       2.140029             0.00706442876            0.000281137009           
       2.142670             0.00741067278             0.00028841468           
       2.145310              0.0072241795            0.000285850438           
       2.147950             0.00709943157            0.000284467111           
       2.150591             0.00726724013            0.000285169964           
       2.153231             0.00711178438            0.000286274093           
       2.155871             0.00689917233            0.000277890271           
       2.158512             0.00699558116             0.00028486739           
       2.161152             0.00753453523            0.000288252229           
       2.163793             0.00706598621            0.000283687715           
       2.166433             0.00707495682            0.000278945198           
       2.169073             0.00715897267            0.000287147838           
       2.171714             0.00698443864            0.000277851718           
       2.174354             0.00684108702            0.000279187613           
       2.176995              0.0071519939            0.000283093299           
       2.179635             0.00679358029            0.000281130311           
       2.182275             0.00761667527            0.000291765012           
       2.184916              0.0073091427            0.000291854783           
       2.187556             0.00746905399            0.000290280425           
       2.190196             0.00753709445            0.000296182936           
       2.192837             0.00755709018             0.00029332789           
       2.195477             0.00701317572            0.000285300561           
       2.198118             0.00762788861             0.00029204828           
       2.200758             0.00713161927            0.000286773495           
       2.203398             0.00705583277            0.000280515319           
       2.206039             0.00774679109            0.000298422302           
       2.208679             0.00749517956            0.000290662592           
       2.211319             0.00690856371            0.000280369921           
       2.213960             0.00691868348            0.000277591998           
       2.216600             0.00728686628            0.000291594672           
       2.219241             0.00753936165            0.000292291505           
       2.221881             0.00702341644            0.000283583521           
       2.224521             0.00727263917            0.000287570173           
       2.227162             0.00691795144            0.000284875415           
       2.229802              0.0073944652            0.000289742446           
       2.232443             0.00678134998            0.000278561341           
       2.235083             0.00733453128            0.000287963169           
       2.237723             0.00693460504            0.000282148107           
       2.240364             0.00720043229            0.000286042738           
       2.243004             0.00767495211            0.000296209883           
       2.245644             0.00753472779            0.000292813732           
       2.248285             0.00723124599            0.000288718338           
       2.250925             0.00717707561            0.000286289854           
       2.253566             0.00741816197             0.00029177024           
       2.256206             0.00757972535            0.000294046969           
       2.258846              0.0069194616            0.000280950621           
       2.261487             0.00709971129            0.000285078728           
       2.264127             0.00817184474            0.000308741059           
       2.266767             0.00726682567            0.000286437499           
       2.269408             0.00752145711            0.000294873767           
       2.272048             0.00737796682            0.000290251013           
       2.274689             0.00681912968             0.00028013946           
       2.277329             0.00738331088            0.000291110531           
       2.279969             0.00680487967            0.000280321816           
       2.282610             0.00732988594            0.000288097332           
       2.285250             0.00714910712            0.000288997283           
       2.287891             0.00670501863            0.000277053144           
       2.290531             0.00747907859            0.000294051582           
       2.293171             0.00723769802            0.000289253278           
       2.295812             0.00735711134            0.000290081837           
       2.298452              0.0072524007            0.000289854758           
       2.301092             0.00742120374            0.000295071129           
       2.303733             0.00714343978            0.000283770357           
       2.306373             0.00659252077             0.00027927607           
       2.309014             0.00733502636            0.000288907087           
       2.311654             0.00725420101            0.000290037647           
       2.314294             0.00712894584            0.000286895065           
       2.316935             0.00667173334            0.000278639598           
       2.319575             0.00667754633            0.000277717107           
       2.322215             0.00717769635            0.000292032805           
       2.324856             0.00752154228            0.000291438624           
       2.327496             0.00679774893            0.000283851693           
       2.330137             0.00700062424            0.000282743781           
       2.332777             0.00721257381            0.000290130899           
       2.335417             0.00720548993            0.000289117825           
       2.338058             0.00713310276            0.000288813215           
       2.340698             0.00736733872            0.000290626998           
       2.343339              0.0067606566            0.000283716456           
       2.345979              0.0068761964            0.000280420892           
       2.348619             0.00705139766            0.000289333612           
       2.351260             0.00689219444            0.000279968148           
       2.353900             0.00719217156            0.000292054067           
       2.356540             0.00678305822            0.000279725203           
       2.359181             0.00659481176             0.00027950462           
       2.361821             0.00676994631            0.000279741132           
       2.364462             0.00728761935            0.000295090253           
       2.367102             0.00722765207            0.000285375514           
       2.369742             0.00691543182            0.000289147272           
       2.372383             0.00678039122            0.000277964001           
       2.375023             0.00668848826            0.000283266655           
       2.377663             0.00752504762             0.00029407467           
       2.380304             0.00676298699            0.000282654093           
       2.382944             0.00650195798            0.000274434892           
       2.385585             0.00692636693            0.000285927803           
       2.388225             0.00672603308            0.000280489397           
       2.390865             0.00702898256            0.000287470885           
       2.393506             0.00701940639              0.0002859511           
       2.396146             0.00744276563            0.000295424045           
       2.398787             0.00709452395            0.000288682201           
       2.401427             0.00700442034            0.000285101443           
       2.404067             0.00656778509            0.000280285967           
       2.406708             0.00663545735             0.00027818523           
       2.409348             0.00709546852             0.00028983046           
       2.411988             0.00700213638            0.000286998429           
       2.414629              0.0070191617             0.00028828731           
       2.417269             0.00655776492             0.00027612059           
       2.419910             0.00746668728            0.000298350931           
       2.422550             0.00710366296            0.000286590336           
       2.425190             0.00705470667            0.000294593205           
       2.427831             0.00690894664            0.000280569747           
       2.430471             0.00727119561            0.000296244893           
       2.433112             0.00674096723            0.000278508548           
       2.435752             0.00705853602            0.000292208294           
       2.438392             0.00751446036            0.000296430168           
       2.441033             0.00733346411            0.000294180339           
       2.443673             0.00714162736            0.000291082325           
       2.446313             0.00692066804            0.000285017264           
       2.448954             0.00670532583            0.000283009666           
       2.451594             0.00681633625            0.000283630635           
       2.454235              0.0066332553            0.000278925068           
       2.456875              0.0070824269            0.000289674013           
       2.459515             0.00785568869            0.000305548204           
       2.462156             0.00768158547            0.000300585834           
       2.464796             0.00781852917            0.000308602528           
       2.467436             0.00714746494            0.000288874813           
       2.470077             0.00845662703            0.000318551804           
       2.472717             0.00778437724            0.000301803999           
       2.475358             0.00763015936            0.000302184743           
       2.477998             0.00724793579            0.000292947424           
       2.480638             0.00748907647            0.000298504308           
       2.483279             0.00708904167            0.000291670134           
       2.485919             0.00693566582            0.000286477603           
       2.488560             0.00767291188            0.000302568976           
       2.491200              0.0076817463            0.000302328041           
       2.493840             0.00732768031            0.000293670755           
       2.496481             0.00748046656            0.000300596675           
       2.499121             0.00700639389            0.000287042255           
       2.501761             0.00722000436            0.000296332945           
       2.504402             0.00723765359            0.000291009038           
       2.507042             0.00723600143            0.000295812795           
       2.509683              0.0074537966            0.000297497429           
       2.512323             0.00692928281            0.000287962407           
       2.514963              0.0111775228            0.000366460609           
       2.517604              0.0257894041            0.000554461767           
       2.520244              0.0421939711            0.000709367189           
       2.522884              0.0103674975            0.000350858347           
       2.525525             0.00857839955            0.000321773839           
       2.528165              0.0250201756            0.000547021973           
       2.530806              0.0245049697            0.000539328518           
       2.533446              0.0119646202            0.000380205309           
       2.536086              0.0103325104            0.000350357439           
       2.538727              0.0122731084            0.000384291716           
       2.541367              0.0120275961            0.000379340779           
       2.544008             0.00865831877            0.000322125159           
       2.546648             0.00778822307            0.000305858056           
       2.549288             0.00720948918            0.000294317097           
       2.551929              0.0074485484            0.000300145094           
       2.554569             0.00731066564            0.000294636781           
       2.557209             0.00682728432            0.000287946613           
       2.559850             0.00673938663             0.00028279727           
       2.562490             0.00687139976            0.000287632765           
       2.565131             0.00730118531            0.000297007489           
       2.567771             0.00759920697            0.000301402574           
       2.570411             0.00705924515            0.000294032242           
       2.573052             0.00712956632            0.000292043861           
       2.575692             0.00649205193            0.000279420368           
       2.578332             0.00687297994            0.000286651869           
       2.580973             0.00714124055            0.000294561608           
       2.583613             0.00710864816            0.000291210496           
       2.586254             0.00675869287            0.000286464058           
       2.588894             0.00673046162             0.00028434025           
       2.591534             0.00722606648            0.000295165089           
       2.594175             0.00728000827            0.000297984475           
       2.596815             0.00732579575            0.000296140871           
       2.599456             0.00684551272            0.000288610923           
       2.602096             0.00699558496             0.00029066551           
       2.604736             0.00696937075            0.000290881289           
       2.607377             0.00691302681            0.000288595226           
       2.610017             0.00701612408            0.000290637663           
       2.612657             0.00660465563            0.000283978459           
       2.615298             0.00637970411             0.00027637039           
       2.617938             0.00650668677            0.000281548963           
       2.620579             0.00697272662            0.000289076733           
       2.623219             0.00701678361            0.000294627171           
       2.625859             0.00650470596            0.000278891769           
       2.628500             0.00729811627            0.000300132692           
       2.631140             0.00745960627            0.000298084197           
       2.633780             0.00732109025            0.000299096595           
       2.636421             0.00698151764            0.000289419959           
       2.639061             0.00708258749            0.000294992743           
       2.641702             0.00676441059            0.000285208679           
       2.644342             0.00713882431            0.000295399073           
       2.646982             0.00677986732            0.000287632209           
       2.649623             0.00697293116             0.00029344747           
       2.652263               0.007553851            0.000302996254           
       2.654904             0.00695846403            0.000292389302           
       2.657544             0.00701093574            0.000291424761           
       2.660184             0.00737160971            0.000299209087           
       2.662825             0.00699250431            0.000292112208           
       2.665465             0.00721286087            0.000297227918           
       2.668105             0.00726826275            0.000298485375           
       2.670746             0.00715437043            0.000293631804           
       2.673386             0.00685118617            0.000290825232           
       2.676027             0.00711597613            0.000293872337           
       2.678667              0.0078218651            0.000309705235           
       2.681307             0.00694637031            0.000289563481           
       2.683948             0.00714353398             0.00029656043           
       2.686588             0.00692619185            0.000289334456           
       2.689229             0.00662840661            0.000285586585           
       2.691869             0.00730697498            0.000296855663           
       2.694509             0.00737313466            0.000302285966           
       2.697150             0.00734626069            0.000296918773           
       2.699790             0.00668391977            0.000289100576           
       2.702430             0.00701446085            0.000290484486           
       2.705071             0.00697070469             0.00029354018           
       2.707711             0.00727678093            0.000296941423           
       2.710352             0.00641724325            0.000280440229           
       2.712992             0.00650013983             0.00028316341           
       2.715632             0.00692156176            0.000290536293           
       2.718273             0.00636909561            0.000279625394           
       2.720913             0.00666794523            0.000286588141           
       2.723553             0.00674796358            0.000287300792           
       2.726194              0.0074016003            0.000302344981           
       2.728834             0.00681182524            0.000287470882           
       2.731475             0.00650023132              0.0002832733           
       2.734115             0.00650936219             0.00028178305           
       2.736755             0.00722402811            0.000298811148           
       2.739396             0.00693667987            0.000291259617           
       2.742036             0.00684363024            0.000291274149           
       2.744677              0.0071306872            0.000297754863           
       2.747317             0.00669509831            0.000287115486           
       2.749957             0.00681011882            0.000291671987           
       2.752598             0.00693895533             0.00029530465           
       2.755238             0.00688895107            0.000294106087           
       2.757878             0.00668102419             0.00028880898           
       2.760519              0.0063352797            0.000278267296           
       2.763159             0.00701997926            0.000297681571           
       2.765800             0.00743235497            0.000301111531           
       2.768440             0.00677932857            0.000291367637           
       2.771080             0.00632656596            0.000279097965           
       2.773721             0.00635940555            0.000283254211           
       2.776361             0.00672623631            0.000288180425           
       2.779001             0.00648741971            0.000285993206           
       2.781642             0.00742450678            0.000303864501           
       2.784282             0.00699328889            0.000295011114           
       2.786923             0.00668475545            0.000286236374           
       2.789563             0.00678894069            0.000289037779           
       2.792203             0.00699593398            0.000295278741           
       2.794844             0.00653670701            0.000284124191           
       2.797484             0.00680256089            0.000290252795           
       2.800125             0.00689226317            0.000291782693           
       2.802765              0.0074645666             0.00030928451           
       2.805405             0.00597422148            0.000272697902           
       2.808046             0.00632920948            0.000284986704           
       2.810686             0.00650322869            0.000285799803           
       2.813326             0.00663958237            0.000292353298           
       2.815967             0.00684062984            0.000294876433           
       2.818607             0.00674592334            0.000295755292           
       2.821248             0.00725538961            0.000302895601           
       2.823888             0.00660880496            0.000293740218           
       2.826528             0.00616890716            0.000282102679           
       2.829169             0.00663196803            0.000291207599           
       2.831809              0.0068222324            0.000295614062           
       2.834449             0.00674299992            0.000288762591           
       2.837090             0.00639328188            0.000282866831           
       2.839730             0.00623108099            0.000277272411           
       2.842371             0.00680316781            0.000291740002           
       2.845011             0.00646169489            0.000283689937           
       2.847651             0.00672059312            0.000289848694           
       2.850292             0.00688894246            0.000291789182           
       2.852932             0.00690785379            0.000292713376           
       2.855573             0.00673925893            0.000291658506           
       2.858213             0.00698258929            0.000293546144           
       2.860853              0.0072905435            0.000302194554           
       2.863494             0.00668374247            0.000290042076           
       2.866134             0.00656572856            0.000291502301           
       2.868774             0.00715164576            0.000299574003           
       2.871415             0.00707076641             0.00030082342           
       2.874055             0.00684095442              0.0002973601           
       2.876696               0.006842607             0.00029471808           
       2.879336             0.00691577131            0.000298256304           
       2.881976             0.00649110252            0.000288716078           
       2.884617             0.00646935229            0.000286630786           
       2.887257             0.00694368125            0.000294882223           
       2.889897             0.00691457388            0.000297636386           
       2.892538             0.00727515942             0.00030318165           
       2.895178             0.00691562003            0.000292580693           
       2.897819             0.00652778177            0.000287181719           
       2.900459             0.00647027409            0.000283546691           
       2.903099              0.0064479516            0.000284535103           
       2.905740             0.00732784717            0.000299942593           
       2.908380             0.00615049447            0.000278455756           
       2.911021             0.00687917864            0.000295049095           
       2.913661              0.0070666141            0.000295750754           
       2.916301             0.00636745033            0.000284732907           
       2.918942             0.00699140324             0.00029385645           
       2.921582              0.0063278802            0.000282497708           
       2.924222             0.00688020909            0.000292860169           
       2.926863             0.00646466629            0.000284632568           
       2.929503             0.00653252954            0.000289298872           
       2.932144             0.00669999142            0.000288178288           
       2.934784             0.00772896658            0.000310832622           
       2.937424             0.00728133094            0.000302255209           
       2.940065             0.00709556352            0.000298617444           
       2.942705             0.00592561736            0.000273719761           
       2.945346             0.00612086047            0.000276549478           
       2.947986             0.00709995141            0.000298889303           
       2.950626             0.00841410717            0.000326377338           
       2.953267             0.00963304273            0.000345508994           
       2.955907              0.0102180947            0.000360551016           
       2.958547             0.00864312239            0.000328201785           
       2.961188             0.00741947504            0.000306737625           
       2.963828             0.00766883868            0.000310082382           
       2.966469             0.00700630732             0.00029645927           
       2.969109              0.0073526911             0.00030525238           
       2.971749             0.00711386803            0.000299370857           
       2.974390             0.00831162613            0.000324481317           
       2.977030             0.00997818347            0.000354850258           
       2.979670             0.00958689615            0.000345580608           
       2.982311             0.00789203037            0.000315811346           
       2.984951              0.0078358893            0.000315499719           
       2.987592             0.00759290244             0.00030952121           
       2.990232              0.0071507895            0.000301141818           
       2.992872             0.00725614469            0.000300978781           
       2.995513             0.00862171444            0.000330657078           
       2.998153             0.00883425998            0.000336867396           
       3.000794              0.0132564587            0.000406650752           
       3.003434              0.0350328477             0.00066807674           
       3.006074               0.051546417            0.000812990133           
       3.008715              0.0251573438            0.000572285736           
       3.011355              0.0225646801            0.000547631365           
       3.013995              0.0190214857            0.000500341975           
       3.016636              0.0302823121            0.000632488688           
       3.019276               0.132707765             0.00135569774           
       3.021917               0.317451657             0.00206122174           
       3.024557               0.135847251             0.00135914174           
       3.027197               0.105052225             0.00121526389           
       3.029838              0.0955356463             0.00115337079           
       3.032478              0.0659731007            0.000964177646           
       3.035118              0.0441086568             0.00079243797           
       3.037759              0.0962241516             0.00117249129           
       3.040399               0.128322864             0.00136949634           
       3.043040              0.0545525604            0.000901600597           
       3.045680              0.0595605688            0.000927567253           
       3.048320               0.140553382             0.00144777254           
       3.050961               0.248760372             0.00194537556           
       3.053601              0.0647436363            0.000988067332           
       3.056242              0.0544020779            0.000911541561           
       3.058882               0.209497909             0.00181539639           
       3.061522               0.130221026             0.00142135551           
       3.064163              0.0227582635            0.000595279947           
       3.066803              0.0277889179            0.000670510109           
       3.069443              0.0383714828            0.000782657312           
       3.072084              0.0745525065             0.00110064523           
       3.074724              0.0207279017            0.000583782198           
       3.077365              0.0117891457            0.000439949975           
       3.080005             0.00978399142            0.000405237538           
       3.082645             0.00939281002             0.00039907551           
       3.085286             0.00854650808            0.000380742067           
       3.087926             0.00815816612            0.000374358094           
       3.090566              0.0077840637            0.000369440732           
       3.093207              0.0074367621            0.000357203591           
       3.095847             0.00802745157            0.000378897671           
       3.098488             0.00777350866            0.000372180354           
       3.101128             0.00771242433            0.000372734598           
       3.103768             0.00964640207            0.000419205311           
       3.106409              0.0110522168            0.000451718603           
       3.109049              0.0107491303            0.000448944895           
       3.111690              0.0113286711            0.000459073782           
       3.114330               0.012032838            0.000477335998           
       3.116970              0.0140423992            0.000522830402           
       3.119611               0.016290554            0.000559465079           
       3.122251              0.0120446055            0.000485002044           
       3.124891              0.0102917727            0.000450500918           
       3.127532             0.00783402417            0.000400125941           
       3.130172             0.00731646008            0.000378728025           
       3.132813             0.00947272277            0.000439708185           
       3.135453             0.00807678883             0.00041458383           
       3.138093             0.00764933157            0.000393890865           
       3.140734             0.00662127248            0.000373287344           
       3.143374             0.00640698185            0.000372810367           
       3.146014             0.00657030881              0.0003747918           
       3.148655             0.00680014218            0.000384292645           
       3.151295             0.00627079651             0.00037195332           
       3.153936              0.0070987206            0.000401588781           
       3.156576             0.00718817352            0.000399472153           
       3.159216             0.00660498591            0.000386056387           
       3.161857             0.00646312575            0.000386572808           
       3.164497             0.00696015975            0.000409620454           
       3.167138             0.00643269189            0.000384345639           
       3.169778             0.00593694637            0.000375905943           
       3.172418             0.00648715187             0.00039523466           
       3.175059             0.00651558368             0.00040128352           
       3.177699             0.00592957972            0.000381300913           
       3.180339             0.00591526587            0.000384244555           
       3.182980             0.00585649612            0.000387492405           
       3.185620             0.00575682618            0.000388379154           
       3.188261             0.00608092565             0.00039393244           
       3.190901             0.00560095386            0.000383891846           
       3.193541              0.0053477728            0.000376351019           
       3.196182             0.00578415333            0.000399548904           
       3.198822             0.00607629241            0.000404550259           
       3.201463             0.00549230057            0.000389592386           
       3.204103             0.00547478271            0.000394150197           
       3.206743              0.0054780069            0.000397599627           
       3.209384             0.00591829857            0.000411427009           
       3.212024             0.00578680992            0.000408276179           
       3.214664             0.00567775219            0.000412118913           
       3.217305             0.00575814833            0.000424709177           
       3.219945             0.00591212036            0.000426751444           
       3.222586             0.00590814286            0.000429022158           
       3.225226             0.00579533415             0.00043447904           
       3.227866             0.00536257768            0.000421175648           
       3.230507             0.00595376546            0.000449080285           
       3.233147             0.00536291564            0.000419910694           
       3.235787             0.00617397671            0.000450668269           
       3.238428             0.00596531598            0.000450810914           
       3.241068             0.00696588887            0.000497031996           
       3.243709             0.00584947876            0.000452936609           
       3.246349              0.0068699413            0.000488111043           
       3.248989             0.00670662889            0.000493297792           
       3.251630             0.00623755337            0.000477838707           
       3.254270             0.00575844377            0.000473233349           
       3.256911             0.00531551448            0.000443276943           
       3.259551             0.00560804903            0.000465372406           
       3.262191             0.00401919263            0.000397595366           
       3.264832             0.00636933102            0.000505213352           
       3.267472             0.00621673443            0.000506203032           
       3.270112             0.00488982351            0.000450219963           
       3.272753             0.00543511103            0.000480492862           
       3.275393             0.00567022672            0.000493301732           
       3.278034             0.00742747572            0.000576091105           
       3.280674             0.00607193364            0.000522387371           
       3.283314              0.0054154771            0.000496067311           
       3.285955             0.00472248543            0.000471942715           
       3.288595             0.00573541855            0.000525901884           
       3.291235             0.00600354652            0.000541214993           
       3.293876             0.00640480303            0.000562318926           
       3.296516             0.00705188665            0.000602076109           
       3.299157             0.00525304693            0.000527496242           
       3.301797             0.00569643901            0.000549540842           
       3.304437             0.00535429546             0.00054276862           
       3.307078             0.00539272375            0.000550004541           
       3.309718             0.00572758126             0.00057248161           
       3.312359             0.00555399189            0.000575130311           
       3.314999             0.00578689934            0.000593224163           
       3.317639             0.00554601005            0.000586999417           
       3.320280             0.00603560603            0.000621303724           
       3.322920             0.00616270874            0.000637204811           
       3.325560             0.00455503472            0.000558399771           
       3.328201              0.0047918924            0.000575155015           
       3.330841             0.00539928724            0.000625367912           
       3.333482              0.0070126406            0.000721751556           
       3.336122              0.0049976951            0.000622543789           
       3.338762             0.00649839113            0.000716377779           
       3.341403             0.00542164437             0.00066041214           
       3.344043              0.0059276758            0.000716900837           
       3.346683             0.00518002074            0.000676963511           
       3.349324             0.00597923903            0.000738573737           
       3.351964             0.00546772391            0.000728981246           
       3.354605             0.00551863939             0.00074066074           
       3.357245             0.00590285339            0.000792934755           
       3.359885             0.00527220461            0.000749650189           
       3.362526             0.00488494446             0.00075848894           
       3.365166              0.0044296393             0.00071335934           
       3.367807             0.00508805321            0.000818412789           
       3.370447             0.00442882279            0.000763851759           
       3.373087             0.00434338536            0.000798354075           
       3.375728             0.00600061161            0.000931287343           
       3.378368             0.00549810697            0.000963268562           
       3.381008             0.00573790447            0.000975470268           
       3.383649             0.00422255255            0.000905614763           
       3.386289             0.00538655219             0.00102327054           
       3.388930             0.00807382734             0.00137586169           
       3.391570             0.00555308342             0.00114152181           
       3.394210             0.00318149202            0.000925797168           
       3.396851             0.00434302323             0.00117170851           
       3.399491             0.00732521926              0.0015493347           
       3.402131             0.00718255517             0.00181602666           
       3.404772             0.00445237263              0.0014304233           
       3.407412             0.00415879326              0.0017154584           
       3.410053             0.00365638001             0.00167490037           
       3.412693             0.00288403946             0.00210455822           
       3.415333             0.00212497322              0.0022133969           
