################################################################################
# EDF_DataBlockID                     0.Image.Psd
# EDF_BinarySize                      2105344
# EDF_HeaderSize                      2560
# ByteOrder                           LowByteFirst
# DataType                            FloatValue
# Dim_1                               512
# Dim_2                               1028
# Image                               0
# HeaderID                            EH:000000:000000:000000
# Size                                2105344
# Center_1                            304.9000
# Center_2                            588.7000
# Comment                             Xenocs_Cell_Window - front_window_open_only
# DDummy                              0.6
# Date                                2025-10-20T02:15:22
# Delta                               21.910000
# Dummy                               -1.5
# ExposureTime                        360
# Gamma                               15.360000
# Intensity1                          8.87028e-10
# PSize_1                             7.5e-05
# PSize_2                             7.5e-05
# Pressure                            0.0326748
# SampleDistance                      0.115750
# SampleEnvKind                       large
# SampleEnvPN                         ElectroChemical cell
# SampleEnvSN                         1141
# Thickness                           0
# Wavelength                          1.541891e-10
# Wavelength                          1.54189e-10
# aux                                 0
# aux_dial                            0.002375
# beamx                               588.429
# beamx_dial                          588.429
# beamz                               657.855
# beamz_dial                          657.855
# det0x                               -0.000396875
# det0x_dial                          6.36905
# det0xvd                             -0.0005
# det0xvd_dial                        -0.0005
# det0y                               450.002
# det0y_dial                          481.635
# det0z                               0
# det0z_dial                          1.2295
# det0zvd                             0
# det0zvd_dial                        0
# mag                                 1.818
# mag_dial                            1.818
# om                                  0.2499
# om_dial                             -0.610199
# phi                                 -0.0120535
# phi_dial                            0
# ry                                  0.599993
# ry_dial                             0.599993
# s1bot                               0.8
# s1bot_dial                          -1.66094
# s1hl                                0.8
# s1hl_dial                           -0.608437
# s1hr                                0.8
# s1hr_dial                           0.970938
# s1top                               0.8
# s1top_dial                          -0.461562
# s2bot                               0.45
# s2bot_dial                          1.36109
# s2hl                                0.45
# s2hl_dial                           -0.83375
# s2hr                                0.45
# s2hr_dial                           -0.118594
# s2top                               0.45
# s2top_dial                          1.44734
# w2theta                             32
# w2theta_dial                        32
# waxsch                              19.2605
# waxsch_dial                         -32.7238
# waxsh                               137.085
# waxsh_dial                          -43.5335
# waxsth                              26.0607
# waxsth_dial                         -19.4068
# waxsz                               67.0407
# waxsz_dial                          -23.7962
# wind                                65.9854
# wind_dial                           66.0041
# wpsi                                124
# wpsi_dial                           124
# wstod                               115
# wstod_dial                          115
# x                                   0
# x_dial                              1.00969
# z                                   0
# z_dial                              13.3172
# CountCutoff                         6807993
# DetectorModel                       Dectris EIGER2 Si 500K, S/N E-01-0554
# ThresholdSetting                    4023.88989258
# Saturation                          0
# FlatField                           Corrected
# BackgroundReductionExtra            0.02
# BackgroundCorrectionConstant        0.0026712
# Detector                            0
# Monitor                             0
# Pil_Roi0                            0
# SumForIntensity1                    3.1933e+08
# TransmittedFlux                     887028
# det                                 0
# mon                                 0
# pilai0                              3.1933e+08
# pilai1                              689391
# pilct0                              5.52439e+08
# pilct1                              689391
# pilroi0                             0
# pilroi1                             0
# sec                                 1
# title                               20251017__1_00510.edf
# usaxs0                              0
# Operation                           Azimuthal average I(q)
# Error_model                         ErrorModel.poisson
# Geometrical_correction              True
# Transmission_correction             True
# Thickness_correction                False
# Binning mode                        Uniform
# Binning factor                      1.0
# Psi                                 0.0
# Omega                               0.2499
# MaskInvalidPixels                   True
# DetectorEdge                        3
# MaskFiles                           ['20251017__1_00233_mask.edf']
################################################################################
    q(A⁻¹)                Intensity(a.u.)            Sigma_I(a.u.)            
       0.690460             0.00777494977             0.00816366225           
       0.693100             0.00798221266             0.00369815939           
       0.695741              0.0105511384             0.00359202837           
       0.698381             0.00819500102             0.00296081159           
       0.701021              0.0117537093             0.00289393389           
       0.703662             0.00529200695             0.00179743698           
       0.706302             0.00561019995             0.00178734542           
       0.708942             0.00705666706             0.00178058645           
       0.711583             0.00483642217             0.00147382461           
       0.714223             0.00633238872             0.00146957485           
       0.716864             0.00696257811             0.00157247835           
       0.719504             0.00659803698             0.00141671951           
       0.722144             0.00836768391             0.00154086584           
       0.724785             0.00512867146             0.00118655408           
       0.727425             0.00675560286             0.00126315027           
       0.730065             0.00515141387             0.00113495266           
       0.732706             0.00552041304             0.00105652106           
       0.735346             0.00863345855             0.00142717462           
       0.737987             0.00681599784             0.00109758301           
       0.740627             0.00862409076              0.0013524995           
       0.743267             0.00621082939            0.000987281001           
       0.745908             0.00715412056             0.00113560491           
       0.748548             0.00435285747            0.000826164562           
       0.751189             0.00565807809            0.000933045518           
       0.753829             0.00807179374             0.00112448456           
       0.756469             0.00590861144            0.000904880468           
       0.759110              0.0072277731             0.00103517636           
       0.761750             0.00676636555            0.000916659405           
       0.764390             0.00720131597              0.0010151167           
       0.767031             0.00718513271            0.000917530032           
       0.769671             0.00511646494            0.000821130248           
       0.772312             0.00596690711            0.000808068003           
       0.774952             0.00746378564            0.000968878154           
       0.777592             0.00607262595            0.000799342547           
       0.780233             0.00613571341            0.000847040249           
       0.782873             0.00561091551            0.000740708201           
       0.785513             0.00748467618            0.000910041494           
       0.788154             0.00573632365            0.000731773269           
       0.790794             0.00785799706            0.000886428977           
       0.793435             0.00815174962            0.000867174229           
       0.796075             0.00545278163            0.000712981871           
       0.798715             0.00831942161            0.000875648069           
       0.801356             0.00760942562            0.000815038518           
       0.803996             0.00813622564            0.000856247015           
       0.806637             0.00662717653            0.000730474343           
       0.809277             0.00657688503            0.000761290152           
       0.811917             0.00729911451            0.000758926495           
       0.814558             0.00584500709            0.000695731874           
       0.817198             0.00635825427            0.000691893744           
       0.819838             0.00652467959            0.000731103623           
       0.822479             0.00874020953            0.000779796098           
       0.825119             0.00612948438            0.000701520301           
       0.827760              0.0072148554             0.00070523789           
       0.830400             0.00715258265             0.00073984374           
       0.833040             0.00749586902            0.000706860634           
       0.835681             0.00631498938            0.000679429228           
       0.838321             0.00637971956            0.000639184061           
       0.840961             0.00647366152            0.000673004021           
       0.843602             0.00727703404            0.000672128765           
       0.846242             0.00707437115            0.000686101131           
       0.848883              0.0062585646            0.000627760752           
       0.851523              0.0061595602            0.000627442937           
       0.854163             0.00563685953            0.000593257129           
       0.856804             0.00554167547            0.000573175941           
       0.859444              0.0069964913            0.000648662649           
       0.862085             0.00598902175            0.000591415732           
       0.864725             0.00604427418            0.000591956269           
       0.867365             0.00812980045            0.000681610248           
       0.870006             0.00619421613            0.000603263161           
       0.872646             0.00708976665            0.000617312594           
       0.875286             0.00605873969             0.00059010811           
       0.877927             0.00559927533            0.000543158353           
       0.880567             0.00620363023            0.000582889133           
       0.883208             0.00590338705            0.000552187422           
       0.885848             0.00800185824            0.000659554084           
       0.888488             0.00650900743            0.000565601903           
       0.891129              0.0068046015            0.000607898981           
       0.893769             0.00685467662            0.000576726009           
       0.896410             0.00764681576            0.000627902486           
       0.899050             0.00740183154            0.000595643983           
       0.901690             0.00764893625            0.000618144036           
       0.904331             0.00676391283            0.000560989435           
       0.906971             0.00751268208            0.000610496949           
       0.909611             0.00814308881            0.000610064496           
       0.912252             0.00648541374            0.000553874094           
       0.914892             0.00620694319             0.00052812804           
       0.917533             0.00751032357            0.000594046137           
       0.920173             0.00701335593            0.000550661859           
       0.922813             0.00638005107            0.000548855276           
       0.925454             0.00726533627            0.000555862115           
       0.928094             0.00806370312            0.000598177214           
       0.930734             0.00714827904            0.000549759734           
       0.933375             0.00737405013            0.000570277104           
       0.936015             0.00682576667            0.000524973468           
       0.938656             0.00777934268            0.000583953316           
       0.941296             0.00644822095            0.000512509987           
       0.943936             0.00722945829             0.00055244264           
       0.946577             0.00615413008            0.000490876015           
       0.949217              0.0080287956            0.000580479242           
       0.951858              0.0083733778            0.000560427439           
       0.954498             0.00693608402            0.000536611402           
       0.957138             0.00762960861            0.000540934003           
       0.959779             0.00780157678            0.000558960612           
       0.962419             0.00738317817            0.000523480714           
       0.965059             0.00715401589            0.000529929263           
       0.967700             0.00671860184            0.000496942499           
       0.970340             0.00726795481            0.000531383447           
       0.972981             0.00786895213            0.000533857777           
       0.975621             0.00645936624             0.00049381189           
       0.978261             0.00742372289            0.000505106453           
       0.980902              0.0077712696            0.000541401936           
       0.983542             0.00554865722            0.000444155026           
       0.986182             0.00716056164             0.00051120628           
       0.988823             0.00808588033            0.000525705448           
       0.991463             0.00649218073            0.000482308922           
       0.994104             0.00735571297            0.000496079242           
       0.996744             0.00780943162            0.000527726001           
       0.999384             0.00768099653            0.000505605159           
       1.002025             0.00756410254            0.000515713087           
       1.004665             0.00785854439            0.000504122763           
       1.007306             0.00764619842            0.000513927548           
       1.009946             0.00795806639            0.000504134501           
       1.012586             0.00784609868             0.00051497472           
       1.015227             0.00767010908            0.000493754279           
       1.017867             0.00649642288            0.000467431193           
       1.020507             0.00766415904            0.000488593664           
       1.023148             0.00808222307            0.000507802902           
       1.025788             0.00794154267            0.000498209733           
       1.028429             0.00711963622             0.00048203702           
       1.031069             0.00695942838            0.000459163831           
       1.033709             0.00714044326            0.000474028147           
       1.036350             0.00747155613            0.000472179417           
       1.038990             0.00790003399            0.000497516591           
       1.041630             0.00847546607            0.000505403543           
       1.044271             0.00802894199             0.00049196523           
       1.046911             0.00732607881            0.000461207145           
       1.049552             0.00823166644             0.00050650023           
       1.052192             0.00784616657            0.000472261131           
       1.054832             0.00780842373            0.000480285869           
       1.057473             0.00867146616            0.000499725216           
       1.060113             0.00813293396            0.000489199701           
       1.062754             0.00786492975            0.000475751201           
       1.065394             0.00772423452            0.000466516097           
       1.068034             0.00862245038            0.000490986579           
       1.070675             0.00770066381            0.000472161619           
       1.073315              0.0069437848            0.000434652967           
       1.075955             0.00796044752            0.000473191109           
       1.078596              0.0079011239            0.000470492807           
       1.081236              0.0078890865            0.000463161195           
       1.083877             0.00751496642            0.000466167044           
       1.086517             0.00788938824            0.000466834083           
       1.089157             0.00745443145            0.000457109941           
       1.091798             0.00706097093            0.000435456942           
       1.094438             0.00779501169            0.000464803493           
       1.097078             0.00850731683               0.000473098           
       1.099719              0.0078528047            0.000466184134           
       1.102359             0.00887016142            0.000469361273           
       1.105000             0.00840309308             0.00047482871           
       1.107640             0.00823600766            0.000454760706           
       1.110280             0.00759674297            0.000445500768           
       1.112921             0.00773829672            0.000441496437           
       1.115561             0.00848830604            0.000468265142           
       1.118202             0.00770104324            0.000433003865           
       1.120842             0.00864914477            0.000473343099           
       1.123482             0.00824424671            0.000449167297           
       1.126123             0.00831634534            0.000453942499           
       1.128763              0.0086617515            0.000460975676           
       1.131403              0.0084763313            0.000455306091           
       1.134044             0.00886429898            0.000464801206           
       1.136684             0.00902666844            0.000472563729           
       1.139325             0.00842726342            0.000443739185           
       1.141965             0.00886995798            0.000461198995           
       1.144605             0.00771142184            0.000432551997           
       1.147246             0.00869371016            0.000450577767           
       1.149886             0.00835635868            0.000444890812           
       1.152527             0.00837897051            0.000445938723           
       1.155167             0.00894952667            0.000454391677           
       1.157807             0.00828387456            0.000437467891           
       1.160448             0.00797142268            0.000435009971           
       1.163088             0.00845101672            0.000431287726           
       1.165728              0.0079359563            0.000435165006           
       1.168369              0.0090363815            0.000447779298           
       1.171009             0.00876697225            0.000444710495           
       1.173650             0.00900000174            0.000447332817           
       1.176290             0.00819454077            0.000431855035           
       1.178930             0.00927837627            0.000446609823           
       1.181571             0.00888723351            0.000451370929           
       1.184211             0.00861667407             0.00043102414           
       1.186851             0.00794184867            0.000417617461           
       1.189492             0.00831076013            0.000429579142           
       1.192132             0.00869748993            0.000432951923           
       1.194773             0.00881074665            0.000433132728           
       1.197413              0.0091347446            0.000444622247           
       1.200053             0.00897673426            0.000437986847           
       1.202694             0.00849955631            0.000422975192           
       1.205334             0.00893748669            0.000438476389           
       1.207975             0.00904165335            0.000432382941           
       1.210615             0.00927805767            0.000447261036           
       1.213255             0.00992955747            0.000450457046           
       1.215896             0.00915635831             0.00044076273           
       1.218536             0.00901790152            0.000424818891           
       1.221176             0.00949471575            0.000446309745           
       1.223817              0.0090151684            0.000425830775           
       1.226457             0.00916763409            0.000434870832           
       1.229098             0.00953041447            0.000436665053           
       1.231738             0.00894333658            0.000428958432           
       1.234378             0.00920175352            0.000426657284           
       1.237019             0.00962465138            0.000439870971           
       1.239659             0.00977150797            0.000442974323           
       1.242299              0.0099163867            0.000443964795           
       1.244940              0.0100731892            0.000442631093           
       1.247580              0.0100206092            0.000443423665           
       1.250221             0.00980016486            0.000445677208           
       1.252861             0.00990510302            0.000431363941           
       1.255501             0.00837313249            0.000407802929           
       1.258142                0.01086855            0.000455428478           
       1.260782              0.0102016277            0.000446218184           
       1.263423              0.0104074673            0.000441768278           
       1.266063              0.0102202339            0.000445936035           
       1.268703             0.00940776418            0.000417064385           
       1.271344              0.0110509594            0.000461867379           
       1.273984             0.00955860005              0.0004228451           
       1.276624             0.00995940077            0.000428985703           
       1.279265               0.010053506            0.000431948684           
       1.281905             0.00970937115            0.000427107923           
       1.284546             0.00992359164            0.000427076817           
       1.287186             0.00958904415            0.000420219534           
       1.289826             0.00999574546            0.000431263264           
       1.292467             0.00985642098            0.000420603765           
       1.295107              0.0095437567            0.000421174037           
       1.297747               0.010227323            0.000424560417           
       1.300388              0.0108198046             0.00044789868           
       1.303028               0.010501667            0.000430043706           
       1.305669              0.0100142631            0.000425371227           
       1.308309             0.00983538519            0.000415216535           
       1.310949             0.00994865557            0.000422805594           
       1.313590              0.0101059399            0.000419539908           
       1.316230              0.0102121848            0.000429330809           
       1.318871              0.0109156772            0.000434296419           
       1.321511              0.0107087644             0.00043231623           
       1.324151             0.00982418255            0.000415712209           
       1.326792              0.0100499699            0.000417056212           
       1.329432                0.01027909            0.000423983611           
       1.332072              0.0093777422            0.000398023943           
       1.334713              0.0111149014             0.00043869815           
       1.337353               0.010671765            0.000423251732           
       1.339994              0.0104419722            0.000424633391           
       1.342634              0.0103760735            0.000413762031           
       1.345274              0.0100793356            0.000413133992           
       1.347915              0.0105221561            0.000423233869           
       1.350555              0.0109400103            0.000429869756           
       1.353195              0.0099823806              0.0004027693           
       1.355836              0.0104916867            0.000420707086           
       1.358476              0.0108915993              0.0004274446           
       1.361117              0.0098719449            0.000396736091           
       1.363757               0.010122678            0.000415056803           
       1.366397              0.0101077115            0.000401834199           
       1.369038              0.0104471085            0.000417135448           
       1.371678              0.0104673269             0.00040910789           
       1.374319              0.0104910499            0.000412819579           
       1.376959              0.0105384822            0.000408055661           
       1.379599              0.0111445592             0.00042780478           
       1.382240              0.0107640337            0.000412452139           
       1.384880              0.0103665849            0.000409735574           
       1.387520              0.0116290857            0.000428895008           
       1.390161              0.0110469777            0.000416886607           
       1.392801              0.0109371042            0.000417280579           
       1.395442              0.0107114294            0.000408674311           
       1.398082              0.0112761765            0.000420744281           
       1.400722              0.0104525527            0.000403257136           
       1.403363              0.0109640871            0.000416839337           
       1.406003              0.0104962295            0.000397833943           
       1.408644               0.010802184            0.000412063391           
       1.411284              0.0104971735            0.000403976526           
       1.413924              0.0108219698            0.000405119691           
       1.416565              0.0103917232            0.000396518218           
       1.419205              0.0104391135            0.000401336126           
       1.421845              0.0104083004            0.000395705332           
       1.424486              0.0110941246            0.000410337861           
       1.427126              0.0103455869            0.000396003056           
       1.429767             0.00991503841            0.000381701313           
       1.432407              0.0105300261            0.000403270208           
       1.435047              0.0100209056             0.00038157857           
       1.437688              0.0114645977            0.000417178922           
       1.440328              0.0104857931            0.000391241485           
       1.442968              0.0104367267            0.000395728288           
       1.445609               0.010108103            0.000383042589           
       1.448249              0.0102896386            0.000388965735           
       1.450890              0.0106885193            0.000393605268           
       1.453530              0.0103767761            0.000390695466           
       1.456170             0.00979390339              0.0003787095           
       1.458811              0.0101720256            0.000382880316           
       1.461451             0.00963300994            0.000375336756           
       1.464092              0.0102664442            0.000384103201           
       1.466732              0.0102854611             0.00038210068           
       1.469372                0.01012628             0.00037796698           
       1.472013              0.0106324664            0.000394227705           
       1.474653              0.0105665691            0.000383300184           
       1.477293              0.0108778559            0.000395451305           
       1.479934              0.0103041644            0.000380853781           
       1.482574              0.0100378537             0.00037497228           
       1.485215             0.00998840271            0.000375010668           
       1.487855              0.0107957449            0.000389791337           
       1.490495              0.0101728232            0.000377564245           
       1.493136              0.0104977382            0.000378516585           
       1.495776              0.0102270812            0.000380118852           
       1.498416              0.0103930497            0.000375746477           
       1.501057              0.0100222248            0.000372155991           
       1.503697               0.010250372            0.000372749389           
       1.506338             0.00997975618            0.000370500881           
       1.508978              0.0104944381            0.000377691361           
       1.511618              0.0101205608            0.000370715043           
       1.514259              0.0102110577            0.000373041318           
       1.516899              0.0100625971             0.00037049198           
       1.519540              0.0100867371            0.000368877643           
       1.522180              0.0101334052            0.000365112691           
       1.524820              0.0097033363             0.00036449707           
       1.527461              0.0102307165            0.000365991712           
       1.530101               0.010237909            0.000369905772           
       1.532741              0.0109180222            0.000380184973           
       1.535382              0.0101959679            0.000368207435           
       1.538022              0.0105963001            0.000372045371           
       1.540663             0.00965738223            0.000358536796           
       1.543303             0.00996170748            0.000359610629           
       1.545943              0.0103280522            0.000368215427           
       1.548584              0.0100689136            0.000365502689           
       1.551224              0.0105362253            0.000364302817           
       1.553864              0.0101963359            0.000367740671           
       1.556505              0.0099392622            0.000357490085           
       1.559145             0.00995312454            0.000358566317           
       1.561786              0.0104075738            0.000364999763           
       1.564426              0.0102795925             0.00036242098           
       1.567066             0.00953941045            0.000346404183           
       1.569707              0.0100050173            0.000359893237           
       1.572347              0.0093108109            0.000342678625           
       1.574988             0.00925418203            0.000340283421           
       1.577628             0.00961016029            0.000354573836           
       1.580268             0.00920287522            0.000335004783           
       1.582909             0.00970505187            0.000350458189           
       1.585549             0.00993661796            0.000351300587           
       1.588189              0.0089902352            0.000337884954           
       1.590830             0.00937983115            0.000339204167           
       1.593470             0.00918023751            0.000338316202           
       1.596111             0.00940841336             0.00033953543           
       1.598751             0.00919392717             0.00033907407           
       1.601391             0.00920999484            0.000337200448           
       1.604032              0.0090276996            0.000331058729           
       1.606672             0.00860998393            0.000329816067           
       1.609312             0.00881352014            0.000323762597           
       1.611953              0.0088580525            0.000329283432           
       1.614593             0.00934431574            0.000335628442           
       1.617234             0.00882625397            0.000328040912           
       1.619874             0.00879790572            0.000323660739           
       1.622514             0.00921947467            0.000334254711           
       1.625155             0.00895594558            0.000328628188           
       1.627795             0.00861653653            0.000319083628           
       1.630436              0.0086622379            0.000323144443           
       1.633076             0.00854814072            0.000319378256           
       1.635716             0.00835345019            0.000315169688           
       1.638357             0.00849246265             0.00031643113           
       1.640997               0.008410854            0.000317369772           
       1.643637             0.00838795355              0.0003110522           
       1.646278             0.00830199595            0.000314086332           
       1.648918             0.00871424137            0.000317641487           
       1.651559             0.00889491845            0.000324952474           
       1.654199             0.00828625333            0.000309338365           
       1.656839             0.00871934472            0.000317233949           
       1.659480             0.00827136859            0.000311698427           
       1.662120             0.00865091789            0.000314498059           
       1.664761             0.00826290231            0.000310692011           
       1.667401             0.00858731332            0.000313781717           
       1.670041             0.00869461199            0.000316097306           
       1.672682             0.00868569805            0.000312962329           
       1.675322             0.00871922289            0.000319109866           
       1.677962             0.00841248981            0.000307221585           
       1.680603             0.00885058969            0.000317916371           
       1.683243             0.00810119868            0.000301909445           
       1.685884              0.0085783412            0.000311855368           
       1.688524             0.00820596813            0.000304153539           
       1.691164              0.0083205531            0.000305482517           
       1.693805             0.00826254995            0.000306877583           
       1.696445             0.00816525413            0.000300831298           
       1.699085             0.00857305873            0.000309482777           
       1.701726             0.00821484894            0.000299007592           
       1.704366             0.00831817052            0.000308203225           
       1.707007             0.00878147227             0.00030991247           
       1.709647             0.00820686391            0.000303324077           
       1.712287             0.00892920419            0.000311103868           
       1.714928              0.0085791649            0.000308011339           
       1.717568              0.0082894273            0.000299981437           
       1.720209              0.0084762282            0.000305215798           
       1.722849             0.00871796916            0.000310033866           
       1.725489             0.00893663974            0.000308894862           
       1.728130             0.00845652202            0.000306599576           
       1.730770             0.00812695403            0.000294212574           
       1.733410              0.0081601717            0.000298683444           
       1.736051             0.00803418721            0.000291768584           
       1.738691             0.00819979859             0.00029776907           
       1.741332             0.00844792137            0.000300380147           
       1.743972             0.00854950004            0.000302292733           
       1.746612              0.0084864145            0.000301244668           
       1.749253             0.00856381393            0.000303923069           
       1.751893              0.0080513891            0.000292922053           
       1.754533             0.00848330199            0.000296549525           
       1.757174             0.00825056688            0.000297921289           
       1.759814             0.00829374989             0.00029414608           
       1.762455              0.0084166573            0.000298840264           
       1.765095             0.00824325691            0.000291592647           
       1.767735              0.0075943319            0.000284635864           
       1.770376             0.00833009072            0.000293584465           
       1.773016             0.00813043416            0.000290502548           
       1.775657              0.0082760793            0.000293693448           
       1.778297             0.00848324482            0.000298801197           
       1.780937             0.00861826947             0.00029976437           
       1.783578             0.00832014129            0.000293150881           
       1.786218             0.00842887887            0.000299768715           
       1.788858             0.00842249996            0.000292210252           
       1.791499             0.00885199113            0.000305089089           
       1.794139             0.00843930101            0.000292391534           
       1.796780             0.00856964184            0.000296391516           
       1.799420             0.00936196648               0.000309396           
       1.802060             0.00897537677            0.000299214628           
       1.804701             0.00872396586            0.000298951778           
       1.807341             0.00866497663            0.000295060471           
       1.809981             0.00915765138            0.000305347319           
       1.812622             0.00906936816            0.000302216349           
       1.815262             0.00961418469            0.000312270834           
       1.817903             0.00874330361            0.000294112884           
       1.820543             0.00854079146            0.000294279719           
       1.823183             0.00856840484            0.000290213455           
       1.825824             0.00873269181            0.000297388424           
       1.828464             0.00907800043            0.000302280792           
       1.831105              0.0087133309            0.000297293672           
       1.833745             0.00839006325             0.00029154461           
       1.836385             0.00853404375            0.000292891943           
       1.839026             0.00835931092            0.000294235542           
       1.841666             0.00840159905             0.00029114863           
       1.844306             0.00914034065            0.000307512988           
       1.846947             0.00844249434            0.000291743015           
       1.849587             0.00862107363            0.000298810902           
       1.852228             0.00868441761            0.000296716904           
       1.854868             0.00825688284            0.000294627379           
       1.857508             0.00840637961            0.000291793359           
       1.860149             0.00819470703            0.000290405487           
       1.862789             0.00887543907            0.000303564168           
       1.865429             0.00901746767            0.000306905913           
       1.868070              0.0085953353            0.000298600888           
       1.870710             0.00858347491             0.00029920743           
       1.873351             0.00890093144            0.000306635401           
       1.875991             0.00885723287            0.000307536383           
       1.878631             0.00852584045            0.000298923879           
       1.881272             0.00876979329            0.000302460158           
       1.883912             0.00891015892            0.000308446544           
       1.886553             0.00842529528             0.00029633891           
       1.889193             0.00904553783            0.000310599937           
       1.891833             0.00866753216            0.000300580872           
       1.894474             0.00900412644            0.000308786346           
       1.897114             0.00901697029            0.000306609631           
       1.899754             0.00854633126            0.000301848328           
       1.902395             0.00852555126            0.000301545412           
       1.905035             0.00887282844            0.000306420081           
       1.907676             0.00912901204            0.000311173547           
       1.910316             0.00862455889             0.00030438242           
       1.912956             0.00906478318            0.000312041653           
       1.915597             0.00850603357            0.000299120342           
       1.918237             0.00904579343            0.000313147322           
       1.920878             0.00905354899             0.00030773721           
       1.923518             0.00854336368            0.000306883125           
       1.926158             0.00820512412            0.000293836019           
       1.928799             0.00871395407            0.000306833792           
       1.931439             0.00840111726            0.000298861277           
       1.934079             0.00914316388            0.000314938171           
       1.936720             0.00824965817              0.0002973934           
       1.939360             0.00845606672            0.000303992703           
       1.942001             0.00890368562             0.00031073482           
       1.944641             0.00859080435            0.000303911025           
       1.947281             0.00808254764            0.000296208046           
       1.949922             0.00879446754            0.000309364674           
       1.952562             0.00872895197             0.00031086236           
       1.955202             0.00842841254            0.000297789257           
       1.957843             0.00880741723            0.000314081194           
       1.960483             0.00794216117             0.00029349711           
       1.963124             0.00821958056            0.000298357621           
       1.965764             0.00873860173            0.000307743241           
       1.968404             0.00797172621            0.000299185978           
       1.971045             0.00800993849             0.00029238449           
       1.973685             0.00862045346             0.00030898301           
       1.976326             0.00853641549            0.000306132692           
       1.978966             0.00883179363            0.000312857538           
       1.981606             0.00823474652            0.000298902755           
       1.984247             0.00834543767            0.000303528765           
       1.986887             0.00888746949            0.000316160178           
       1.989527             0.00800987159            0.000293891801           
       1.992168             0.00795013397            0.000299858067           
       1.994808             0.00795409816             0.00029644414           
       1.997449             0.00809816756            0.000298678131           
       2.000089             0.00823451293             0.00029940853           
       2.002729              0.0083225706            0.000307902531           
       2.005370             0.00788139566            0.000293934729           
       2.008010             0.00777440265            0.000295808667           
       2.010650             0.00818898411            0.000302724958           
       2.013291             0.00787124332            0.000298483164           
       2.015931             0.00747802016            0.000288849761           
       2.018572             0.00860349782            0.000313939651           
       2.021212             0.00826302932            0.000304903935           
       2.023852             0.00791742333            0.000300027308           
       2.026493             0.00787162207            0.000297847228           
       2.029133             0.00837109086            0.000304808292           
       2.031774             0.00815327339            0.000303733787           
       2.034414             0.00793885821             0.00029792474           
       2.037054              0.0078757438            0.000300479757           
       2.039695             0.00816193564            0.000299865269           
       2.042335             0.00806422809            0.000303138486           
       2.044975             0.00822230028            0.000303648723           
       2.047616             0.00762808776            0.000293724136           
       2.050256             0.00794580396             0.00029625238           
       2.052897             0.00793802638            0.000304877183           
       2.055537             0.00798046696             0.00029735678           
       2.058177             0.00747701161            0.000290366906           
       2.060818             0.00740414772            0.000289816087           
       2.063458             0.00724627329            0.000287104542           
       2.066098             0.00795431288            0.000299469402           
       2.068739              0.0075683424             0.00029515919           
       2.071379             0.00758278577            0.000291077723           
       2.074020             0.00715270039            0.000286573748           
       2.076660             0.00765320783            0.000294421324           
       2.079300             0.00779210522            0.000297037984           
       2.081941             0.00795439617            0.000301939881           
       2.084581              0.0083961161            0.000310439995           
       2.087222             0.00745596214            0.000292742687           
       2.089862             0.00754004213            0.000290719408           
       2.092502             0.00727792674            0.000290811285           
       2.095143              0.0080440736            0.000301365667           
       2.097783             0.00784840003            0.000302207418           
       2.100423             0.00748360629            0.000289442115           
       2.103064             0.00750350351            0.000294830715           
       2.105704             0.00783990161            0.000300214284           
       2.108345             0.00810140408            0.000306581166           
       2.110985             0.00771326094            0.000294944988           
       2.113625             0.00742271943            0.000293895411           
       2.116266             0.00721103327            0.000287530325           
       2.118906             0.00753318124             0.00029366908           
       2.121546             0.00802662174            0.000302893844           
       2.124187             0.00760970811            0.000299001861           
       2.126827             0.00760271267            0.000294177357           
       2.129468             0.00793017547            0.000303581303           
       2.132108             0.00685245887            0.000281615947           
       2.134748             0.00777822861            0.000298905959           
       2.137389             0.00790714882            0.000303897076           
       2.140029             0.00735005816            0.000292284651           
       2.142670             0.00721010981            0.000289961681           
       2.145310             0.00772810526            0.000301343785           
       2.147950             0.00727197102             0.00029344551           
       2.150591             0.00720418041            0.000289395945           
       2.153231             0.00747610211            0.000299165491           
       2.155871             0.00759790909            0.000297237102           
       2.158512             0.00814316262            0.000313262578           
       2.161152             0.00741600139            0.000291481145           
       2.163793             0.00748280463            0.000297555146           
       2.166433             0.00745968825            0.000291943262           
       2.169073             0.00755803325            0.000300722362           
       2.171714             0.00755803346            0.000294600082           
       2.174354             0.00724580051            0.000292858546           
       2.176995              0.0076034035            0.000297509726           
       2.179635             0.00739040214            0.000298863913           
       2.182275             0.00708783831            0.000286872236           
       2.184916             0.00745951187             0.00030051761           
       2.187556             0.00733591416            0.000293219735           
       2.190196             0.00718598336            0.000294769324           
       2.192837             0.00745006519            0.000296850113           
       2.195477             0.00748777346            0.000300471122           
       2.198118             0.00714359819            0.000288066076           
       2.200758             0.00706466298            0.000290918798           
       2.203398             0.00758383905            0.000296420424           
       2.206039             0.00767374569            0.000302729804           
       2.208679             0.00717182062            0.000289797047           
       2.211319             0.00746676207            0.000297087801           
       2.213960             0.00710892906            0.000286799524           
       2.216600             0.00714430361            0.000294286447           
       2.219241             0.00746945467            0.000296533988           
       2.221881             0.00722561125            0.000293173831           
       2.224521             0.00785921457            0.000304697238           
       2.227162             0.00703322443            0.000292768657           
       2.229802             0.00665003122              0.0002800604           
       2.232443             0.00786775409            0.000305822391           
       2.235083              0.0069421049            0.000285546916           
       2.237723             0.00684584005            0.000285733247           
       2.240364             0.00748285486             0.00029721206           
       2.243004              0.0074520547            0.000297495808           
       2.245644             0.00715781302            0.000290890111           
       2.248285              0.0075732899            0.000301155791           
       2.250925             0.00789278122            0.000306004881           
       2.253566             0.00679005867            0.000284518642           
       2.256206             0.00783726536            0.000304756779           
       2.258846             0.00727998382            0.000293724504           
       2.261487             0.00674386375            0.000283191352           
       2.264127             0.00737404095            0.000298929127           
       2.266767             0.00692385345            0.000284978805           
       2.269408             0.00675271214            0.000284777315           
       2.272048              0.0079366358            0.000306834894           
       2.274689             0.00748772422            0.000299202941           
       2.277329             0.00695467736            0.000287973125           
       2.279969             0.00721189304            0.000294138882           
       2.282610             0.00711316607            0.000289269888           
       2.285250             0.00743753623            0.000300443996           
       2.287891               0.007575265            0.000300153305           
       2.290531             0.00694210358            0.000288752759           
       2.293171             0.00717008194            0.000293441305           
       2.295812             0.00702902973            0.000288998566           
       2.298452              0.0072225596            0.000294826307           
       2.301092             0.00697985684            0.000291671453           
       2.303733             0.00734166488             0.00029321875           
       2.306373             0.00740891844            0.000301763358           
       2.309014             0.00723400279            0.000292433969           
       2.311654             0.00716722405            0.000293843573           
       2.314294             0.00726625005            0.000295220639           
       2.316935             0.00664296132            0.000283390628           
       2.319575             0.00704653363            0.000290779019           
       2.322215             0.00738057824            0.000301832096           
       2.324856             0.00722543311             0.00029114325           
       2.327496             0.00723128016            0.000298399196           
       2.330137             0.00654744351            0.000278703026           
       2.332777             0.00730709163            0.000297647508           
       2.335417              0.0077041762            0.000304710444           
       2.338058             0.00711289061            0.000293955785           
       2.340698             0.00744150551            0.000297709139           
       2.343339             0.00707197287            0.000295761409           
       2.345979             0.00695270533            0.000287404966           
       2.348619             0.00749691531            0.000304077099           
       2.351260             0.00730297162            0.000293738448           
       2.353900              0.0069353726            0.000292313763           
       2.356540             0.00744473711            0.000298692718           
       2.359181             0.00724820039             0.00029866478           
       2.361821              0.0075152207            0.000300410917           
       2.364462             0.00717321717            0.000298400908           
       2.367102             0.00637075806            0.000273083066           
       2.369742             0.00739332635            0.000304726702           
       2.372383               0.006917375            0.000286162659           
       2.375023             0.00682072608            0.000291559972           
       2.377663             0.00712998083            0.000291761713           
       2.380304              0.0068579277            0.000290110589           
       2.382944             0.00730198394            0.000296427718           
       2.385585             0.00724610689            0.000298082949           
       2.388225             0.00674187535            0.000286225574           
       2.390865             0.00638114245            0.000279175935           
       2.393506             0.00685110818             0.00028794074           
       2.396146             0.00725169144            0.000297220973           
       2.398787             0.00703421698            0.000292986348           
       2.401427             0.00665069685            0.000283157466           
       2.404067             0.00755074641            0.000306314783           
       2.406708             0.00732369091            0.000297882347           
       2.409348             0.00697976566            0.000292991509           
       2.411988             0.00738841087            0.000300483675           
       2.414629               0.007268007             0.00029900035           
       2.417269             0.00724400628            0.000295795393           
       2.419910             0.00733492351            0.000301399368           
       2.422550             0.00721345402             0.00029435616           
       2.425190             0.00699085561            0.000298902493           
       2.427831             0.00661889709            0.000279903843           
       2.430471             0.00705989239            0.000297528193           
       2.433112             0.00690430572            0.000287288707           
       2.435752             0.00719986964            0.000300800576           
       2.438392             0.00732173752            0.000298237126           
       2.441033              0.0063549082            0.000279122486           
       2.443673             0.00687743146            0.000291146453           
       2.446313             0.00677559859            0.000287443252           
       2.448954              0.0070565796            0.000295916767           
       2.451594             0.00702995989            0.000293585894           
       2.454235             0.00727070585            0.000297641582           
       2.456875             0.00762225528            0.000306296022           
       2.459515             0.00778545022            0.000310034908           
       2.462156             0.00753129313            0.000303360462           
       2.464796             0.00791680519            0.000316514095           
       2.467436             0.00772442994              0.0003060892           
       2.470077             0.00736420395            0.000302988058           
       2.472717             0.00743650009            0.000300661952           
       2.475358              0.0079309926            0.000314015169           
       2.477998             0.00738119162            0.000301319252           
       2.480638              0.0075189937            0.000304857903           
       2.483279             0.00743989505            0.000304552892           
       2.485919             0.00739112921            0.000301427671           
       2.488560             0.00702985579             0.00029518795           
       2.491200             0.00750905677            0.000304664793           
       2.493840             0.00704785931            0.000293553445           
       2.496481             0.00715625447            0.000299670397           
       2.499121             0.00687174051            0.000289743072           
       2.501761             0.00705778298            0.000298625221           
       2.504402             0.00733770857            0.000298654413           
       2.507042             0.00732367376            0.000303328526           
       2.509683             0.00733245322            0.000300746253           
       2.512323             0.00726086611            0.000300446391           
       2.514963              0.0141134482            0.000419712796           
       2.517604              0.0183066341            0.000476141821           
       2.520244             0.00938529721            0.000340997377           
       2.522884             0.00747530274            0.000303661941           
       2.525525             0.00783399668            0.000313415459           
       2.528165              0.0163829986            0.000451167095           
       2.530806              0.0269601546            0.000576592004           
       2.533446              0.0120753107            0.000389313086           
       2.536086             0.00881682627            0.000329872176           
       2.538727             0.00947128193            0.000344087777           
       2.541367             0.00907336355            0.000335819103           
       2.544008             0.00736406644            0.000302794397           
       2.546648             0.00653933928             0.00028565958           
       2.549288             0.00757276064            0.000307447868           
       2.551929             0.00737199007            0.000304346929           
       2.554569             0.00721579283            0.000298353856           
       2.557209             0.00680050792            0.000292913765           
       2.559850             0.00663844285            0.000286074576           
       2.562490             0.00656487121            0.000286556313           
       2.565131             0.00711876794            0.000298919507           
       2.567771               0.007277373            0.000300629272           
       2.570411             0.00694839605            0.000297330343           
       2.573052             0.00718285009            0.000298776237           
       2.575692              0.0067943925            0.000291355694           
       2.578332             0.00724431502            0.000299959091           
       2.580973             0.00698370623            0.000296902202           
       2.583613              0.0065176571             0.00028421068           
       2.586254             0.00691266304            0.000295285829           
       2.588894             0.00688904884            0.000293208579           
       2.591534             0.00713803401            0.000299009127           
       2.594175             0.00660521102            0.000289302493           
       2.596815             0.00678810549            0.000290553669           
       2.599456             0.00695896199            0.000296594525           
       2.602096             0.00664597704            0.000288763322           
       2.604736             0.00677176233            0.000292247619           
       2.607377             0.00642870336            0.000283659832           
       2.610017              0.0065659627            0.000286571894           
       2.612657             0.00692557824            0.000296394032           
       2.615298             0.00645170717            0.000283275942           
       2.617938             0.00685508594            0.000294551718           
       2.620579             0.00776167637              0.0003108642           
       2.623219             0.00708048606            0.000301659089           
       2.625859             0.00660110438            0.000286359298           
       2.628500             0.00680843571            0.000295469536           
       2.631140             0.00700385614            0.000294395207           
       2.633780             0.00692459523            0.000296484444           
       2.636421             0.00699039807            0.000295179123           
       2.639061             0.00725004936            0.000304205433           
       2.641702              0.0075278958            0.000306666038           
       2.644342             0.00733574504            0.000305210184           
       2.646982             0.00736864505            0.000305634139           
       2.649623             0.00693636192            0.000298311283           
       2.652263             0.00761612064            0.000310099514           
       2.654904             0.00707872581            0.000300582337           
       2.657544             0.00713013009            0.000299549299           
       2.660184             0.00648564011            0.000286056066           
       2.662825             0.00754069741            0.000309186283           
       2.665465             0.00687338263            0.000295734647           
       2.668105             0.00683898443            0.000295110512           
       2.670746             0.00658447832            0.000287117189           
       2.673386             0.00700189464            0.000299666442           
       2.676027             0.00766175454            0.000310804078           
       2.678667             0.00706474631            0.000300001065           
       2.681307             0.00744988368            0.000305647392           
       2.683948             0.00760288501            0.000311836525           
       2.686588             0.00730662194            0.000302895166           
       2.689229             0.00789544793            0.000317689415           
       2.691869             0.00705135942            0.000297230984           
       2.694509             0.00726430836            0.000305823014           
       2.697150             0.00725300383            0.000300707714           
       2.699790             0.00800919921             0.00032255889           
       2.702430             0.00729710815            0.000301982873           
       2.705071             0.00691551726            0.000298004399           
       2.707711             0.00699863847            0.000296817184           
       2.710352             0.00684177573            0.000295142401           
       2.712992             0.00663676621            0.000291631996           
       2.715632             0.00693866828            0.000296495107           
       2.718273             0.00734887861            0.000306146563           
       2.720913             0.00666385513            0.000292015633           
       2.723553             0.00718046299            0.000302070148           
       2.726194               0.006991942            0.000299515971           
       2.728834             0.00698143458            0.000296630344           
       2.731475              0.0059223481            0.000275593727           
       2.734115             0.00684039651             0.00029442007           
       2.736755             0.00710482937            0.000302040399           
       2.739396             0.00735028553            0.000305588973           
       2.742036             0.00640755155            0.000287267076           
       2.744677             0.00733912135             0.00030789053           
       2.747317             0.00776533502            0.000315166003           
       2.749957             0.00706594418            0.000302819336           
       2.752598             0.00694083097            0.000301030223           
       2.755238             0.00754199943            0.000313654727           
       2.757878             0.00756523823            0.000313243163           
       2.760519             0.00660590834            0.000289618747           
       2.763159             0.00781252335            0.000320081685           
       2.765800             0.00666676207            0.000290671712           
       2.768440             0.00699249553            0.000301609624           
       2.771080             0.00715706684            0.000302566828           
       2.773721             0.00628115601            0.000286925423           
       2.776361             0.00639940284            0.000286503062           
       2.779001             0.00635843956            0.000288586571           
       2.781642             0.00641496705            0.000287888623           
       2.784282             0.00614836514            0.000281941233           
       2.786923             0.00683470131            0.000295000639           
       2.789563             0.00678013085            0.000294410821           
       2.792203             0.00685880105             0.00029799883           
       2.794844             0.00656003363            0.000290110108           
       2.797484             0.00678347284            0.000295425081           
       2.800125             0.00645964117            0.000287914757           
       2.802765             0.00725209493            0.000310719663           
       2.805405             0.00703940272            0.000301710322           
       2.808046             0.00755076003            0.000317268039           
       2.810686             0.00704016108            0.000303088764           
       2.813326             0.00682660652            0.000302149012           
       2.815967             0.00634618975            0.000289487405           
       2.818607             0.00639706069            0.000293550743           
       2.821248             0.00671333706            0.000296970253           
       2.823888               0.006580243            0.000298747333           
       2.826528             0.00664110319            0.000298335087           
       2.829169             0.00615880998            0.000286029627           
       2.831809             0.00650082134            0.000294121706           
       2.834449             0.00616480468            0.000281420118           
       2.837090             0.00684796866            0.000298388517           
       2.839730             0.00652940501            0.000289296308           
       2.842371             0.00702983173            0.000302269259           
       2.845011             0.00691939988            0.000299216851           
       2.847651             0.00681292499            0.000297451029           
       2.850292             0.00703441911            0.000300530224           
       2.852932             0.00667391811            0.000293253067           
       2.855573             0.00694265586             0.00030172585           
       2.858213             0.00681769392            0.000295643276           
       2.860853             0.00685937313            0.000298765207           
       2.863494             0.00667616904            0.000295458126           
       2.866134             0.00747847846            0.000317094183           
       2.868774             0.00690012415            0.000299923644           
       2.871415             0.00705158277            0.000306198339           
       2.874055             0.00653073824            0.000296132866           
       2.876696             0.00705373345            0.000304990722           
       2.879336             0.00674285712            0.000300173552           
       2.881976             0.00709328505            0.000307621416           
       2.884617             0.00675125835            0.000298446111           
       2.887257             0.00685996436            0.000298741639           
       2.889897             0.00678588106            0.000300529812           
       2.892538             0.00715146606            0.000306379937           
       2.895178             0.00694638205            0.000298875669           
       2.897819             0.00655728523            0.000293370973           
       2.900459             0.00660443131            0.000291986038           
       2.903099             0.00695519756            0.000301204066           
       2.905740             0.00696385613             0.00029802724           
       2.908380              0.0068334474            0.000299159113           
       2.911021              0.0067148876             0.00029711631           
       2.913661             0.00623160305            0.000283074787           
       2.916301             0.00613832572            0.000284944954           
       2.918942             0.00728019582            0.000305636845           
       2.921582             0.00658672843            0.000293766189           
       2.924222             0.00643404404            0.000288657357           
       2.926863             0.00658758978             0.00029285722           
       2.929503             0.00740379188            0.000313916596           
       2.932144             0.00733724778            0.000307377343           
       2.934784             0.00681811134            0.000297563082           
       2.937424             0.00666385289            0.000294721782           
       2.940065             0.00644308229            0.000290034521           
       2.942705             0.00688415949            0.000300708662           
       2.945346               0.007461848            0.000311222458           
       2.947986             0.00863769745            0.000336018202           
       2.950626              0.0098310944            0.000359582076           
       2.953267             0.00975850216            0.000354446197           
       2.955907             0.00769278259            0.000318863359           
       2.958547             0.00770575415            0.000315859765           
       2.961188             0.00696951905            0.000303014208           
       2.963828             0.00705712203            0.000303184664           
       2.966469              0.0073413836            0.000309307555           
       2.969109             0.00771083181            0.000318616043           
       2.971749             0.00870239204            0.000337487014           
       2.974390             0.00903521571            0.000344823682           
       2.977030             0.00757169709            0.000315062797           
       2.979670             0.00727661699            0.000306871275           
       2.982311             0.00708495023            0.000304988091           
       2.984951             0.00719039742            0.000308043752           
       2.987592             0.00749377287             0.00031341364           
       2.990232             0.00737758949            0.000311768648           
       2.992872             0.00809705095            0.000324061527           
       2.995513              0.0111453057            0.000383184669           
       2.998153               0.017734879             0.00048648464           
       3.000794              0.0266616083             0.00058780343           
       3.003434               0.023491127            0.000557598611           
       3.006074              0.0169489192             0.00047515813           
       3.008715              0.0155480809            0.000458564098           
       3.011355              0.0174093043            0.000490281559           
       3.013995              0.0163153841            0.000472307126           
       3.016636               0.027526114            0.000614627269           
       3.019276               0.203100187              0.0017094287           
       3.021917               0.376500682             0.00228796789           
       3.024557               0.139022853             0.00140140463           
       3.027197              0.0792649872              0.0010759443           
       3.029838                0.17668463             0.00159869912           
       3.032478               0.108553758             0.00126059961           
       3.035118              0.0869048371              0.0011337217           
       3.037759              0.0744658749             0.00105130167           
       3.040399              0.0680178125             0.00101625176           
       3.043040              0.0657782065             0.00100908735           
       3.045680              0.0544508418            0.000903960419           
       3.048320              0.0719975473             0.00105613555           
       3.050961              0.0701424774             0.00105289371           
       3.053601              0.0995259539             0.00124864016           
       3.056242              0.0702178917              0.0010555377           
       3.058882               0.116353821             0.00137896446           
       3.061522               0.269293676             0.00208332182           
       3.064163              0.0602762812            0.000987429378           
       3.066803              0.0203550279            0.000584906555           
       3.069443              0.0254118114            0.000649181737           
       3.072084              0.0737878412              0.0011160657           
       3.074724              0.0631408647             0.00103850733           
       3.077365              0.0128734582            0.000468587684           
       3.080005             0.00844296756            0.000383689861           
       3.082645             0.00897723105            0.000397657919           
       3.085286              0.0083918913            0.000384545347           
       3.087926             0.00719285467            0.000358280131           
       3.090566              0.0069093039            0.000354764258           
       3.093207             0.00749663614            0.000365542783           
       3.095847             0.00761077516            0.000376035339           
       3.098488              0.0081683451            0.000388859816           
       3.101128              0.0073893957            0.000371868881           
       3.103768             0.00762448605            0.000379866075           
       3.106409             0.00965974448             0.00043043465           
       3.109049             0.00970878708            0.000434880555           
       3.111690              0.0141589915            0.000523106712           
       3.114330               0.020402685            0.000633526726           
       3.116970              0.0165216129            0.000578026198           
       3.119611              0.0120370765            0.000490169961           
       3.122251             0.00893734094            0.000425826385           
       3.124891             0.00837742849            0.000414273428           
       3.127532             0.00884256048            0.000433285745           
       3.130172               0.008826807            0.000423994166           
       3.132813             0.00788284763            0.000408836657           
       3.135453             0.00671655211            0.000385342859           
       3.138093             0.00699569259            0.000383937604           
       3.140734             0.00628160256            0.000370585898           
       3.143374             0.00622924579            0.000374679639           
       3.146014              0.0064906106            0.000379682948           
       3.148655             0.00729234041             0.00040561842           
       3.151295             0.00817647344            0.000432903629           
       3.153936             0.00635868538            0.000387397064           
       3.156576             0.00672743209            0.000393897315           
       3.159216              0.0060893357            0.000377816464           
       3.161857             0.00618839953            0.000385549635           
       3.164497             0.00663316008            0.000407580498           
       3.167138             0.00662220496            0.000397473352           
       3.169778             0.00634689672            0.000396149827           
       3.172418             0.00639847948            0.000400080613           
       3.175059             0.00600219222            0.000392564241           
       3.177699             0.00666897636            0.000412160724           
       3.180339             0.00567826976            0.000383715836           
       3.182980             0.00648675011             0.00041566071           
       3.185620             0.00623125834            0.000411844583           
       3.188261             0.00592764438             0.00039642323           
       3.190901             0.00636938142            0.000417260856           
       3.193541             0.00584865003              0.0004011581           
       3.196182             0.00641904503             0.00042900898           
       3.198822             0.00653990844             0.00042777964           
       3.201463             0.00622363395            0.000422704099           
       3.204103             0.00581195981            0.000413924118           
       3.206743             0.00640567303             0.00043822605           
       3.209384             0.00572134234            0.000412310559           
       3.212024             0.00532053273             0.00039901858           
       3.214664             0.00626771185            0.000441336621           
       3.217305             0.00599013589            0.000441519292           
       3.219945             0.00630007445            0.000449011364           
       3.222586             0.00527465762            0.000413173532           
       3.225226             0.00605634466            0.000452705746           
       3.227866             0.00577819692            0.000445608791           
       3.230507             0.00516688569            0.000426406368           
       3.233147             0.00567331081            0.000440205908           
       3.235787             0.00608526056            0.000456031879           
       3.238428             0.00548729302            0.000440694771           
       3.241068             0.00618972124            0.000477543291           
       3.243709             0.00615056858            0.000473388386           
       3.246349             0.00606684781            0.000467524954           
       3.248989             0.00536435939            0.000449673291           
       3.251630             0.00616054583            0.000484021788           
       3.254270             0.00534471266             0.00046469295           
       3.256911             0.00551836961            0.000460350913           
       3.259551             0.00545791263            0.000467938893           
       3.262191             0.00620052547             0.00050334676           
       3.264832             0.00508351581            0.000460035265           
       3.267472             0.00622169661            0.000516153796           
       3.270112             0.00701718536             0.00054971901           
       3.272753             0.00609007026            0.000518411954           
       3.275393             0.00628516278            0.000529360851           
       3.278034              0.0050673068            0.000484998366           
       3.280674             0.00514890698             0.00049030668           
       3.283314             0.00539512346            0.000504666024           
       3.285955             0.00564450317             0.00052589369           
       3.288595             0.00510329147            0.000505624932           
       3.291235              0.0057738447            0.000540977938           
       3.293876             0.00559580094            0.000535725189           
       3.296516              0.0055024732            0.000542074311           
       3.299157             0.00529302257             0.00053969293           
       3.301797             0.00634857408             0.00059131306           
       3.304437              0.0052706685            0.000548880172           
       3.307078             0.00479083369            0.000528383031           
       3.309718             0.00600786611            0.000597609042           
       3.312359             0.00575642629            0.000596789586           
       3.314999             0.00644043153            0.000637873379           
       3.317639             0.00609558646             0.00062724357           
       3.320280             0.00639127144            0.000651655811           
       3.322920             0.00536738209            0.000606115802           
       3.325560             0.00597993987            0.000652122102           
       3.328201             0.00577325478            0.000643461949           
       3.330841             0.00553051571            0.000645106353           
       3.333482             0.00511750855            0.000628430641           
       3.336122             0.00446555376            0.000599796343           
       3.338762             0.00569409525            0.000683490798           
       3.341403             0.00554985375            0.000681038134           
       3.344043             0.00525180955            0.000687784645           
       3.346683             0.00481397646            0.000665169946           
       3.349324             0.00440752499            0.000646322717           
       3.351964             0.00549491787            0.000744860246           
       3.354605             0.00451596228            0.000682903904           
       3.357245             0.00515204708            0.000755053096           
       3.359885             0.00548788091            0.000779553619           
       3.362526             0.00544563083            0.000816252757           
       3.365166             0.00683971655            0.000903492077           
       3.367807             0.00430716196            0.000767491037           
       3.370447             0.00487318028            0.000816680708           
       3.373087             0.00635006079            0.000983901069           
       3.375728              0.0059384371            0.000944285123           
       3.378368              0.0048525994            0.000922378434           
       3.381008              0.0049378413            0.000922331561           
       3.383649             0.00598905634             0.00109930015           
       3.386289             0.00416311578            0.000916907245           
       3.388930             0.00549239659              0.0011566371           
       3.391570             0.00675893329              0.0012836225           
       3.394210             0.00662352027             0.00136152616           
       3.396851             0.00353555527             0.00107754012           
       3.399491             0.00432789219             0.00121381996           
       3.402131             0.00232281292             0.00105261845           
       3.404772              0.0060065718             0.00169341455           
       3.407412             0.00491456028             0.00190072805           
       3.410053             0.00300186065             0.00154681974           
       3.412693             0.00452877538             0.00268801607           
       3.415333              0.0109701548             0.00512589932           
