################################################################################
# EDF_DataBlockID                     0.Image.Psd
# EDF_BinarySize                      2105344
# EDF_HeaderSize                      2560
# ByteOrder                           LowByteFirst
# DataType                            FloatValue
# Dim_1                               512
# Dim_2                               1028
# Image                               0
# HeaderID                            EH:000000:000000:000000
# Size                                2105344
# Center_1                            304.9000
# Center_2                            588.7000
# Comment                             Xenocs_Cell_Window - front_window_open_only
# DDummy                              0.6
# Date                                2025-10-17T20:06:56
# Delta                               21.910000
# Dummy                               -1.5
# ExposureTime                        360
# Gamma                               15.360000
# Intensity1                          9.85667e-10
# PSize_1                             7.5e-05
# PSize_2                             7.5e-05
# Pressure                            0.0383415
# SampleDistance                      0.115750
# SampleEnvKind                       large
# SampleEnvPN                         ElectroChemical cell
# SampleEnvSN                         1141
# Thickness                           0
# Wavelength                          1.541891e-10
# Wavelength                          1.54189e-10
# aux                                 0
# aux_dial                            0.002375
# beamx                               588.429
# beamx_dial                          588.429
# beamz                               657.855
# beamz_dial                          657.855
# det0x                               -0.000396875
# det0x_dial                          6.36905
# det0xvd                             -0.0005
# det0xvd_dial                        -0.0005
# det0y                               450.002
# det0y_dial                          481.635
# det0z                               0
# det0z_dial                          1.2295
# det0zvd                             0
# det0zvd_dial                        0
# mag                                 1.818
# mag_dial                            1.818
# om                                  0.2499
# om_dial                             -0.610199
# phi                                 -0.0120535
# phi_dial                            0
# ry                                  0.599993
# ry_dial                             0.599993
# s1bot                               0.8
# s1bot_dial                          -1.66094
# s1hl                                0.8
# s1hl_dial                           -0.608437
# s1hr                                0.8
# s1hr_dial                           0.970938
# s1top                               0.8
# s1top_dial                          -0.461562
# s2bot                               0.45
# s2bot_dial                          1.36109
# s2hl                                0.45
# s2hl_dial                           -0.83375
# s2hr                                0.45
# s2hr_dial                           -0.118594
# s2top                               0.45
# s2top_dial                          1.44734
# w2theta                             32
# w2theta_dial                        32
# waxsch                              19.2605
# waxsch_dial                         -32.7238
# waxsh                               137.085
# waxsh_dial                          -43.5335
# waxsth                              26.0607
# waxsth_dial                         -19.4068
# waxsz                               67.0407
# waxsz_dial                          -23.7962
# wind                                65.9854
# wind_dial                           66.0041
# wpsi                                124
# wpsi_dial                           124
# wstod                               115
# wstod_dial                          115
# x                                   0
# x_dial                              1.00969
# z                                   0
# z_dial                              13.3172
# CountCutoff                         6807993
# DetectorModel                       Dectris EIGER2 Si 500K, S/N E-01-0554
# ThresholdSetting                    4023.88989258
# Saturation                          0
# FlatField                           Corrected
# BackgroundReductionExtra            0.02
# BackgroundCorrectionConstant        0.0026712
# Detector                            0
# Monitor                             0
# Pil_Roi0                            0
# SumForIntensity1                    3.5484e+08
# TransmittedFlux                     985667
# det                                 0
# mon                                 0
# pilai0                              3.5484e+08
# pilai1                              765539
# pilct0                              6.10396e+08
# pilct1                              765539
# pilroi0                             0
# pilroi1                             0
# sec                                 1
# title                               20251017__1_00018.edf
# usaxs0                              0
# Operation                           Azimuthal average I(q)
# Error_model                         ErrorModel.poisson
# Geometrical_correction              True
# Transmission_correction             True
# Thickness_correction                False
# Binning mode                        Uniform
# Binning factor                      1.0
# Psi                                 0.0
# Omega                               0.2499
# MaskInvalidPixels                   True
# DetectorEdge                        3
# MaskFiles                           ['20251017__1_00233_mask.edf']
################################################################################
    q(A⁻¹)                Intensity(a.u.)            Sigma_I(a.u.)            
       0.690460              0.0210318635              0.0127373378           
       0.693100             0.00138180983             0.00145965989           
       0.695741             0.00741183206             0.00285598841           
       0.698381             0.00554238222             0.00230987277           
       0.701021             0.00875843481             0.00236983407           
       0.703662             0.00797805707             0.00209360909           
       0.706302             0.00805052426             0.00203111709           
       0.708942             0.00555010821             0.00149801972           
       0.711583             0.00555205624             0.00149800819           
       0.714223             0.00784889379             0.00155208574           
       0.716864             0.00534745497             0.00130730451           
       0.719504             0.00782330056             0.00146344048           
       0.722144             0.00651998337             0.00129029494           
       0.724785             0.00538125611             0.00115300313           
       0.727425             0.00730385393             0.00124595558           
       0.730065               0.006671969              0.0012253075           
       0.732706             0.00666589344             0.00110134938           
       0.735346             0.00736239926             0.00125025312           
       0.737987             0.00551186703            0.000936322752           
       0.740627             0.00761040866             0.00120528013           
       0.743267             0.00770919783             0.00104345598           
       0.745908             0.00499522377            0.000900181664           
       0.748548             0.00573653597            0.000899720788           
       0.751189             0.00696455159            0.000982015852           
       0.753829             0.00656678541             0.00096216252           
       0.756469             0.00456710021            0.000754696481           
       0.759110             0.00579783163            0.000879525523           
       0.761750             0.00644422787             0.00084863174           
       0.764390             0.00840656258             0.00104045385           
       0.767031             0.00835967518            0.000938860676           
       0.769671              0.0067388809            0.000893973192           
       0.772312             0.00724103534            0.000844456264           
       0.774952              0.0057048705            0.000803555793           
       0.777592             0.00595047429            0.000750626707           
       0.780233             0.00627924071            0.000812884114           
       0.782873             0.00692433333            0.000780589721           
       0.785513             0.00675448481             0.00082011425           
       0.788154             0.00507249793            0.000652791083           
       0.790794             0.00740712606            0.000816425269           
       0.793435             0.00699640838            0.000762117753           
       0.796075             0.00608548628            0.000714530274           
       0.798715             0.00559070046            0.000680957011           
       0.801356             0.00682971135            0.000732498815           
       0.803996             0.00555881746            0.000671401552           
       0.806637             0.00567458013            0.000641225994           
       0.809277             0.00654292319            0.000720326768           
       0.811917              0.0072907229            0.000719537576           
       0.814558             0.00668516387            0.000705844385           
       0.817198             0.00715785489            0.000696410738           
       0.819838             0.00655000577            0.000694902284           
       0.822479             0.00659415328              0.0006425445           
       0.825119             0.00623077543            0.000670969653           
       0.827760             0.00598847034              0.0006095135           
       0.830400             0.00706146188            0.000697363843           
       0.833040             0.00632051156            0.000615747238           
       0.835681             0.00654600763            0.000656220393           
       0.838321             0.00660005284            0.000616740409           
       0.840961             0.00657591338            0.000643464013           
       0.843602             0.00589125982            0.000573697455           
       0.846242             0.00654500079            0.000626040778           
       0.848883             0.00580094533            0.000573336687           
       0.851523             0.00623582778            0.000598894045           
       0.854163             0.00693309818             0.00062415376           
       0.856804             0.00648271018            0.000588097411           
       0.859444             0.00613307437            0.000576131225           
       0.862085             0.00648168358            0.000583663315           
       0.864725             0.00710452715            0.000608819692           
       0.867365             0.00715989289            0.000606810361           
       0.870006             0.00704234079            0.000610204917           
       0.872646             0.00614444296            0.000545172551           
       0.875286             0.00662465332            0.000585363408           
       0.877927             0.00660595536            0.000559669867           
       0.880567             0.00624429667            0.000554764072           
       0.883208             0.00651187359            0.000550164315           
       0.885848             0.00759172204            0.000609436825           
       0.888488             0.00664491503            0.000542127891           
       0.891129              0.0059742353            0.000540349538           
       0.893769             0.00634825921            0.000526510376           
       0.896410             0.00558904515            0.000509242046           
       0.899050             0.00674355844             0.00053934329           
       0.901690             0.00629490387            0.000531970158           
       0.904331             0.00711762121            0.000545917069           
       0.906971             0.00826575732            0.000607478446           
       0.909611             0.00799052107            0.000573287235           
       0.912252             0.00588716484            0.000500609242           
       0.914892             0.00837190549            0.000581856722           
       0.917533             0.00634564703            0.000518003106           
       0.920173             0.00728648783            0.000532457238           
       0.922813             0.00637626463            0.000520514088           
       0.925454             0.00670370544             0.00050652424           
       0.928094              0.0071874432            0.000535739132           
       0.930734             0.00693561944            0.000513710406           
       0.933375             0.00683188734            0.000520723044           
       0.936015              0.0061749131            0.000473675167           
       0.938656             0.00737384288            0.000539333223           
       0.941296             0.00708916704            0.000509780875           
       0.943936             0.00758749742            0.000536892267           
       0.946577             0.00725233483            0.000505511403           
       0.949217             0.00697060077            0.000513097803           
       0.951858             0.00656243959            0.000470657802           
       0.954498              0.0078388324            0.000541167827           
       0.957138             0.00817832743            0.000531286713           
       0.959779             0.00717439021            0.000508494272           
       0.962419             0.00768165072            0.000506535451           
       0.965059              0.0071748048            0.000503444445           
       0.967700             0.00613980284            0.000450658385           
       0.970340              0.0068228892            0.000488415713           
       0.972981             0.00724395314            0.000485912973           
       0.975621             0.00721130004            0.000494967777           
       0.978261              0.0076466194            0.000486306791           
       0.980902             0.00697740099            0.000486658389           
       0.983542             0.00756156221            0.000491869568           
       0.986182             0.00739359306            0.000492781012           
       0.988823             0.00845989049            0.000510111072           
       0.991463             0.00709099709            0.000478175373           
       0.994104             0.00710822663            0.000462618352           
       0.996744             0.00680978683            0.000467486522           
       0.999384             0.00743964762            0.000472043967           
       1.002025             0.00801199288            0.000503504414           
       1.004665             0.00661559406            0.000438786475           
       1.007306             0.00730272954            0.000476458721           
       1.009946             0.00741959853            0.000461781362           
       1.012586              0.0070016321            0.000461489928           
       1.015227             0.00672467091            0.000438580357           
       1.017867             0.00660958545            0.000447271488           
       1.020507             0.00757497625            0.000460797135           
       1.023148              0.0065199318            0.000432668068           
       1.025788             0.00695143467            0.000442181481           
       1.028429             0.00772670635            0.000476378607           
       1.031069             0.00781008141            0.000461436795           
       1.033709             0.00693428009            0.000443144935           
       1.036350             0.00777371744            0.000456898204           
       1.038990             0.00747134247             0.00045898233           
       1.041630             0.00740522093            0.000448155833           
       1.044271             0.00763793909             0.00045519439           
       1.046911             0.00798124391            0.000456666424           
       1.049552             0.00766447519             0.00046363961           
       1.052192             0.00782752078            0.000447475345           
       1.054832             0.00723591763            0.000438599857           
       1.057473             0.00771886433            0.000447265353           
       1.060113              0.0077852493            0.000454048639           
       1.062754             0.00689288509            0.000422509564           
       1.065394             0.00763264328            0.000439926321           
       1.068034             0.00755130312            0.000435881841           
       1.070675              0.0079243027            0.000454371083           
       1.073315             0.00708088691            0.000416381962           
       1.075955             0.00777114635            0.000443520741           
       1.078596             0.00773633381            0.000441651498           
       1.081236             0.00799587197            0.000442339048           
       1.083877             0.00871371232            0.000476193223           
       1.086517             0.00780251914            0.000440414763           
       1.089157             0.00776015231            0.000442437656           
       1.091798             0.00786750364            0.000436048744           
       1.094438              0.0086810565            0.000465319064           
       1.097078             0.00819434268            0.000440469079           
       1.099719             0.00856553095            0.000461876419           
       1.102359             0.00791793546            0.000420679188           
       1.105000             0.00759359698            0.000428198075           
       1.107640             0.00797439373            0.000424499277           
       1.110280             0.00800835743            0.000433920353           
       1.112921             0.00777379292            0.000419782717           
       1.115561             0.00846428809            0.000443588307           
       1.118202             0.00830418967            0.000426549245           
       1.120842             0.00808586883            0.000434166558           
       1.123482             0.00850001612            0.000432659326           
       1.126123             0.00770977064            0.000414628234           
       1.128763             0.00767494175            0.000411638749           
       1.131403             0.00852852406             0.00043325142           
       1.134044             0.00813805598             0.00042248271           
       1.136684             0.00887515402            0.000444516765           
       1.139325             0.00861051515            0.000425502995           
       1.141965             0.00807583785            0.000417469664           
       1.144605             0.00833477032            0.000426600603           
       1.147246             0.00765684945            0.000401139834           
       1.149886             0.00875300963            0.000431943716           
       1.152527             0.00787697944            0.000410169409           
       1.155167             0.00933997353            0.000440358835           
       1.157807             0.00809890346            0.000410342115           
       1.160448             0.00809913787            0.000415962562           
       1.163088             0.00839729775            0.000407836368           
       1.165728             0.00880645164            0.000434868914           
       1.168369             0.00897513673            0.000423341481           
       1.171009             0.00790896336            0.000400696824           
       1.173650             0.00865333792            0.000416106837           
       1.176290              0.0082648127            0.000411429797           
       1.178930             0.00937597364            0.000425896455           
       1.181571             0.00828390914            0.000413400986           
       1.184211             0.00885656047            0.000414541356           
       1.186851              0.0081128814            0.000400413734           
       1.189492             0.00925290571            0.000429997011           
       1.192132              0.0083627901            0.000402737305           
       1.194773             0.00897618002            0.000414728592           
       1.197413             0.00860511767            0.000409378422           
       1.200053             0.00844914878            0.000403099184           
       1.202694             0.00895155788             0.00041178416           
       1.205334             0.00881742118            0.000413154853           
       1.207975             0.00806107356            0.000387297437           
       1.210615             0.00881961033            0.000413676439           
       1.213255             0.00929304176            0.000413400443           
       1.215896              0.0090388521            0.000415435563           
       1.218536              0.0087877486            0.000397826258           
       1.221176             0.00854308379            0.000401611624           
       1.223817             0.00942859337            0.000413120868           
       1.226457             0.00896489946            0.000407950915           
       1.229098              0.0099117886            0.000422446887           
       1.231738               0.008944213            0.000406949054           
       1.234378             0.00925285008             0.00040586835           
       1.237019             0.00932399628            0.000410712008           
       1.239659             0.00967763345            0.000418201801           
       1.242299             0.00971442107            0.000416853857           
       1.244940             0.00934589045            0.000404456967           
       1.247580             0.00928073249            0.000404824221           
       1.250221             0.00886286633             0.00040206326           
       1.252861             0.00948979387            0.000400540361           
       1.255501             0.00966042907            0.000415535491           
       1.258142             0.00942984974            0.000402429976           
       1.260782              0.0093972705            0.000406272054           
       1.263423              0.0100779789            0.000412393945           
       1.266063             0.00864378968            0.000389043176           
       1.268703             0.00987745493            0.000405402085           
       1.271344             0.00887583195             0.00039266789           
       1.273984             0.00892065952            0.000387512928           
       1.276624              0.0103817123            0.000415493529           
       1.279265             0.00911875465            0.000390251612           
       1.281905             0.00946477081            0.000400037481           
       1.284546             0.00939133968            0.000394129449           
       1.287186             0.00953492686            0.000397512525           
       1.289826              0.0097993049             0.00040507558           
       1.292467             0.00993310331             0.00040055261           
       1.295107              0.0102901362             0.00041487382           
       1.297747              0.0101057021            0.000400355056           
       1.300388             0.00979225594            0.000404217404           
       1.303028              0.0104594671             0.00040713816           
       1.305669             0.00969189932             0.00039697816           
       1.308309              0.0103968523            0.000404979881           
       1.310949             0.00993549581            0.000400826896           
       1.313590             0.00961915436            0.000388290645           
       1.316230             0.00986607905            0.000400321185           
       1.318871             0.00945405976            0.000383419003           
       1.321511              0.0104364597             0.00040486666           
       1.324151             0.00996697758            0.000397218863           
       1.326792              0.0103106226            0.000400735867           
       1.329432                0.01063858            0.000409182567           
       1.332072             0.00988512332             0.00038766327           
       1.334713              0.0102633223            0.000399908408           
       1.337353               0.010077972            0.000390185159           
       1.339994             0.00974872223            0.000389224599           
       1.342634              0.0103047492            0.000391161754           
       1.345274              0.0126320461            0.000438748237           
       1.347915             0.00999133657             0.00039124013           
       1.350555              0.0110507822            0.000409852974           
       1.353195               0.010090009            0.000384139203           
       1.355836              0.0114170058            0.000416329168           
       1.358476              0.0106068853            0.000400157997           
       1.361117              0.0103922253            0.000386151904           
       1.363757              0.0102213746            0.000395656254           
       1.366397              0.0100021442            0.000379201973           
       1.369038              0.0107516393            0.000401439354           
       1.371678              0.0105405053            0.000389452264           
       1.374319              0.0104223748            0.000390335193           
       1.376959              0.0105726139            0.000387726172           
       1.379599              0.0101782918            0.000387842315           
       1.382240              0.0103921428            0.000384452019           
       1.384880              0.0108864359            0.000398320111           
       1.387520             0.00994124226            0.000376185533           
       1.390161              0.0105326335            0.000386160853           
       1.392801              0.0105412731            0.000388621736           
       1.395442              0.0102264885             0.00037880914           
       1.398082              0.0103231319            0.000381897295           
       1.400722              0.0105311642            0.000383983556           
       1.403363               0.010206859            0.000381532969           
       1.406003               0.010312958            0.000374093666           
       1.408644              0.0103086581            0.000381867651           
       1.411284              0.0110819633            0.000393760231           
       1.413924              0.0106514669            0.000381275115           
       1.416565              0.0106327978             0.00038049302           
       1.419205              0.0104559507            0.000381032276           
       1.421845              0.0105103936            0.000377220286           
       1.424486              0.0106314769             0.00038106181           
       1.427126              0.0112770902            0.000392213965           
       1.429767             0.00999327982            0.000363524791           
       1.432407              0.0108478404            0.000388290366           
       1.435047              0.0104152736            0.000369036555           
       1.437688             0.00978108497            0.000365544303           
       1.440328              0.0102989653             0.00036782785           
       1.442968              0.0105740645            0.000377867443           
       1.445609              0.0109237437            0.000377747451           
       1.448249              0.0100846851            0.000365296921           
       1.450890             0.00905855064            0.000343743935           
       1.453530               0.011076225             0.00038291871           
       1.456170              0.0102769579            0.000368013828           
       1.458811              0.0102232324            0.000364130443           
       1.461451              0.0106111933            0.000373702292           
       1.464092              0.0107947769            0.000373635637           
       1.466732              0.0109754826            0.000374439189           
       1.469372              0.0102674026            0.000361046174           
       1.472013              0.0102362099            0.000366946947           
       1.474653             0.00984762795             0.00035102771           
       1.477293              0.0102129161            0.000363496137           
       1.479934              0.0104660863            0.000364122566           
       1.482574             0.00994646015            0.000354092365           
       1.485215              0.0100762763            0.000357313306           
       1.487855              0.0098182178            0.000352635282           
       1.490495              0.0100296686            0.000355645208           
       1.493136             0.00975583796            0.000346156817           
       1.495776             0.00985410675             0.00035396127           
       1.498416              0.0103777185            0.000356186876           
       1.501057              0.0100324886            0.000353224516           
       1.503697              0.0107939389            0.000362861308           
       1.506338             0.00943667975            0.000341776694           
       1.508978             0.00961183757            0.000342897426           
       1.511618              0.0097901351            0.000345888258           
       1.514259              0.0100192412            0.000350544005           
       1.516899             0.00988961752            0.000348431229           
       1.519540             0.00983854615            0.000345601806           
       1.522180              0.0100470185            0.000344882677           
       1.524820             0.00984957199               0.000348374           
       1.527461             0.00905102121            0.000326565704           
       1.530101              0.0100219284            0.000347187978           
       1.532741              0.0101971067            0.000348549927           
       1.535382              0.0092793603            0.000333227549           
       1.538022              0.0104453325             0.00035041563           
       1.540663              0.0107745753            0.000359259002           
       1.543303              0.0105962254            0.000351839649           
       1.545943              0.0100786782            0.000345062777           
       1.548584              0.0103202408            0.000351032834           
       1.551224             0.00966738513            0.000331038168           
       1.553864              0.0103410862            0.000351322718           
       1.556505             0.00969875477            0.000335002828           
       1.559145              0.0102430871            0.000345071237           
       1.561786             0.00989302076            0.000337587105           
       1.564426              0.0100060282            0.000339203089           
       1.567066             0.00956327717            0.000329025296           
       1.569707             0.00976019011            0.000337207681           
       1.572347             0.00887146713            0.000317317879           
       1.574988             0.00930131985            0.000323629139           
       1.577628             0.00923775188            0.000329782855           
       1.580268             0.00936200522            0.000320536313           
       1.582909             0.00950591472             0.00032903174           
       1.585549             0.00939273618            0.000324010584           
       1.588189             0.00947600375            0.000329078489           
       1.590830             0.00973139507            0.000327759114           
       1.593470             0.00908364455            0.000319248937           
       1.596111             0.00936034454             0.00032127459           
       1.598751             0.00876475038            0.000314063439           
       1.601391             0.00894979321            0.000315332335           
       1.604032             0.00923982599            0.000317725408           
       1.606672              0.0089118596            0.000318315922           
       1.609312             0.00909049918            0.000311924434           
       1.611953             0.00864855455             0.00030865696           
       1.614593             0.00904882903            0.000313317572           
       1.617234             0.00838294708            0.000303278567           
       1.619874             0.00861508156            0.000303832077           
       1.622514             0.00840448882            0.000302749655           
       1.625155             0.00876481844            0.000308406916           
       1.627795             0.00868484476             0.00030389443           
       1.630436             0.00895743759            0.000311728917           
       1.633076             0.00874077461            0.000306371266           
       1.635716             0.00873189155            0.000305681546           
       1.638357             0.00902209403            0.000309399502           
       1.640997             0.00831658322            0.000299379141           
       1.643637             0.00898694631            0.000305432256           
       1.646278             0.00876959523            0.000306232381           
       1.648918             0.00868977371            0.000300905564           
       1.651559             0.00855134117            0.000302252245           
       1.654199             0.00834406456            0.000294474075           
       1.656839             0.00811849965            0.000290388342           
       1.659480             0.00908816807            0.000309947155           
       1.662120             0.00804229196            0.000287660578           
       1.664761             0.00900170074            0.000307630661           
       1.667401             0.00867207522            0.000299132813           
       1.670041             0.00849146334            0.000296340165           
       1.672682              0.0084810428            0.000293371475           
       1.675322             0.00804263304            0.000290739491           
       1.677962             0.00846162713            0.000292294032           
       1.680603             0.00891027345            0.000302604834           
       1.683243             0.00803940676            0.000285310408           
       1.685884             0.00918897027            0.000306188267           
       1.688524             0.00939066111            0.000308659466           
       1.691164             0.00849257609            0.000292774698           
       1.693805             0.00857659409            0.000296598602           
       1.696445             0.00807381761             0.00028377961           
       1.699085             0.00816468357            0.000286511343           
       1.701726             0.00807793534             0.00028127826           
       1.704366             0.00834908934            0.000292918216           
       1.707007             0.00825613755            0.000285067298           
       1.709647              0.0082155097            0.000287898287           
       1.712287             0.00788674979            0.000277364976           
       1.714928             0.00841818906            0.000289439028           
       1.717568             0.00806990444            0.000280782392           
       1.720209             0.00862974783            0.000292151619           
       1.722849             0.00769982963            0.000276404804           
       1.725489               0.008367702             0.00028355037           
       1.728130              0.0082386663            0.000287083128           
       1.730770             0.00922715978            0.000297395851           
       1.733410             0.00800814681             0.00028069267           
       1.736051              0.0081279683            0.000278395435           
       1.738691             0.00843936091            0.000286573698           
       1.741332             0.00755147729            0.000269411302           
       1.743972             0.00826705035            0.000281991615           
       1.746612             0.00822294167             0.00028130303           
       1.749253              0.0084712655            0.000286752859           
       1.751893             0.00800930568            0.000277151767           
       1.754533             0.00821679714            0.000276865988           
       1.757174             0.00785778487             0.00027581207           
       1.759814             0.00784560904            0.000271396652           
       1.762455             0.00841289498            0.000283429845           
       1.765095             0.00785809644            0.000270078109           
       1.767735             0.00810842088             0.00027900792           
       1.770376              0.0080976055            0.000274593384           
       1.773016             0.00792001362            0.000271994171           
       1.775657               0.008266969            0.000278457325           
       1.778297             0.00823403941            0.000279261689           
       1.780937             0.00841109693            0.000280931121           
       1.783578             0.00772205488            0.000267914273           
       1.786218             0.00903010137            0.000294341345           
       1.788858             0.00854104145            0.000279147608           
       1.791499             0.00802543128            0.000275577615           
       1.794139              0.0080675456             0.00027119759           
       1.796780             0.00783920863            0.000268920617           
       1.799420             0.00832882706            0.000276838593           
       1.802060             0.00872109041            0.000279798529           
       1.804701             0.00908798187            0.000289455259           
       1.807341             0.00872463586            0.000280869476           
       1.809981             0.00877911048            0.000283616094           
       1.812622             0.00817403973            0.000272176965           
       1.815262             0.00831952115            0.000275567448           
       1.817903             0.00845746955            0.000274410072           
       1.820543               0.008219981            0.000273873641           
       1.823183              0.0083332436            0.000271505199           
       1.825824             0.00758518768            0.000262927925           
       1.828464             0.00834424423            0.000274923909           
       1.831105             0.00798718412            0.000270018777           
       1.833745             0.00831890568            0.000275396906           
       1.836385             0.00790841893            0.000267472035           
       1.839026             0.00779440787            0.000269528698           
       1.841666             0.00785867656            0.000267123464           
       1.844306             0.00779089684             0.00026932679           
       1.846947             0.00798334183            0.000269129309           
       1.849587             0.00801556657            0.000273329452           
       1.852228             0.00833655733            0.000275783873           
       1.854868             0.00782935025            0.000272164489           
       1.857508             0.00782801378            0.000267116215           
       1.860149             0.00811309657            0.000274116376           
       1.862789             0.00748446625            0.000264447556           
       1.865429              0.0077443638            0.000269810836           
       1.868070             0.00745424367            0.000263794072           
       1.870710             0.00796143415            0.000273363176           
       1.873351             0.00780958349            0.000272472111           
       1.875991             0.00793321087            0.000276105798           
       1.878631             0.00740476157            0.000264271971           
       1.881272              0.0077267975            0.000269325092           
       1.883912             0.00787389304            0.000275065103           
       1.886553             0.00739927583            0.000263447619           
       1.889193             0.00738656533             0.00026626188           
       1.891833             0.00780073144            0.000270510937           
       1.894474             0.00709538639            0.000260033246           
       1.897114             0.00746986498            0.000264737464           
       1.899754             0.00797042749            0.000276530652           
       1.902395             0.00778256035            0.000273310486           
       1.905035             0.00799701622            0.000275964823           
       1.907676             0.00790714507              0.0002747288           
       1.910316             0.00757453829            0.000270603094           
       1.912956             0.00806127761            0.000279151107           
       1.915597             0.00723586371            0.000261716527           
       1.918237             0.00804976174             0.00028023375           
       1.920878             0.00796272186            0.000273782013           
       1.923518             0.00796051914            0.000281017142           
       1.926158             0.00777427142            0.000271328778           
       1.928799              0.0072193578            0.000264940526           
       1.931439             0.00757788682            0.000269264276           
       1.934079             0.00750891114            0.000270750388           
       1.936720             0.00761885883            0.000271120196           
       1.939360             0.00694230682            0.000261296996           
       1.942001             0.00763284667            0.000272930354           
       1.944641             0.00710381672            0.000262167572           
       1.947281              0.0074220734            0.000269270572           
       1.949922             0.00748186841            0.000270691448           
       1.952562             0.00735241246             0.00027064847           
       1.955202             0.00740170416            0.000264731458           
       1.957843             0.00776909281            0.000279837788           
       1.960483             0.00756537211            0.000271739758           
       1.963124             0.00777777139            0.000275323607           
       1.965764             0.00751532872            0.000270735432           
       1.968404             0.00724479212              0.0002705712           
       1.971045             0.00747737211             0.00026798951           
       1.973685             0.00740155409            0.000271602997           
       1.976326             0.00739042033             0.00027021538           
       1.978966              0.0072593961            0.000269076624           
       1.981606             0.00726348089             0.00026630588           
       1.984247             0.00722172639             0.00026785476           
       1.986887              0.0073265857            0.000272315573           
       1.989527             0.00755357171            0.000270741249           
       1.992168             0.00757485881             0.00027766385           
       1.994808             0.00706547273             0.00026504619           
       1.997449              0.0069405419            0.000262307249           
       2.000089             0.00779835759            0.000276407829           
       2.002729             0.00737821581            0.000275019665           
       2.005370             0.00755336418            0.000272975145           
       2.008010             0.00751187232            0.000275838596           
       2.010650             0.00717897058            0.000268885793           
       2.013291             0.00724453659            0.000271648326           
       2.015931             0.00755172372            0.000275362819           
       2.018572             0.00727003065            0.000273766512           
       2.021212             0.00681028252            0.000262590798           
       2.023852              0.0071838455            0.000271113348           
       2.026493             0.00663645179            0.000259437633           
       2.029133             0.00707064967            0.000265747364           
       2.031774             0.00716863756             0.00027017737           
       2.034414             0.00710896626            0.000267444905           
       2.037054             0.00745280444            0.000277289132           
       2.039695             0.00770412766            0.000276372531           
       2.042335             0.00704012507            0.000268691186           
       2.044975             0.00740633654            0.000273388392           
       2.047616              0.0075884379            0.000277914715           
       2.050256              0.0073842855            0.000270926023           
       2.052897             0.00732943055            0.000277912018           
       2.055537             0.00705311544            0.000265190368           
       2.058177             0.00773601235             0.00028018522           
       2.060818             0.00724143026            0.000271894664           
       2.063458             0.00667205281            0.000261346087           
       2.066098             0.00711974059            0.000268773695           
       2.068739             0.00696105421            0.000268532582           
       2.071379              0.0077104188             0.00027844352           
       2.074020             0.00765728489            0.000281282262           
       2.076660             0.00708869006            0.000268802967           
       2.079300             0.00729715977            0.000272687398           
       2.081941             0.00727061416            0.000273845732           
       2.084581             0.00776476641            0.000283208448           
       2.087222             0.00790259723            0.000285905617           
       2.089862             0.00725039021            0.000270440286           
       2.092502             0.00750455359             0.00028013889           
       2.095143              0.0069943084             0.00026658254           
       2.097783             0.00718770359            0.000274355196           
       2.100423               0.006969417            0.000264976915           
       2.103064             0.00742131462            0.000278153583           
       2.105704             0.00696922129            0.000268516965           
       2.108345             0.00740073015            0.000277975272           
       2.110985             0.00681900223            0.000263078878           
       2.113625             0.00683527775            0.000267542587           
       2.116266             0.00691189818            0.000267046646           
       2.118906             0.00707615023            0.000270004556           
       2.121546             0.00745265813            0.000276874656           
       2.124187             0.00752015896            0.000281972633           
       2.126827             0.00745397762             0.00027632651           
       2.129468              0.0070008129            0.000270589795           
       2.132108             0.00734318451             0.00027655391           
       2.134748             0.00704898974            0.000269936255           
       2.137389             0.00697033554            0.000270674264           
       2.140029             0.00708577765            0.000272243762           
       2.142670             0.00691562648            0.000269394664           
       2.145310              0.0068822728            0.000269770975           
       2.147950             0.00684922932            0.000270162962           
       2.150591             0.00760262613            0.000282023647           
       2.153231             0.00740337235            0.000282417911           
       2.155871             0.00724270209              0.0002753023           
       2.158512             0.00739474494            0.000283189482           
       2.161152             0.00704907295            0.000269584628           
       2.163793             0.00743274517            0.000281328312           
       2.166433             0.00644997006            0.000257525669           
       2.169073             0.00680721999            0.000270738348           
       2.171714             0.00726517859            0.000274002902           
       2.174354             0.00667370411            0.000266625538           
       2.176995             0.00705621466            0.000271885844           
       2.179635             0.00732180333            0.000282196764           
       2.182275             0.00748009313            0.000279568783           
       2.184916             0.00694936965            0.000275163601           
       2.187556             0.00704639503            0.000272617121           
       2.190196             0.00741626786            0.000284076587           
       2.192837             0.00742272074            0.000281087996           
       2.195477             0.00695030627            0.000274619845           
       2.198118             0.00679569679            0.000266534947           
       2.200758             0.00732484366            0.000281014543           
       2.203398             0.00701498101            0.000270445884           
       2.206039             0.00662427435             0.00026682357           
       2.208679             0.00705416564             0.00027265008           
       2.211319             0.00781828854            0.000288388585           
       2.213960             0.00742819832            0.000278113223           
       2.216600             0.00741979228            0.000284504893           
       2.219241             0.00738072747            0.000279629619           
       2.221881             0.00702841685             0.00027429647           
       2.224521              0.0070461322            0.000273689347           
       2.227162             0.00700866488            0.000277248079           
       2.229802             0.00726328475            0.000277657849           
       2.232443             0.00743479663            0.000282021354           
       2.235083             0.00749307766             0.00028142687           
       2.237723             0.00708019181            0.000275659821           
       2.240364             0.00669352218            0.000266663563           
       2.243004             0.00699690098            0.000273463428           
       2.245644             0.00693952077            0.000271710911           
       2.248285              0.0070614392            0.000275866583           
       2.250925             0.00724264291            0.000278077221           
       2.253566             0.00694688127            0.000273006167           
       2.256206             0.00704653704            0.000274133761           
       2.258846             0.00716727928            0.000276474888           
       2.261487             0.00700267213            0.000273754361           
       2.264127             0.00718022844            0.000279826054           
       2.266767             0.00698931204            0.000271618533           
       2.269408             0.00667632452            0.000268620125           
       2.272048             0.00735418979            0.000280193137           
       2.274689             0.00700165577            0.000274469993           
       2.277329             0.00658448344            0.000265814016           
       2.279969             0.00693251657            0.000273575255           
       2.282610             0.00732334005              0.0002784389           
       2.285250             0.00725391905            0.000281474393           
       2.287891             0.00734211695            0.000280322799           
       2.290531             0.00762864835            0.000287149425           
       2.293171             0.00656871131            0.000266442089           
       2.295812             0.00709205802             0.00027538336           
       2.298452             0.00681688545            0.000271717255           
       2.301092             0.00675565218            0.000272212374           
       2.303733             0.00702133213            0.000272024345           
       2.306373             0.00689303434            0.000276120006           
       2.309014             0.00646585799            0.000262273927           
       2.311654             0.00708560956             0.00027716148           
       2.314294             0.00695530832            0.000274001724           
       2.316935             0.00693043396            0.000274592323           
       2.319575             0.00710864515            0.000277059009           
       2.322215             0.00656318183            0.000270010716           
       2.324856             0.00668869244            0.000265735119           
       2.327496             0.00692251597            0.000276965449           
       2.330137             0.00693433451            0.000272089482           
       2.332777              0.0071655795            0.000279614179           
       2.335417             0.00679073905            0.000271385296           
       2.338058             0.00717329274            0.000280041104           
       2.340698             0.00710248847            0.000275911999           
       2.343339               0.007425581            0.000287501417           
       2.345979             0.00725915519            0.000278588993           
       2.348619              0.0071445388             0.00028160027           
       2.351260             0.00695017093            0.000271839328           
       2.353900             0.00716278737            0.000281811655           
       2.356540             0.00725477479            0.000279714819           
       2.359181             0.00695387401            0.000277514628           
       2.361821              0.0070111024            0.000275259016           
       2.364462             0.00679254318             0.00027546277           
       2.367102              0.0073457839            0.000278177401           
       2.369742             0.00760268621            0.000293141741           
       2.372383             0.00676534589            0.000268466971           
       2.375023             0.00710539823            0.000282299666           
       2.377663              0.0070905188            0.000276011185           
       2.380304             0.00719176602            0.000281830804           
       2.382944             0.00678983105            0.000271163614           
       2.385585             0.00702831216            0.000278492717           
       2.388225             0.00702362206            0.000277141906           
       2.390865             0.00692948913            0.000275983377           
       2.393506             0.00656459899            0.000267380888           
       2.396146             0.00720098761            0.000280969632           
       2.398787             0.00696532747            0.000276575579           
       2.401427             0.00725391436            0.000280533164           
       2.404067             0.00703375684            0.000280459558           
       2.406708              0.0075642067            0.000287187156           
       2.409348             0.00687919611            0.000275935142           
       2.411988             0.00677697759            0.000273002701           
       2.414629             0.00668718606            0.000272075407           
       2.417269             0.00673477908            0.000270562267           
       2.419910             0.00681178955            0.000275536228           
       2.422550             0.00699427459             0.00027496435           
       2.425190             0.00735293824            0.000290802668           
       2.427831             0.00671968603            0.000267543309           
       2.430471             0.00685129832            0.000278047554           
       2.433112              0.0067945444            0.000270359898           
       2.435752             0.00723574879             0.00028606297           
       2.438392              0.0068089877            0.000272834608           
       2.441033             0.00683680851             0.00027464421           
       2.443673             0.00711618048            0.000280947648           
       2.446313             0.00718558568             0.00028081023           
       2.448954             0.00720856023            0.000283726744           
       2.451594             0.00736227704            0.000285015445           
       2.454235             0.00757823821             0.00028826572           
       2.456875             0.00732245421            0.000284794436           
       2.459515             0.00786692169            0.000295647832           
       2.462156              0.0075217874            0.000287599604           
       2.464796              0.0076267738            0.000294708094           
       2.467436             0.00790176041            0.000293683989           
       2.470077             0.00781811965            0.000296153807           
       2.472717             0.00794751823            0.000294858398           
       2.475358             0.00772614357            0.000294016565           
       2.477998             0.00761225766             0.00029028456           
       2.480638             0.00787780274            0.000296021806           
       2.483279             0.00765947233            0.000293144874           
       2.485919             0.00736001295            0.000285345196           
       2.488560             0.00697962825            0.000279026286           
       2.491200             0.00680919089            0.000275220568           
       2.493840              0.0068369165            0.000274278814           
       2.496481             0.00693888358            0.000279929915           
       2.499121             0.00719757267            0.000281304235           
       2.501761             0.00732919744            0.000288684922           
       2.504402             0.00771210252            0.000290454868           
       2.507042             0.00716577873            0.000284632189           
       2.509683             0.00720876444            0.000282884758           
       2.512323             0.00680019547            0.000275827163           
       2.514963              0.0086711489            0.000312088324           
       2.517604               0.012295053            0.000370169673           
       2.520244              0.0374608418            0.000646277959           
       2.522884              0.0179097857            0.000445886908           
       2.525525              0.0107489268            0.000348269011           
       2.528165              0.0164417027            0.000428763366           
       2.530806               0.029385197            0.000571051512           
       2.533446               0.018744861            0.000460144794           
       2.536086              0.0210616465            0.000483658985           
       2.538727              0.0183522639             0.00045437376           
       2.541367               0.013488312            0.000388421802           
       2.544008               0.012474125            0.000373850174           
       2.546648              0.0082186251            0.000303798062           
       2.549288             0.00691661031            0.000278736974           
       2.551929             0.00755060169            0.000292193728           
       2.554569             0.00753529557            0.000289229994           
       2.557209             0.00755774598            0.000292933342           
       2.559850             0.00747274458            0.000287931896           
       2.562490             0.00753441451            0.000291222675           
       2.565131             0.00720081712            0.000285197876           
       2.567771             0.00724578215            0.000284570672           
       2.570411             0.00787447387             0.00030026954           
       2.573052             0.00744065817            0.000288474138           
       2.575692             0.00678613701            0.000276225051           
       2.578332             0.00715241102            0.000282743841           
       2.580973              0.0069421424            0.000280815291           
       2.583613             0.00692351269            0.000277882657           
       2.586254             0.00706106824            0.000283112257           
       2.588894             0.00688074754             0.00027798311           
       2.591534             0.00779297188            0.000296380925           
       2.594175             0.00672058868            0.000276831841           
       2.596815             0.00712840191            0.000282456594           
       2.599456             0.00689908218            0.000280149669           
       2.602096             0.00643200755            0.000269488005           
       2.604736              0.0062441187             0.00026621913           
       2.607377             0.00644118641             0.00026935351           
       2.610017             0.00706732573            0.000282043112           
       2.612657             0.00713300291            0.000285352178           
       2.615298             0.00684645715            0.000276827272           
       2.617938             0.00722231488            0.000286811706           
       2.620579             0.00699856711            0.000280027747           
       2.623219             0.00714789542             0.00028752627           
       2.625859             0.00702210441            0.000280181971           
       2.628500             0.00704367365            0.000285096712           
       2.631140             0.00710431029            0.000281272092           
       2.633780             0.00732773506            0.000289329789           
       2.636421              0.0066126959            0.000272350085           
       2.639061             0.00733462246            0.000290261157           
       2.641702              0.0076886458            0.000294006794           
       2.644342             0.00743820822            0.000291551063           
       2.646982             0.00718542324            0.000286310831           
       2.649623              0.0072570067            0.000289458378           
       2.652263               0.007369155            0.000289365387           
       2.654904             0.00708239856            0.000285219785           
       2.657544             0.00671575491            0.000275784946           
       2.660184             0.00769962496            0.000295673961           
       2.662825             0.00766445377            0.000295704969           
       2.665465             0.00710258497            0.000285186342           
       2.668105              0.0067734554            0.000278610556           
       2.670746             0.00697066611            0.000280245859           
       2.673386             0.00705590545            0.000285371277           
       2.676027              0.0065298215            0.000272192906           
       2.678667             0.00689446024            0.000281143601           
       2.681307             0.00700841595            0.000281228571           
       2.683948             0.00709375481            0.000285745509           
       2.686588             0.00760568466            0.000293161366           
       2.689229             0.00755624271            0.000294829451           
       2.691869             0.00754133747            0.000291598576           
       2.694509             0.00741675902            0.000293145795           
       2.697150             0.00683765421            0.000276976382           
       2.699790             0.00678380633            0.000281614327           
       2.702430             0.00684759579            0.000277510574           
       2.705071             0.00636934395            0.000271307155           
       2.707711             0.00724270655            0.000286441712           
       2.710352             0.00649375805            0.000272771377           
       2.712992             0.00649414469             0.00027366638           
       2.715632             0.00672251857            0.000276852869           
       2.718273             0.00689385307            0.000281289434           
       2.720913             0.00669326297            0.000277629639           
       2.723553             0.00731677731            0.000289264447           
       2.726194             0.00656865256            0.000275399265           
       2.728834             0.00675027095            0.000276698878           
       2.731475             0.00700293783            0.000284292926           
       2.734115              0.0068166677            0.000278815164           
       2.736755             0.00675239357            0.000279331967           
       2.739396             0.00675979724             0.00027800715           
       2.742036             0.00709256987            0.000286711536           
       2.744677             0.00706500824            0.000286572287           
       2.747317             0.00755549429            0.000294913234           
       2.749957             0.00790947384            0.000303931599           
       2.752598             0.00690059592            0.000284741797           
       2.755238             0.00682657336            0.000283082828           
       2.757878             0.00681167755            0.000281968694           
       2.760519              0.0066989283            0.000276672898           
       2.763159             0.00689492772            0.000285255204           
       2.765800             0.00708845274            0.000284331235           
       2.768440             0.00707323694            0.000287767508           
       2.771080             0.00690288933            0.000281885533           
       2.773721             0.00714479449            0.000290300422           
       2.776361             0.00652373115            0.000274417072           
       2.779001             0.00702630386            0.000287784808           
       2.781642             0.00673464767            0.000279826142           
       2.784282             0.00670148996            0.000279233816           
       2.786923             0.00674925398            0.000278095927           
       2.789563             0.00667704207            0.000277159866           
       2.792203             0.00651710032            0.000275563197           
       2.794844             0.00654984373            0.000274997568           
       2.797484             0.00605665925            0.000264814307           
       2.800125             0.00659887897            0.000276056747           
       2.802765             0.00703830541            0.000290385286           
       2.805405             0.00687739992            0.000282903265           
       2.808046             0.00668801332            0.000283258604           
       2.810686              0.0070659218             0.00028804909           
       2.813326               0.006537067            0.000280487665           
       2.815967             0.00667039153            0.000281547947           
       2.818607             0.00690542568            0.000289328845           
       2.821248             0.00685192109            0.000284612163           
       2.823888             0.00717808274            0.000295999418           
       2.826528             0.00661377499            0.000282431078           
       2.829169             0.00648868759            0.000278512445           
       2.831809             0.00631192679            0.000274933394           
       2.834449              0.0067529962            0.000279413437           
       2.837090             0.00661859394            0.000278283624           
       2.839730             0.00631002326            0.000269789549           
       2.842371             0.00652488256            0.000276255811           
       2.845011             0.00666466309            0.000278576508           
       2.847651             0.00650582281            0.000275742268           
       2.850292              0.0067701577            0.000279690029           
       2.852932             0.00645356661            0.000273561881           
       2.855573             0.00619472428            0.000270373578           
       2.858213             0.00735319787             0.00029126677           
       2.860853             0.00687888352              0.0002838248           
       2.863494             0.00697290952            0.000286446057           
       2.866134             0.00664142594            0.000283475725           
       2.868774             0.00647254939            0.000275564644           
       2.871415             0.00746118487            0.000298790636           
       2.874055             0.00707357749            0.000292367158           
       2.876696             0.00665581652             0.00028104854           
       2.879336             0.00649269906            0.000279425888           
       2.881976             0.00683675773            0.000286497946           
       2.884617             0.00682069748             0.00028457157           
       2.887257             0.00687711397            0.000283753677           
       2.889897             0.00622412992            0.000273040656           
       2.892538             0.00619897641            0.000270599088           
       2.895178             0.00662361049            0.000276861251           
       2.897819             0.00639898405            0.000274924962           
       2.900459             0.00665437211            0.000278036279           
       2.903099             0.00635193187            0.000273062817           
       2.905740             0.00689444908            0.000281309505           
       2.908380             0.00637409894            0.000274091309           
       2.911021             0.00678964876            0.000283422503           
       2.913661             0.00656610979             0.00027565059           
       2.916301              0.0066477766            0.000281305206           
       2.918942             0.00662064761            0.000276495438           
       2.921582             0.00700257054            0.000287342081           
       2.924222             0.00676178654            0.000280720999           
       2.926863             0.00679674896            0.000282193387           
       2.929503             0.00678273162            0.000285031625           
       2.932144             0.00680895178            0.000280898193           
       2.934784             0.00689316466            0.000283831038           
       2.937424             0.00762708262            0.000299110953           
       2.940065             0.00706010834            0.000288013001           
       2.942705              0.0067849005            0.000283201647           
       2.945346             0.00653773302            0.000276353441           
       2.947986             0.00674348299            0.000281649834           
       2.950626             0.00676357679            0.000282936431           
       2.953267             0.00813701796            0.000307039983           
       2.955907              0.0102420129            0.000349027062           
       2.958547             0.00959818727            0.000334414345           
       2.961188             0.00814733949            0.000310794304           
       2.963828             0.00797482513            0.000305743728           
       2.966469              0.0075188471            0.000296948238           
       2.969109             0.00743952577            0.000296888385           
       2.971749             0.00727950592             0.00029281428           
       2.974390             0.00679165274            0.000283608416           
       2.977030             0.00815722286            0.000310223883           
       2.979670             0.00967944927            0.000335753354           
       2.982311             0.00885711677            0.000323492504           
       2.984951             0.00822662776            0.000312572262           
       2.987592             0.00701064693            0.000287574408           
       2.990232             0.00720287187            0.000292234575           
       2.992872             0.00747105425            0.000295296663           
       2.995513              0.0076218113             0.00030060402           
       2.998153             0.00834530274            0.000316577191           
       3.000794             0.00980645672            0.000338180497           
       3.003434              0.0191077547            0.000477065644           
       3.006074              0.0682654069            0.000904630148           
       3.008715              0.0540354557            0.000810969685           
       3.011355              0.0317017702            0.000627624897           
       3.013995              0.0226379632            0.000527774105           
       3.016636              0.0359712331            0.000666531366           
       3.019276               0.183691321             0.00154221067           
       3.021917               0.194307494             0.00155924864           
       3.024557               0.129423539             0.00128271638           
       3.027197                0.15503367             0.00142746563           
       3.029838               0.167097287             0.00147487633           
       3.032478              0.0587500872            0.000879756634           
       3.035118               0.034116405            0.000673859993           
       3.037759              0.0885940776             0.00108781391           
       3.040399               0.239708931             0.00180982108           
       3.043040               0.117140351             0.00127745192           
       3.045680               0.052772913            0.000844221106           
       3.048320               0.171895429             0.00154809116           
       3.050961               0.234485896              0.0018262318           
       3.053601              0.0689260374            0.000985744437           
       3.056242              0.0550834072            0.000886877854           
       3.058882               0.205682925             0.00173926366           
       3.061522               0.111833975             0.00127360197           
       3.064163               0.020594797            0.000547539093           
       3.066803              0.0280182142            0.000650990154           
       3.069443              0.0380048774             0.00075313305           
       3.072084              0.0648484934            0.000992546496           
       3.074724              0.0230899181            0.000595756865           
       3.077365              0.0104061258            0.000399660612           
       3.080005             0.00935553759            0.000383151644           
       3.082645             0.00934568377            0.000384899663           
       3.085286              0.0082920129            0.000362619518           
       3.087926              0.0081937408            0.000362757791           
       3.090566             0.00750209844            0.000350685369           
       3.093207             0.00730017993            0.000342196321           
       3.095847             0.00671382316            0.000335044675           
       3.098488             0.00690101768            0.000339067492           
       3.101128             0.00853998526            0.000379242929           
       3.103768             0.00973289486            0.000407145645           
       3.106409              0.0104605243            0.000424917568           
       3.109049              0.0108745181            0.000436612401           
       3.111690               0.011319723            0.000443706292           
       3.114330             0.00845217812            0.000386820209           
       3.116970             0.00908600371            0.000406641138           
       3.119611              0.0130087892            0.000483401705           
       3.122251              0.0159203669             0.00053914862           
       3.124891              0.0124790963            0.000479652638           
       3.127532             0.00821742577            0.000396238648           
       3.130172             0.00832260418            0.000390563129           
       3.132813               0.008127858            0.000393821908           
       3.135453             0.00942783443             0.00043309548           
       3.138093             0.00832055006            0.000397214293           
       3.140734             0.00628758687            0.000351721743           
       3.143374             0.00657667234            0.000365215347           
       3.146014             0.00697078239            0.000373269612           
       3.148655             0.00617200831            0.000353998164           
       3.151295             0.00654121726            0.000367317022           
       3.153936             0.00580864329            0.000351247762           
       3.156576             0.00665923703            0.000371769838           
       3.159216             0.00610452229             0.00035886022           
       3.161857              0.0057128992            0.000351417157           
       3.164497             0.00644004919            0.000380979235           
       3.167138             0.00544256324            0.000341831442           
       3.169778             0.00562000615            0.000353631307           
       3.172418             0.00638396111            0.000379103495           
       3.175059             0.00549037943            0.000356172613           
       3.177699             0.00602767487            0.000371719617           
       3.180339             0.00526983232            0.000350674081           
       3.182980             0.00619866846            0.000385458965           
       3.185620             0.00531406158            0.000360796509           
       3.188261             0.00542622092            0.000359807587           
       3.190901             0.00586487698            0.000379832416           
       3.193541             0.00610684516            0.000388865809           
       3.196182             0.00665374278            0.000414350371           
       3.198822             0.00567973012            0.000378182722           
       3.201463             0.00543984191            0.000374896283           
       3.204103             0.00594431057             0.00039711266           
       3.206743             0.00656666978            0.000420912625           
       3.209384             0.00608527904            0.000403384582           
       3.212024              0.0050095569            0.000367298176           
       3.214664             0.00556553203            0.000394523025           
       3.217305              0.0061549724            0.000424568685           
       3.219945              0.0051840814            0.000386388288           
       3.222586             0.00599117298            0.000417729206           
       3.225226               0.005980419            0.000426756434           
       3.227866             0.00534915569            0.000406727705           
       3.230507             0.00553531402            0.000418681665           
       3.233147             0.00664141614            0.000451826274           
       3.235787             0.00617267419            0.000435708314           
       3.238428             0.00611659451            0.000441384647           
       3.241068             0.00602458911            0.000446935112           
       3.243709             0.00453373109            0.000385559493           
       3.246349             0.00565623581            0.000428243279           
       3.248989             0.00563302197            0.000437131837           
       3.251630             0.00588674221            0.000448844988           
       3.254270             0.00535965546            0.000441444281           
       3.256911             0.00535749738            0.000430296839           
       3.259551             0.00580678238            0.000457875267           
       3.262191             0.00672761855            0.000497378795           
       3.264832             0.00531174538            0.000446098966           
       3.267472             0.00532789251            0.000453112448           
       3.270112             0.00584333394             0.00047587533           
       3.272753             0.00584485251            0.000481786016           
       3.275393             0.00557788922            0.000473077238           
       3.278034             0.00522350228            0.000467128243           
       3.280674             0.00522394153             0.00046850367           
       3.283314             0.00540246587             0.00047907438           
       3.285955              0.0049987828            0.000469483992           
       3.288595             0.00499717161            0.000474645079           
       3.291235             0.00443006519            0.000449526832           
       3.293876             0.00531278989            0.000495194502           
       3.296516             0.00549298554            0.000513792361           
       3.299157             0.00624446655            0.000556091279           
       3.301797             0.00472162891            0.000483758776           
       3.304437             0.00628437979            0.000568564132           
       3.307078             0.00583275965            0.000553074851           
       3.309718             0.00541652661            0.000538295852           
       3.312359             0.00435315207            0.000492323127           
       3.314999             0.00564234606            0.000566383261           
       3.317639             0.00576231657            0.000578536259           
       3.320280             0.00689694689            0.000642179796           
       3.322920             0.00483905905            0.000545956911           
       3.325560             0.00534184697             0.00058469555           
       3.328201             0.00601600298            0.000623117697           
       3.330841              0.0049821622            0.000580845984           
       3.333482             0.00489297367            0.000582932218           
       3.336122             0.00488261664            0.000594971306           
       3.338762             0.00476074855            0.000592872746           
       3.341403              0.0049360112            0.000609287524           
       3.344043              0.0046440108            0.000613547454           
       3.346683              0.0055769246            0.000679174825           
       3.349324             0.00583994403            0.000705764692           
       3.351964             0.00646703075            0.000766567164           
       3.354605             0.00570368186            0.000728057442           
       3.357245             0.00561821873            0.000747980816           
       3.359885             0.00495260991            0.000702529023           
       3.362526             0.00489674178            0.000734273274           
       3.365166              0.0070317455            0.000869041316           
       3.367807              0.0046104349            0.000753272676           
       3.370447             0.00462660894            0.000754885373           
       3.373087             0.00530009755            0.000852723003           
       3.375728             0.00334880238            0.000672690638           
       3.378368             0.00640030793             0.00100490709           
       3.381008             0.00507363975            0.000886914747           
       3.383649             0.00594549556             0.00103904576           
       3.386289             0.00753304548             0.00117005159           
       3.388930             0.00579799169             0.00112734936           
       3.391570             0.00625431832             0.00117136377           
       3.394210             0.00800802212             0.00142019423           
       3.396851             0.00318249508            0.000969822065           
       3.399491             0.00264397763            0.000900012421           
       3.402131             0.00757206336             0.00180291203           
       3.404772             0.00455218431             0.00139850307           
       3.407412             0.00254858708             0.00129846709           
       3.410053             0.00267807056             0.00138598652           
       3.412693             0.00402106746             0.00240278939           
       3.415333             0.00592677392             0.00357418008           
