################################################################################
# EDF_DataBlockID                     0.Image.Psd
# EDF_BinarySize                      2105344
# EDF_HeaderSize                      2560
# ByteOrder                           LowByteFirst
# DataType                            FloatValue
# Dim_1                               512
# Dim_2                               1028
# Image                               0
# HeaderID                            EH:000000:000000:000000
# Size                                2105344
# Center_1                            304.9000
# Center_2                            588.7000
# Comment                             Xenocs_Cell_Window - front_window_open_only
# DDummy                              0.6
# Date                                2025-10-18T03:35:21
# Delta                               21.910000
# Dummy                               -1.5
# ExposureTime                        360
# Gamma                               15.360000
# Intensity1                          9.28057e-10
# PSize_1                             7.5e-05
# PSize_2                             7.5e-05
# Pressure                            0.0342884
# SampleDistance                      0.115750
# SampleEnvKind                       large
# SampleEnvPN                         ElectroChemical cell
# SampleEnvSN                         1141
# Thickness                           0
# Wavelength                          1.541891e-10
# Wavelength                          1.54189e-10
# aux                                 0
# aux_dial                            0.002375
# beamx                               588.429
# beamx_dial                          588.429
# beamz                               657.855
# beamz_dial                          657.855
# det0x                               -0.000396875
# det0x_dial                          6.36905
# det0xvd                             -0.0005
# det0xvd_dial                        -0.0005
# det0y                               450.002
# det0y_dial                          481.635
# det0z                               0
# det0z_dial                          1.2295
# det0zvd                             0
# det0zvd_dial                        0
# mag                                 1.818
# mag_dial                            1.818
# om                                  0.2499
# om_dial                             -0.610199
# phi                                 -0.0120535
# phi_dial                            0
# ry                                  0.599993
# ry_dial                             0.599993
# s1bot                               0.8
# s1bot_dial                          -1.66094
# s1hl                                0.8
# s1hl_dial                           -0.608437
# s1hr                                0.8
# s1hr_dial                           0.970938
# s1top                               0.8
# s1top_dial                          -0.461562
# s2bot                               0.45
# s2bot_dial                          1.36109
# s2hl                                0.45
# s2hl_dial                           -0.83375
# s2hr                                0.45
# s2hr_dial                           -0.118594
# s2top                               0.45
# s2top_dial                          1.44734
# w2theta                             32
# w2theta_dial                        32
# waxsch                              19.2605
# waxsch_dial                         -32.7238
# waxsh                               137.085
# waxsh_dial                          -43.5335
# waxsth                              26.0607
# waxsth_dial                         -19.4068
# waxsz                               67.0407
# waxsz_dial                          -23.7962
# wind                                65.9854
# wind_dial                           66.0041
# wpsi                                124
# wpsi_dial                           124
# wstod                               115
# wstod_dial                          115
# x                                   0
# x_dial                              1.00969
# z                                   0
# z_dial                              13.3172
# CountCutoff                         6807993
# DetectorModel                       Dectris EIGER2 Si 500K, S/N E-01-0554
# ThresholdSetting                    4023.88989258
# Saturation                          0
# FlatField                           Corrected
# BackgroundReductionExtra            0.02
# BackgroundCorrectionConstant        0.0026712
# Detector                            0
# Monitor                             0
# Pil_Roi0                            0
# SumForIntensity1                    3.341e+08
# TransmittedFlux                     928057
# det                                 0
# mon                                 0
# pilai0                              3.341e+08
# pilai1                              715112
# pilct0                              5.76238e+08
# pilct1                              715112
# pilroi0                             0
# pilroi1                             0
# sec                                 1
# title                               20251017__1_00086.edf
# usaxs0                              0
# Operation                           Azimuthal average I(q)
# Error_model                         ErrorModel.poisson
# Geometrical_correction              True
# Transmission_correction             True
# Thickness_correction                False
# Binning mode                        Uniform
# Binning factor                      1.0
# Psi                                 0.0
# Omega                               0.2499
# MaskInvalidPixels                   True
# DetectorEdge                        3
# MaskFiles                           ['20251017__1_00233_mask.edf']
################################################################################
    q(A⁻¹)                Intensity(a.u.)            Sigma_I(a.u.)            
       0.690460             0.00743122259             0.00780275026           
       0.693100             0.00907077677             0.00385414063           
       0.695741             0.00558658495             0.00255531617           
       0.698381             0.00295459269              0.0017380666           
       0.701021             0.00264959484              0.0013432975           
       0.703662             0.00336342515             0.00140092761           
       0.706302             0.00743665565             0.00201182175           
       0.708942             0.00542764527             0.00152668809           
       0.711583             0.00376159146              0.0012707229           
       0.714223             0.00706712946             0.00151778686           
       0.716864              0.0053528262             0.00134794616           
       0.719504             0.00575599309             0.00129365351           
       0.722144             0.00722519363             0.00139980738           
       0.724785             0.00469854909             0.00111032041           
       0.727425             0.00623625466             0.00118649585           
       0.730065             0.00681715781             0.00127643157           
       0.732706             0.00671259474             0.00113898741           
       0.735346             0.00666837178             0.00122624133           
       0.737987              0.0049853687            0.000917704022           
       0.740627              0.0048339656            0.000989950706           
       0.743267             0.00726773459             0.00104411143           
       0.745908             0.00666447363             0.00107155236           
       0.748548             0.00594133303            0.000943631926           
       0.751189             0.00567922553            0.000913890703           
       0.753829             0.00623971236            0.000966567283           
       0.756469             0.00667076294            0.000939977788           
       0.759110             0.00503708751            0.000844856945           
       0.761750             0.00673079451            0.000893809107           
       0.764390             0.00542068089             0.00086103003           
       0.767031             0.00641854279            0.000847817645           
       0.769671             0.00740967442            0.000966068565           
       0.772312             0.00611932414            0.000800030124           
       0.774952             0.00699171739              0.0009167752           
       0.777592             0.00692007115            0.000834221318           
       0.780233             0.00651913133            0.000853586855           
       0.782873             0.00760325707             0.00084296873           
       0.785513             0.00756758745            0.000894612064           
       0.788154             0.00656009355            0.000765061016           
       0.790794              0.0064535734            0.000785361269           
       0.793435             0.00611111188            0.000734044524           
       0.796075             0.00583201173            0.000720875006           
       0.798715              0.0051348407            0.000672555075           
       0.801356             0.00711989814            0.000770762231           
       0.803996             0.00520704773            0.000669675941           
       0.806637             0.00811324038            0.000790167582           
       0.809277             0.00748222487            0.000793846992           
       0.811917             0.00652833397            0.000701693005           
       0.814558             0.00676075941            0.000731523798           
       0.817198             0.00573219016              0.0006422618           
       0.819838             0.00741551428            0.000761993591           
       0.822479             0.00742118454            0.000702486674           
       0.825119             0.00686200284            0.000725663131           
       0.827760             0.00657202034             0.00065804048           
       0.830400             0.00603441791            0.000664366296           
       0.833040             0.00747152663            0.000689936013           
       0.835681              0.0070261634            0.000700645561           
       0.838321             0.00639596794            0.000625690586           
       0.840961             0.00618149817            0.000642940638           
       0.843602             0.00695227098            0.000642273441           
       0.846242             0.00696014958            0.000665326528           
       0.848883             0.00635256626            0.000618319198           
       0.851523             0.00716583823            0.000661628526           
       0.854163              0.0074258545            0.000665700551           
       0.856804             0.00654262805            0.000608870402           
       0.859444             0.00629009673            0.000601296593           
       0.862085             0.00542742717            0.000550418813           
       0.864725             0.00748322143            0.000643936708           
       0.867365             0.00673927241            0.000606713996           
       0.870006             0.00681860835            0.000618789364           
       0.872646             0.00720656269            0.000608463583           
       0.875286             0.00567465388            0.000558330643           
       0.877927             0.00650855661            0.000572511525           
       0.880567             0.00613906167            0.000566885494           
       0.883208             0.00677276963            0.000578229669           
       0.885848             0.00641091692            0.000577160234           
       0.888488             0.00725393741            0.000583743046           
       0.891129             0.00732724392             0.00061671105           
       0.893769               0.006599762            0.000553250134           
       0.896410             0.00647302246            0.000564789723           
       0.899050               0.006668875            0.000552744956           
       0.901690             0.00697685295            0.000577165398           
       0.904331              0.0064157322             0.00053414619           
       0.906971             0.00730452107            0.000588522681           
       0.909611             0.00735061581            0.000566662361           
       0.912252             0.00646528835            0.000540651606           
       0.914892             0.00614548304            0.000513759296           
       0.917533             0.00701138672            0.000561143778           
       0.920173             0.00727125399            0.000548160899           
       0.922813             0.00705128431            0.000564106648           
       0.925454              0.0068723794            0.000528535446           
       0.928094             0.00665306859            0.000531196176           
       0.930734             0.00683013137             0.00052537336           
       0.933375             0.00720149603            0.000550967009           
       0.936015             0.00686581955             0.00051474148           
       0.938656             0.00726525062            0.000551713126           
       0.941296             0.00748604396             0.00053987088           
       0.943936              0.0067839773            0.000523188087           
       0.946577             0.00785663318            0.000542235634           
       0.949217             0.00667495316            0.000517448275           
       0.951858             0.00696899847            0.000499845251           
       0.954498             0.00664034444            0.000513309576           
       0.957138             0.00687715065            0.000502086749           
       0.959779              0.0067393328            0.000507901859           
       0.962419             0.00709673946            0.000501752773           
       0.965059             0.00759002912            0.000533637096           
       0.967700             0.00785780213            0.000525410286           
       0.970340             0.00769626478             0.00053459298           
       0.972981             0.00682036961            0.000485906173           
       0.975621             0.00711853623            0.000506807785           
       0.978261             0.00785686346            0.000508016693           
       0.980902             0.00810738022            0.000540624131           
       0.983542             0.00805797638            0.000523281001           
       0.986182             0.00690544154            0.000490794517           
       0.988823             0.00692384512            0.000475591226           
       0.991463             0.00702993255            0.000490667071           
       0.994104             0.00671688716            0.000463451224           
       0.996744             0.00682751005            0.000482404436           
       0.999384             0.00698171854            0.000471265036           
       1.002025             0.00853545008            0.000535579569           
       1.004665             0.00683724037            0.000459713244           
       1.007306             0.00693025151            0.000478338077           
       1.009946             0.00785601508            0.000489694396           
       1.012586             0.00753295595            0.000493313591           
       1.015227             0.00714137607             0.00046578167           
       1.017867             0.00775630659            0.000499331967           
       1.020507             0.00686958119            0.000452232787           
       1.023148             0.00711132337            0.000465678637           
       1.025788              0.0069359454             0.00045519129           
       1.028429             0.00745867075            0.000482351405           
       1.031069             0.00698294825            0.000449657288           
       1.033709             0.00753691174            0.000476123478           
       1.036350             0.00645459365            0.000429059292           
       1.038990             0.00787665834            0.000485674644           
       1.041630               0.007804507            0.000474144332           
       1.044271              0.0084383513            0.000493077732           
       1.046911             0.00811608887            0.000474586052           
       1.049552             0.00679951439            0.000450045115           
       1.052192             0.00757708249            0.000453717768           
       1.054832             0.00786195299            0.000471155953           
       1.057473             0.00776026409            0.000462173017           
       1.060113             0.00807354581            0.000476514429           
       1.062754             0.00768416153            0.000459739745           
       1.065394             0.00799723686            0.000464077194           
       1.068034              0.0075196697            0.000448265164           
       1.070675             0.00786172334            0.000466408887           
       1.073315             0.00752002207            0.000442216984           
       1.075955             0.00654365486            0.000419429879           
       1.078596             0.00814248104            0.000466947731           
       1.081236             0.00789398403            0.000452947918           
       1.083877             0.00845403789            0.000483383119           
       1.086517             0.00757778635            0.000447294346           
       1.089157             0.00789624616            0.000459944132           
       1.091798             0.00820064217            0.000458794579           
       1.094438             0.00731389935            0.000440166338           
       1.097078               0.007820019            0.000443445296           
       1.099719             0.00784915891            0.000455656941           
       1.102359             0.00828653156            0.000443515932           
       1.105000             0.00817556033            0.000457886127           
       1.107640             0.00712890575            0.000413635055           
       1.110280             0.00776179706            0.000440247828           
       1.112921             0.00859514922            0.000454896466           
       1.115561             0.00724658705            0.000422989329           
       1.118202             0.00845366058            0.000443527685           
       1.120842             0.00812353747             0.00044848033           
       1.123482             0.00835454011            0.000442053926           
       1.126123             0.00848873281            0.000448370837           
       1.128763             0.00827128856            0.000440395705           
       1.131403             0.00768427161            0.000423820727           
       1.134044             0.00885249918             0.00045410819           
       1.136684             0.00826530901            0.000442086778           
       1.139325             0.00863933062            0.000439244046           
       1.141965             0.00781127065             0.00042312604           
       1.144605             0.00853447963            0.000444878024           
       1.147246             0.00853016047            0.000436342102           
       1.149886             0.00899080158            0.000451154659           
       1.152527             0.00824961986             0.00043259168           
       1.155167             0.00773750939            0.000413059171           
       1.157807             0.00851846002            0.000433701884           
       1.160448              0.0087116621            0.000444593534           
       1.163088             0.00889861144            0.000432668302           
       1.165728             0.00789079456            0.000424224785           
       1.168369             0.00860245831            0.000427129295           
       1.171009             0.00873589367            0.000433997843           
       1.173650             0.00870458408            0.000430095417           
       1.176290             0.00833099637            0.000425701802           
       1.178930             0.00801941952            0.000405924333           
       1.181571             0.00853770998            0.000432516149           
       1.184211              0.0095701322              0.0004440911           
       1.186851             0.00869011754            0.000427082729           
       1.189492              0.0089878391            0.000436748876           
       1.192132             0.00902619842            0.000431197747           
       1.194773             0.00908334142             0.00042995084           
       1.197413             0.00845566123            0.000418213561           
       1.200053             0.00819229202            0.000409058984           
       1.202694             0.00873264562            0.000419151501           
       1.205334             0.00889384535            0.000427626524           
       1.207975             0.00861718945            0.000412675594           
       1.210615             0.00975376171             0.00044833221           
       1.213255             0.00901471774            0.000419610013           
       1.215896              0.0089491594            0.000426006215           
       1.218536             0.00908310842            0.000416821071           
       1.221176             0.00901631608            0.000425198074           
       1.223817             0.00900878195            0.000416163991           
       1.226457             0.00968947012            0.000437082076           
       1.229098             0.00949025605            0.000426003185           
       1.231738             0.00864617752            0.000412343197           
       1.234378             0.00935404185            0.000420556994           
       1.237019             0.00888856543            0.000413266283           
       1.239659             0.00959188143            0.000429072813           
       1.242299             0.00963536171            0.000427845685           
       1.244940             0.00955213365            0.000421395561           
       1.247580             0.00944658766            0.000420911338           
       1.250221             0.00975253406            0.000434654131           
       1.252861             0.00932369786            0.000409156801           
       1.255501             0.00851879945            0.000402139649           
       1.258142             0.00988595978            0.000424644144           
       1.260782              0.0105001629            0.000442580105           
       1.263423             0.00963021672            0.000415452494           
       1.266063             0.00948091656            0.000419902685           
       1.268703             0.00960962716            0.000412092302           
       1.271344             0.00937704176            0.000415940837           
       1.273984              0.0100557865            0.000424007481           
       1.276624             0.00950483645            0.000409713126           
       1.279265             0.00916898936            0.000403288147           
       1.281905              0.0104612251            0.000433425731           
       1.284546             0.00923011099            0.000402676566           
       1.287186             0.00962470793            0.000411588941           
       1.289826             0.00957355147             0.00041262235           
       1.292467             0.00936905232            0.000400906138           
       1.295107             0.00928014924            0.000406032438           
       1.297747               0.010175352             0.00041401357           
       1.300388             0.00873030469            0.000393338189           
       1.303028              0.0100653471            0.000411603626           
       1.305669              0.0100528679            0.000416663002           
       1.308309              0.0105203457            0.000419831769           
       1.310949              0.0102845986            0.000420274983           
       1.313590             0.00938837447             0.00039533154           
       1.316230              0.0101908698            0.000419295003           
       1.318871               0.010340292            0.000413245988           
       1.321511             0.00966409088            0.000401507534           
       1.324151              0.0102902698            0.000415948236           
       1.326792              0.0100787203            0.000408315861           
       1.329432              0.0105098308            0.000419132111           
       1.332072              0.0100284892            0.000402401089           
       1.334713             0.00970100497            0.000400684644           
       1.337353             0.00990903828            0.000398728896           
       1.339994             0.00949406128            0.000395849618           
       1.342634              0.0106297208             0.00040942691           
       1.345274              0.0112285946            0.000426303616           
       1.347915              0.0113363737            0.000429483477           
       1.350555              0.0104628052            0.000410992062           
       1.353195              0.0110299262            0.000413910973           
       1.355836              0.0114621617            0.000429904286           
       1.358476              0.0107561877            0.000415283364           
       1.361117              0.0105344464            0.000400670665           
       1.363757              0.0103628557            0.000410564024           
       1.366397              0.0100575265            0.000391874865           
       1.369038             0.00906899669            0.000379961861           
       1.371678              0.0107293998            0.000404938449           
       1.374319              0.0102494664            0.000398917215           
       1.376959             0.00947714864            0.000378312385           
       1.379599             0.00991983713            0.000394591564           
       1.382240              0.0106793202            0.000401642054           
       1.384880              0.0103523346            0.000400300662           
       1.387520              0.0100519206            0.000389837909           
       1.390161              0.0103676407            0.000394836698           
       1.392801              0.0106937553            0.000403388449           
       1.395442              0.0104018026            0.000393721624           
       1.398082              0.0107023417              0.0004007357           
       1.400722              0.0104595904            0.000394375163           
       1.403363              0.0101927215            0.000392924289           
       1.406003              0.0104202441            0.000387530116           
       1.408644              0.0100750053            0.000389056098           
       1.411284              0.0107912009            0.000400438817           
       1.413924              0.0105165267             0.00039043406           
       1.416565              0.0100004749            0.000380286592           
       1.419205             0.00966616205            0.000377558994           
       1.421845             0.00993489165            0.000377959182           
       1.424486              0.0103771982            0.000387986366           
       1.427126              0.0102918338            0.000386143467           
       1.429767             0.00999348742            0.000374641883           
       1.432407              0.0101694176            0.000387445654           
       1.435047               0.010416215            0.000380335441           
       1.437688              0.0102230098             0.00038513561           
       1.440328              0.0106371734            0.000385246511           
       1.442968             0.00993326196            0.000377435048           
       1.445609              0.0102889573            0.000377815052           
       1.448249             0.00991119469            0.000373212024           
       1.450890              0.0105059304            0.000381505435           
       1.453530              0.0100267432            0.000375464111           
       1.456170             0.00973832163            0.000369191495           
       1.458811              0.0105114597            0.000380515341           
       1.461451              0.0100259768            0.000374355984           
       1.464092             0.00969486403            0.000364913643           
       1.466732              0.0109050337            0.000384645604           
       1.469372              0.0101686289             0.00037028953           
       1.472013             0.00968838382            0.000367906227           
       1.474653              0.0103510491            0.000370890365           
       1.477293             0.00919956207            0.000355538207           
       1.479934              0.0100373906            0.000367488399           
       1.482574              0.0105017192            0.000374964604           
       1.485215               0.010578039            0.000377293672           
       1.487855             0.00985195156            0.000364039365           
       1.490495              0.0099730329             0.00036548123           
       1.493136              0.0101947358            0.000364675318           
       1.495776             0.00978577726            0.000363515187           
       1.498416              0.0102755589            0.000365264513           
       1.501057              0.0096101846            0.000356278937           
       1.503697             0.00984680205            0.000357170902           
       1.506338              0.0100047762            0.000362672234           
       1.508978              0.0102082912            0.000364179355           
       1.511618              0.0102928335            0.000365499456           
       1.514259              0.0100136795            0.000361160091           
       1.516899             0.00967311845            0.000355130818           
       1.519540             0.00945633975            0.000349180399           
       1.522180              0.0104929419            0.000363227897           
       1.524820              0.0102971026            0.000367089835           
       1.527461             0.00955752445            0.000345837652           
       1.530101              0.0100544981            0.000358382681           
       1.532741             0.00968118651            0.000350000441           
       1.535382              0.0100129167            0.000356730271           
       1.538022              0.0095534617            0.000345366732           
       1.540663             0.00921784277            0.000342452239           
       1.543303                0.00990019            0.000350484431           
       1.545943             0.00999256855            0.000354089195           
       1.548584             0.00926696737            0.000342806797           
       1.551224             0.00997834647            0.000346601656           
       1.553864             0.00992547184             0.00035471252           
       1.556505             0.00939521364            0.000339798609           
       1.559145             0.00946016377            0.000341759376           
       1.561786             0.00921161993            0.000335712242           
       1.564426             0.00903068278            0.000332098577           
       1.567066             0.00940273484            0.000336225613           
       1.569707             0.00899210975            0.000333562256           
       1.572347             0.00984184865            0.000344439494           
       1.574988             0.00905409694            0.000329060445           
       1.577628             0.00908838997             0.00033710577           
       1.580268              0.0096402825            0.000335208838           
       1.582909             0.00953914556            0.000339682645           
       1.585549             0.00910166354            0.000328701213           
       1.588189             0.00862337619            0.000323521637           
       1.590830             0.00903982502            0.000325555487           
       1.593470             0.00877222408            0.000323319602           
       1.596111             0.00829160749            0.000311621642           
       1.598751             0.00889868253            0.000326128119           
       1.601391              0.0088002462            0.000322245751           
       1.604032             0.00915695386            0.000325966783           
       1.606672             0.00892922469            0.000328366507           
       1.609312             0.00949805667            0.000328587237           
       1.611953             0.00839884441            0.000313467025           
       1.614593             0.00838550379            0.000310835722           
       1.617234             0.00809694415            0.000307172061           
       1.619874             0.00832197024             0.00030774768           
       1.622514             0.00848771362            0.000313545915           
       1.625155             0.00866324513            0.000315988102           
       1.627795             0.00824935998             0.00030523169           
       1.630436             0.00801315505            0.000303853855           
       1.633076              0.0078807324            0.000299801736           
       1.635716             0.00867545527            0.000314006743           
       1.638357             0.00830953897            0.000306007579           
       1.640997             0.00823578372            0.000307028944           
       1.643637             0.00888036032            0.000312897363           
       1.646278             0.00802830823            0.000301961197           
       1.648918             0.00897860638            0.000315215986           
       1.651559             0.00857459609            0.000311915557           
       1.654199             0.00854137244             0.00030704346           
       1.656839             0.00784058971            0.000294098924           
       1.659480             0.00811092534            0.000301760551           
       1.662120             0.00820100433             0.00029936549           
       1.664761             0.00916543788            0.000319905514           
       1.667401             0.00875156098            0.000309687076           
       1.670041             0.00850019328            0.000305556433           
       1.672682             0.00797221647            0.000293130211           
       1.675322              0.0081669086            0.000301933658           
       1.677962             0.00833137077            0.000298902137           
       1.680603             0.00890972882            0.000311846139           
       1.683243             0.00779912616            0.000289605209           
       1.685884             0.00851106544            0.000303686069           
       1.688524             0.00842089236            0.000301223158           
       1.691164             0.00837652558            0.000299656402           
       1.693805              0.0080494334             0.00029612298           
       1.696445             0.00860639104            0.000301946529           
       1.699085             0.00791058057            0.000290639143           
       1.701726             0.00875960875            0.000301860382           
       1.704366             0.00750209497            0.000286151408           
       1.707007              0.0083197203            0.000294911077           
       1.709647             0.00860953616            0.000303731255           
       1.712287             0.00877952791            0.000301589317           
       1.714928             0.00782690276            0.000287620943           
       1.717568             0.00857395902            0.000298266281           
       1.720209             0.00795376147            0.000289050223           
       1.722849             0.00793112939            0.000289101489           
       1.725489             0.00807295433            0.000287025939           
       1.728130             0.00785850124            0.000288952769           
       1.730770             0.00799066009            0.000285213446           
       1.733410             0.00821656592            0.000293013758           
       1.736051             0.00804531927            0.000285443747           
       1.738691              0.0083061384            0.000292994125           
       1.741332             0.00832520629            0.000291524551           
       1.743972             0.00840980699            0.000293110719           
       1.746612              0.0075998611            0.000278702854           
       1.749253             0.00781682447            0.000283874625           
       1.751893             0.00815709935            0.000288247717           
       1.754533             0.00760334446            0.000274472249           
       1.757174             0.00799609486            0.000286734501           
       1.759814             0.00836258667            0.000288761476           
       1.762455             0.00858073383             0.00029499377           
       1.765095             0.00816105119            0.000283649185           
       1.767735             0.00768553512            0.000279938885           
       1.770376              0.0081137719            0.000283270235           
       1.773016             0.00832149621            0.000287326131           
       1.775657             0.00827092152            0.000287038548           
       1.778297             0.00783837586            0.000280799102           
       1.780937              0.0082920296            0.000287462857           
       1.783578             0.00793104798            0.000279815959           
       1.786218             0.00790852675            0.000283877214           
       1.788858             0.00802445332            0.000278845736           
       1.791499             0.00842932796            0.000291060992           
       1.794139              0.0083614288            0.000284533327           
       1.796780             0.00873369902            0.000292526276           
       1.799420             0.00878394782            0.000292993083           
       1.802060             0.00879095033            0.000289504774           
       1.804701             0.00910990475            0.000298663685           
       1.807341             0.00898941211            0.000293815239           
       1.809981             0.00909152592            0.000297441654           
       1.812622             0.00888656227             0.00029246754           
       1.815262             0.00951258199            0.000303672691           
       1.817903             0.00857551065            0.000284765652           
       1.820543             0.00825972362            0.000282927635           
       1.823183             0.00892368809            0.000289548344           
       1.825824             0.00822584488            0.000282176985           
       1.828464             0.00840659282            0.000284385073           
       1.831105             0.00832597412            0.000284113865           
       1.833745             0.00823466222            0.000282375253           
       1.836385              0.0085224946            0.000286150626           
       1.839026             0.00863394697            0.000292345168           
       1.841666             0.00860886413            0.000288129709           
       1.844306             0.00811448743            0.000283265809           
       1.846947             0.00859525217            0.000287790019           
       1.849587             0.00868346985            0.000293186353           
       1.852228             0.00806953184            0.000279625934           
       1.854868             0.00855110226            0.000293128085           
       1.857508             0.00842052248            0.000285510289           
       1.860149             0.00886167803            0.000295241515           
       1.862789             0.00880721935            0.000295635327           
       1.865429             0.00838619315            0.000289352159           
       1.868070             0.00851174744            0.000290502843           
       1.870710              0.0086827937            0.000294206242           
       1.873351             0.00855796764            0.000293948484           
       1.875991             0.00846287299            0.000293891971           
       1.878631             0.00800887014            0.000283242862           
       1.881272             0.00885085409            0.000297062222           
       1.883912             0.00827551853            0.000290613731           
       1.886553             0.00825480544            0.000286768123           
       1.889193             0.00860517654            0.000296172955           
       1.891833             0.00853547732            0.000291614325           
       1.894474             0.00852261735            0.000293700801           
       1.897114             0.00907804896               0.000300769           
       1.899754             0.00890347545            0.000301203515           
       1.902395             0.00890334577            0.000301265533           
       1.905035             0.00910304951            0.000303431716           
       1.907676             0.00877433204            0.000298249107           
       1.910316             0.00853791981            0.000296079606           
       1.912956             0.00828228938            0.000291601933           
       1.915597              0.0087634347            0.000296825303           
       1.918237             0.00893838789            0.000304324072           
       1.920878             0.00881399605            0.000296850885           
       1.923518             0.00821322787            0.000294168954           
       1.926158             0.00868703972            0.000295583166           
       1.928799             0.00853401949            0.000296861384           
       1.931439             0.00890979096            0.000300895866           
       1.934079               0.008544151            0.000297641062           
       1.936720             0.00847156776            0.000294629741           
       1.939360             0.00816587785            0.000292053044           
       1.942001             0.00809022007            0.000289578637           
       1.944641             0.00845579357            0.000294773248           
       1.947281             0.00805865283            0.000289158043           
       1.949922             0.00809117206            0.000290103523           
       1.952562             0.00821223348            0.000294780718           
       1.955202             0.00841536673            0.000290906883           
       1.957843             0.00816330676            0.000295618797           
       1.960483              0.0083644656            0.000294465839           
       1.963124             0.00849851726            0.000296595957           
       1.965764             0.00866837365            0.000299652359           
       1.968404             0.00859504234            0.000303717906           
       1.971045             0.00796504359            0.000285046136           
       1.973685             0.00843304374            0.000298774177           
       1.976326             0.00821461833            0.000293593862           
       1.978966             0.00827161491            0.000296004736           
       1.981606             0.00829608315            0.000293307176           
       1.984247             0.00821012262            0.000294327917           
       1.986887             0.00812893563            0.000295608071           
       1.989527             0.00815531997            0.000289918905           
       1.992168             0.00808448927             0.00029562159           
       1.994808             0.00818792699            0.000294046299           
       1.997449             0.00760287593            0.000282930871           
       2.000089             0.00760613067            0.000281325074           
       2.002729             0.00815919427            0.000298050251           
       2.005370             0.00783815708            0.000286574575           
       2.008010             0.00817862639            0.000296618957           
       2.010650             0.00810099506            0.000294363349           
       2.013291             0.00753538438             0.00028551716           
       2.015931             0.00819340402             0.00029559169           
       2.018572             0.00778971051            0.000292045584           
       2.021212             0.00766084142            0.000287020527           
       2.023852             0.00807097636            0.000296151017           
       2.026493             0.00811618981            0.000295677911           
       2.029133             0.00786914071            0.000288922087           
       2.031774              0.0076016246            0.000286722418           
       2.034414             0.00717770497            0.000276950202           
       2.037054             0.00762210445            0.000288993594           
       2.039695              0.0079755172            0.000289794642           
       2.042335             0.00748690687            0.000285556619           
       2.044975             0.00732500083            0.000280194735           
       2.047616             0.00694915361            0.000274081101           
       2.050256             0.00840307084            0.000297847032           
       2.052897             0.00754307529            0.000290552231           
       2.055537              0.0075344081            0.000282468226           
       2.058177             0.00751458374            0.000284588202           
       2.060818             0.00737912169            0.000282858105           
       2.063458             0.00778081502            0.000290855039           
       2.066098             0.00775573195             0.00028909718           
       2.068739             0.00789214579            0.000294669246           
       2.071379             0.00757070107            0.000284343931           
       2.074020             0.00738258215            0.000284634062           
       2.076660             0.00789555148            0.000292361433           
       2.079300             0.00754728749            0.000285799438           
       2.081941             0.00757539992            0.000288071963           
       2.084581              0.0077560005            0.000291701528           
       2.087222             0.00781568725            0.000293021261           
       2.089862             0.00728708249            0.000279412172           
       2.092502             0.00762983203            0.000291102707           
       2.095143              0.0073893383             0.00028238386           
       2.097783              0.0075810518            0.000290375938           
       2.100423              0.0073358091            0.000280163534           
       2.103064             0.00713866066            0.000281145016           
       2.105704             0.00804757963            0.000297365121           
       2.108345             0.00720951945            0.000282748182           
       2.110985             0.00749438968            0.000284231026           
       2.113625             0.00764984956             0.00029168834           
       2.116266             0.00689285311            0.000274831024           
       2.118906             0.00787478005            0.000293541541           
       2.121546             0.00757449046            0.000287661737           
       2.124187             0.00779899207            0.000295931006           
       2.126827             0.00717915363            0.000279474968           
       2.129468             0.00748787951            0.000288399421           
       2.132108             0.00760858031            0.000290112993           
       2.134748             0.00744349072             0.00028586691           
       2.137389             0.00725928358            0.000284672022           
       2.140029             0.00733936575            0.000285542808           
       2.142670              0.0073125063            0.000285485553           
       2.145310             0.00706294947            0.000281643747           
       2.147950             0.00742031939            0.000289797102           
       2.150591             0.00699679626            0.000278824611           
       2.153231             0.00737074813            0.000290409626           
       2.155871             0.00737729105            0.000286342472           
       2.158512             0.00706853739            0.000285336995           
       2.161152             0.00717548634            0.000280306117           
       2.163793             0.00715082533            0.000284377143           
       2.166433             0.00713109282            0.000279059943           
       2.169073             0.00798301103            0.000302152387           
       2.171714             0.00747052595             0.00028634222           
       2.174354             0.00730358599            0.000287451201           
       2.176995             0.00727333643            0.000284475799           
       2.179635             0.00693706838            0.000283079728           
       2.182275              0.0077054389             0.00029242308           
       2.184916             0.00739604368            0.000292547098           
       2.187556             0.00743958213            0.000288683317           
       2.190196             0.00729725907            0.000290402535           
       2.192837             0.00728355331            0.000286952606           
       2.195477             0.00719295094            0.000287913003           
       2.198118             0.00726967085            0.000284100711           
       2.200758             0.00730560382            0.000289224753           
       2.203398             0.00726128843             0.00028356443           
       2.206039             0.00722480333            0.000287174473           
       2.208679             0.00783249815            0.000296081135           
       2.211319             0.00753532587            0.000291776977           
       2.213960             0.00778685026            0.000293453023           
       2.216600             0.00722012924            0.000289230531           
       2.219241             0.00762394241            0.000292887727           
       2.221881             0.00742508857            0.000290549455           
       2.224521             0.00741116657            0.000289270117           
       2.227162             0.00788886937            0.000303134987           
       2.229802             0.00729637173            0.000286797049           
       2.232443             0.00723633906            0.000286737625           
       2.235083             0.00697457442            0.000279815703           
       2.237723             0.00694304322            0.000281321986           
       2.240364              0.0070391449            0.000281821459           
       2.243004             0.00757842847            0.000293301139           
       2.245644             0.00725751194            0.000286361087           
       2.248285             0.00696543593            0.000282360809           
       2.250925             0.00757972092            0.000293171176           
       2.253566             0.00677337546            0.000277816399           
       2.256206             0.00704181731            0.000282419588           
       2.258846             0.00735466696            0.000288627572           
       2.261487             0.00711953667            0.000284467593           
       2.264127             0.00741643952            0.000293085634           
       2.266767             0.00708750691            0.000281881592           
       2.269408             0.00692562807            0.000281953307           
       2.272048             0.00716645465            0.000285049339           
       2.274689             0.00705467571            0.000283929687           
       2.277329             0.00726361482            0.000287720766           
       2.279969             0.00777844679            0.000298645229           
       2.282610             0.00702314965            0.000281008239           
       2.285250             0.00742441329            0.000293468432           
       2.287891             0.00712735077            0.000284635864           
       2.290531             0.00674618351            0.000278285778           
       2.293171             0.00731265033            0.000289719635           
       2.295812             0.00682221799            0.000278350582           
       2.298452             0.00693389139            0.000282416796           
       2.301092             0.00691343403            0.000283791196           
       2.303733             0.00677908097            0.000275461691           
       2.306373             0.00691756351            0.000285067045           
       2.309014             0.00720802056            0.000285382823           
       2.311654             0.00693789798            0.000282641546           
       2.314294             0.00693495075            0.000281964593           
       2.316935             0.00696254199            0.000283641566           
       2.319575             0.00691295601            0.000281571399           
       2.322215             0.00717848294            0.000291016693           
       2.324856             0.00721016583             0.00028433397           
       2.327496             0.00706809034            0.000288418053           
       2.330137             0.00688836392            0.000279476428           
       2.332777             0.00784426221            0.000301500034           
       2.335417             0.00728827417            0.000289746318           
       2.338058             0.00701633306            0.000285427218           
       2.340698              0.0070898109            0.000284092932           
       2.343339             0.00785982107            0.000304830825           
       2.345979             0.00656853075            0.000273106989           
       2.348619              0.0075286728            0.000297908545           
       2.351260             0.00768788228            0.000294642704           
       2.353900             0.00679071512            0.000282783106           
       2.356540             0.00699827602            0.000283124091           
       2.359181             0.00702471385            0.000287451496           
       2.361821             0.00709533624            0.000285372862           
       2.364462             0.00711380509            0.000290519622           
       2.367102             0.00623971443             0.00026421831           
       2.369742             0.00653122526            0.000280007229           
       2.372383             0.00698463188            0.000281122369           
       2.375023             0.00706297836             0.00029006002           
       2.377663             0.00727720835              0.0002881694           
       2.380304             0.00627507363            0.000271305052           
       2.382944             0.00739782849            0.000291696919           
       2.385585             0.00699727788            0.000286372074           
       2.388225             0.00731920656            0.000291562333           
       2.390865             0.00651121015            0.000275702659           
       2.393506             0.00666164314            0.000277584189           
       2.396146             0.00668607235            0.000279014433           
       2.398787             0.00698477045            0.000285428222           
       2.401427             0.00685347442            0.000281016085           
       2.404067             0.00731410139            0.000294737124           
       2.406708             0.00700980785            0.000284914242           
       2.409348             0.00753935317            0.000297702853           
       2.411988             0.00696212938            0.000285166002           
       2.414629             0.00736492391            0.000294258827           
       2.417269              0.0072686965            0.000289675392           
       2.419910             0.00716253854            0.000291178542           
       2.422550             0.00706676628            0.000284834898           
       2.425190             0.00672917228            0.000286699235           
       2.427831             0.00716690888            0.000284749735           
       2.430471             0.00708570505            0.000291408327           
       2.433112             0.00684641965             0.00027968659           
       2.435752             0.00765666116            0.000303261585           
       2.438392             0.00714519671            0.000288033539           
       2.441033             0.00704380569            0.000287293107           
       2.443673              0.0073868815            0.000294992024           
       2.446313             0.00729039814            0.000291497776           
       2.448954             0.00708154153            0.000289812888           
       2.451594             0.00678503337            0.000281978564           
       2.454235             0.00733991527            0.000292369577           
       2.456875             0.00752854811            0.000297602493           
       2.459515              0.0079775947            0.000306821686           
       2.462156             0.00736732638             0.00029333271           
       2.464796             0.00761291692            0.000303441488           
       2.467436             0.00774353939            0.000299616607           
       2.470077             0.00761948864            0.000301305361           
       2.472717             0.00819807289            0.000308625215           
       2.475358             0.00776344336            0.000303735384           
       2.477998             0.00752779242            0.000297494402           
       2.480638             0.00761603992            0.000299960136           
       2.483279               0.007954617            0.000307872075           
       2.485919             0.00698465804             0.00028647164           
       2.488560             0.00726950161            0.000293466866           
       2.491200             0.00709316021            0.000289488156           
       2.493840             0.00662928053            0.000278338387           
       2.496481             0.00681256583             0.00028584964           
       2.499121             0.00716541265            0.000289255501           
       2.501761             0.00710638839             0.00029295313           
       2.504402             0.00700661022            0.000285314619           
       2.507042             0.00693742975            0.000288621977           
       2.509683             0.00681862076            0.000283534024           
       2.512323             0.00811044521            0.000310439135           
       2.514963              0.0111442083            0.000364620928           
       2.517604              0.0250097411             0.00054408658           
       2.520244              0.0430239374            0.000713778461           
       2.522884               0.010635058            0.000354101071           
       2.525525              0.0089270732            0.000327087999           
       2.528165              0.0233318047            0.000526376177           
       2.530806              0.0278752198             0.00057318909           
       2.533446              0.0163969623            0.000443519667           
       2.536086              0.0156493471            0.000429654134           
       2.538727              0.0108133368             0.00035943972           
       2.541367             0.00964936283             0.00033857267           
       2.544008              0.0091328379            0.000329665272           
       2.546648             0.00854433296            0.000319228957           
       2.549288             0.00733896196             0.00029589868           
       2.551929             0.00734914777            0.000297082029           
       2.554569             0.00707143337            0.000288751795           
       2.557209             0.00664682763            0.000283111593           
       2.559850             0.00685200729            0.000284142632           
       2.562490              0.0068247873            0.000285642467           
       2.565131             0.00731864508             0.00029631151           
       2.567771             0.00731379848            0.000294643443           
       2.570411             0.00705224128            0.000292847735           
       2.573052             0.00684024971            0.000285046012           
       2.575692             0.00717428604            0.000292697408           
       2.578332             0.00731946956            0.000294770833           
       2.580973             0.00726223775            0.000295996794           
       2.583613             0.00670206628            0.000281760649           
       2.586254             0.00707760972            0.000292108743           
       2.588894             0.00697386394            0.000288413188           
       2.591534             0.00687551973            0.000286899139           
       2.594175             0.00697413828            0.000290626655           
       2.596815             0.00724808463            0.000293524962           
       2.599456             0.00721773854            0.000295306367           
       2.602096             0.00699413595            0.000289608287           
       2.604736             0.00697842599            0.000290041542           
       2.607377             0.00695119405            0.000288368085           
       2.610017             0.00708244336            0.000290976076           
       2.612657             0.00714063955            0.000294232965           
       2.615298             0.00718501377            0.000292258742           
       2.617938             0.00703542168            0.000291730283           
       2.620579             0.00713375513            0.000291362318           
       2.623219             0.00688166535            0.000290745495           
       2.625859             0.00675557046            0.000283214407           
       2.628500             0.00724702038            0.000298023232           
       2.631140             0.00690256315            0.000285725275           
       2.633780             0.00763092995            0.000304280967           
       2.636421             0.00687054095            0.000286095805           
       2.639061             0.00724557273            0.000297313195           
       2.641702              0.0067876888            0.000284689325           
       2.644342             0.00747273331            0.000301160485           
       2.646982              0.0073683947            0.000298796719           
       2.649623             0.00645849574            0.000281417327           
       2.652263             0.00680525919            0.000286574704           
       2.654904             0.00724502202            0.000297294658           
       2.657544             0.00696191292            0.000289377802           
       2.660184             0.00722318694            0.000295134857           
       2.662825             0.00741776848            0.000299800559           
       2.665465             0.00713186425            0.000294509847           
       2.668105             0.00729030804            0.000297881239           
       2.670746             0.00655824763            0.000280139115           
       2.673386             0.00703282783            0.000293613931           
       2.676027              0.0069743075            0.000289904179           
       2.678667             0.00732365111            0.000298620538           
       2.681307              0.0071714219            0.000293177019           
       2.683948             0.00789524262            0.000310671812           
       2.686588             0.00786760956            0.000307281746           
       2.689229              0.0070452923            0.000293389931           
       2.691869             0.00776698726            0.000304975737           
       2.694509             0.00736314398            0.000301013528           
       2.697150             0.00701992705            0.000289223284           
       2.699790             0.00798234539            0.000314819095           
       2.702430              0.0067677847            0.000284322695           
       2.705071             0.00713577047            0.000295945755           
       2.707711             0.00629458102            0.000275199103           
       2.710352             0.00677641479            0.000287163024           
       2.712992             0.00688356494            0.000290365462           
       2.715632              0.0065905021            0.000282501045           
       2.718273             0.00647296431            0.000280900037           
       2.720913             0.00665690792            0.000285338874           
       2.723553             0.00682226186            0.000287857212           
       2.726194             0.00681024311            0.000288990604           
       2.728834             0.00711397703             0.00029273915           
       2.731475             0.00653097575             0.00028293895           
       2.734115             0.00711278528            0.000293513419           
       2.736755             0.00659281003            0.000284449274           
       2.739396             0.00733083526            0.000298362092           
       2.742036             0.00744210321            0.000302669726           
       2.744677             0.00706888012            0.000295413912           
       2.747317             0.00778222523            0.000308455488           
       2.749957             0.00710469521            0.000296860604           
       2.752598             0.00678488061            0.000290975759           
       2.755238             0.00671389488            0.000289319161           
       2.757878             0.00686942281            0.000291817786           
       2.760519             0.00709418615            0.000293422239           
       2.763159             0.00693320425            0.000294790509           
       2.765800             0.00682489701            0.000287524384           
       2.768440             0.00751402603            0.000305665753           
       2.771080             0.00714705562            0.000295596097           
       2.773721             0.00653840564            0.000286197944           
       2.776361             0.00646165823            0.000281457531           
       2.779001             0.00622392929            0.000279135137           
       2.781642             0.00645446066            0.000282318024           
       2.784282             0.00653028307            0.000284070485           
       2.786923             0.00671383541             0.00028584452           
       2.789563              0.0063331568            0.000278180184           
       2.792203             0.00650118809            0.000283640446           
       2.794844             0.00675182547            0.000287741015           
       2.797484             0.00672079711            0.000287483584           
       2.800125             0.00618797669            0.000275496066           
       2.802765              0.0067406453            0.000292866079           
       2.805405             0.00644253998            0.000282183856           
       2.808046             0.00696686138            0.000297941441           
       2.810686             0.00705162906             0.00029655456           
       2.813326             0.00719946329            0.000303354291           
       2.815967             0.00693123293            0.000295773821           
       2.818607             0.00744887401            0.000309684595           
       2.821248             0.00676353018            0.000291414917           
       2.823888             0.00698885957            0.000301000743           
       2.826528             0.00624279636            0.000282784202           
       2.829169             0.00643231345            0.000285777187           
       2.831809             0.00633284595             0.00028380743           
       2.834449             0.00703644938            0.000293936557           
       2.837090             0.00615117608            0.000276478677           
       2.839730             0.00660356328            0.000284430784           
       2.842371             0.00677769636            0.000290164254           
       2.845011             0.00661516467            0.000286024676           
       2.847651             0.00618556875            0.000277089348           
       2.850292             0.00657563552             0.00028406926           
       2.852932             0.00680603808            0.000289521388           
       2.855573             0.00685414272            0.000293094461           
       2.858213             0.00693311643            0.000291470659           
       2.860853             0.00682731364            0.000291403036           
       2.863494             0.00608221019              0.0002757048           
       2.866134             0.00685661868             0.00029683697           
       2.868774             0.00689331589            0.000293074263           
       2.871415             0.00718467481            0.000302165184           
       2.874055              0.0070129062            0.000300010066           
       2.876696             0.00674961166            0.000291674081           
       2.879336             0.00662559276             0.00029090029           
       2.881976             0.00662297824            0.000290603516           
       2.884617             0.00671163843             0.00029091705           
       2.887257             0.00668406512            0.000288294599           
       2.889897             0.00643028236            0.000286009724           
       2.892538             0.00707095837            0.000297840163           
       2.895178             0.00671047129            0.000287189845           
       2.897819             0.00686079386            0.000293375355           
       2.900459             0.00661907157             0.00028577501           
       2.903099             0.00712353842            0.000298013076           
       2.905740             0.00712930189            0.000294805721           
       2.908380             0.00665959869            0.000288727186           
       2.911021             0.00597905858            0.000274097366           
       2.913661             0.00700789731            0.000293478643           
       2.916301             0.00672723418            0.000291632296           
       2.918942             0.00683434764             0.00028951032           
       2.921582             0.00667088966            0.000289028153           
       2.924222             0.00635191485            0.000280397599           
       2.926863             0.00667190283            0.000288136885           
       2.929503             0.00690992635            0.000296486705           
       2.932144             0.00659199845            0.000284836176           
       2.934784             0.00779579009            0.000311070202           
       2.937424             0.00710061242            0.000297425895           
       2.940065             0.00668642782             0.00028885592           
       2.942705             0.00665776769            0.000289112011           
       2.945346              0.0066360945            0.000286936205           
       2.947986             0.00647494589            0.000284422023           
       2.950626             0.00796843335            0.000316493587           
       2.953267             0.00953085176            0.000342456912           
       2.955907              0.0099905497            0.000355253952           
       2.958547             0.00943324282            0.000341663495           
       2.961188             0.00850157257            0.000327184379           
       2.963828             0.00779073373            0.000311432503           
       2.966469             0.00741574707            0.000303920758           
       2.969109             0.00738210161            0.000304781339           
       2.971749             0.00752747979            0.000306862545           
       2.974390             0.00819735524             0.00032110424           
       2.977030              0.0100955669            0.000355669975           
       2.979670             0.00916493801            0.000336695711           
       2.982311             0.00717597303            0.000300079425           
       2.984951             0.00723327805            0.000302054198           
       2.987592             0.00778916371            0.000312388031           
       2.990232             0.00684113195             0.00029350839           
       2.992872             0.00730479476            0.000300918845           
       2.995513             0.00843852249            0.000325969283           
       2.998153             0.00852552337             0.00032975917           
       3.000794              0.0115940351            0.000378954954           
       3.003434              0.0334255048            0.000650264558           
       3.006074              0.0522281762            0.000815456744           
       3.008715              0.0292514882            0.000614917675           
       3.011355              0.0229140411            0.000549904196           
       3.013995              0.0200182955             0.00051147067           
       3.016636              0.0296303959              0.0006234325           
       3.019276               0.133197295             0.00135339594           
       3.021917               0.285841509             0.00194899636           
       3.024557               0.140004082             0.00137490325           
       3.027197               0.107323649             0.00122399078           
       3.029838              0.0986560949             0.00116791342           
       3.032478              0.0639014052            0.000945564763           
       3.035118              0.0426108848            0.000776115044           
       3.037759              0.0937682068             0.00115334131           
       3.040399               0.134167294             0.00139538692           
       3.043040              0.0546816753            0.000899476853           
       3.045680              0.0590167103            0.000920059584           
       3.048320               0.128406515             0.00137890924           
       3.050961               0.283433761             0.00206919353           
       3.053601              0.0719157136              0.0010376774           
       3.056242              0.0498439093             0.00086943525           
       3.058882               0.204971833             0.00178933303           
       3.061522                0.15941117             0.00156705413           
       3.064163              0.0236589562             0.00060480023           
       3.066803              0.0236375185            0.000616215926           
       3.069443              0.0364781486            0.000760407191           
       3.072084              0.0798701637             0.00113519635           
       3.074724              0.0241588184            0.000628020018           
       3.077365              0.0113546635            0.000430240936           
       3.080005              0.0101650644            0.000411594128           
       3.082645             0.00970117786            0.000404140158           
       3.085286              0.0083694768             0.00037544656           
       3.087926             0.00833736853            0.000377109888           
       3.090566             0.00808631433            0.000375214281           
       3.093207             0.00774072659            0.000363142601           
       3.095847             0.00713425098            0.000355934222           
       3.098488             0.00717178181            0.000356222134           
       3.101128             0.00821338328            0.000383290239           
       3.103768             0.00918108074            0.000407524257           
       3.106409             0.00929338384            0.000412755322           
       3.109049              0.0103965761            0.000439960826           
       3.111690               0.012176092            0.000474252284           
       3.114330              0.0103913132            0.000442015841           
       3.116970              0.0138277631            0.000516985789           
       3.119611              0.0170356425            0.000570094408           
       3.122251              0.0121137878            0.000484674003           
       3.124891               0.010939438            0.000462818337           
       3.127532             0.00777361979            0.000397171766           
       3.130172             0.00751711777            0.000382529631           
       3.132813             0.00858257678            0.000417059914           
       3.135453             0.00890456155            0.000433772215           
       3.138093             0.00785025063            0.000397620157           
       3.140734             0.00701389245             0.00038283757           
       3.143374               0.006025117            0.000360252034           
       3.146014             0.00593342311             0.00035490516           
       3.148655             0.00593477412            0.000357740112           
       3.151295             0.00607546227            0.000364820483           
       3.153936             0.00603349137            0.000368925219           
       3.156576              0.0070254205            0.000393528201           
       3.159216              0.0063798994             0.00037808041           
       3.161857             0.00668009795            0.000391619113           
       3.164497             0.00681639311            0.000403935302           
       3.167138             0.00629862419            0.000378975292           
       3.169778             0.00596609496            0.000375495879           
       3.172418             0.00544597041             0.00036085115           
       3.175059             0.00609864917             0.00038686011           
       3.177699             0.00520369718            0.000355938005           
       3.180339             0.00623444658            0.000393080958           
       3.182980             0.00596597549            0.000389715305           
       3.185620             0.00633145507            0.000405862179           
       3.188261             0.00581676814            0.000383919561           
       3.190901             0.00592284057            0.000393373751           
       3.193541             0.00628082463            0.000406422199           
       3.196182             0.00651564288            0.000422562689           
       3.198822             0.00566590501            0.000389269396           
       3.201463             0.00589379889            0.000402154964           
       3.204103             0.00614405455            0.000416071818           
       3.206743             0.00554492913            0.000398607207           
       3.209384             0.00486504373             0.00037170654           
       3.212024             0.00550376387            0.000396759007           
       3.214664             0.00519824292            0.000392938949           
       3.217305             0.00634760409            0.000444342242           
       3.219945             0.00544062084            0.000407934148           
       3.222586             0.00571559696            0.000420482081           
       3.225226             0.00564923919            0.000427451687           
       3.227866             0.00535010359            0.000419198785           
       3.230507             0.00594849068            0.000447294942           
       3.233147             0.00593330634            0.000440116148           
       3.235787             0.00698778655             0.00047775668           
       3.238428             0.00607997611            0.000453514417           
       3.241068             0.00500750661            0.000419922657           
       3.243709             0.00598338407            0.000456472633           
       3.246349              0.0065281461            0.000474132273           
       3.248989               0.005946974            0.000462879043           
       3.251630             0.00596152878            0.000465495489           
       3.254270             0.00516388692            0.000446553609           
       3.256911             0.00517293472            0.000435746045           
       3.259551             0.00544197903            0.000456810024           
       3.262191             0.00554901588            0.000465524297           
       3.264832             0.00520943272            0.000455287358           
       3.267472             0.00606877796            0.000498375488           
       3.270112             0.00534704656             0.00046913475           
       3.272753              0.0056465948            0.000488020996           
       3.275393             0.00580159107            0.000497219841           
       3.278034             0.00511047735            0.000476171884           
       3.280674             0.00629867754            0.000530171422           
       3.283314             0.00527402504            0.000487815737           
       3.285955              0.0058173549             0.00052195038           
       3.288595             0.00523464921            0.000500643319           
       3.291235             0.00581403889            0.000530722268           
       3.293876             0.00598123817            0.000541486739           
       3.296516             0.00679090033            0.000588741806           
       3.299157             0.00526911113            0.000526435144           
       3.301797             0.00632818567            0.000577165443           
       3.304437             0.00542336978            0.000544327955           
       3.307078             0.00462258047            0.000507419197           
       3.309718             0.00501681988            0.000533891038           
       3.312359             0.00575111618            0.000583179396           
       3.314999             0.00515001366            0.000557651049           
       3.317639             0.00620173953            0.000618538262           
       3.320280             0.00444912036            0.000531548697           
       3.322920             0.00507050573            0.000575945419           
       3.325560             0.00519575402            0.000594273195           
       3.328201             0.00496302687            0.000583266671           
       3.330841             0.00649716907            0.000683584059           
       3.333482             0.00614880957            0.000673449328           
       3.336122              0.0056477777            0.000659456705           
       3.338762             0.00662665508            0.000720856519           
       3.341403             0.00577594596             0.00067924048           
       3.344043             0.00599186813            0.000718224895           
       3.346683             0.00522527344            0.000677511213           
       3.349324              0.0047414734            0.000655375236           
       3.351964             0.00551715768            0.000729681323           
       3.354605             0.00559580969            0.000743185537           
       3.357245             0.00586426215            0.000787545417           
       3.359885              0.0044124108            0.000683381097           
       3.362526             0.00519657132            0.000779543488           
       3.365166             0.00460556972            0.000724816908           
       3.367807             0.00453077375            0.000769564876           
       3.370447             0.00568194516            0.000862136269           
       3.373087             0.00547669156            0.000893311596           
       3.375728             0.00741314295             0.00103145336           
       3.378368             0.00429111473            0.000847985297           
       3.381008             0.00555820158            0.000956680655           
       3.383649             0.00458698566            0.000940550501           
       3.386289             0.00378378418            0.000854595649           
       3.388930             0.00525329299             0.00110589355           
       3.391570             0.00573929862             0.00115640241           
       3.394210             0.00711588826             0.00137967709           
       3.396851             0.00585737476             0.00135593065           
       3.399491             0.00602892665             0.00140061056           
       3.402131             0.00533106654             0.00155902202           
       3.404772             0.00484744164             0.00148726235           
       3.407412             0.00888834976               0.002499019           
       3.410053             0.00504947707             0.00196132238           
       3.412693             0.00285747555             0.00208744033           
       3.415333             0.00205359287             0.00216821431           
