################################################################################
# EDF_DataBlockID                     0.Image.Psd
# EDF_BinarySize                      2105344
# EDF_HeaderSize                      2560
# ByteOrder                           LowByteFirst
# DataType                            FloatValue
# Dim_1                               512
# Dim_2                               1028
# Image                               0
# HeaderID                            EH:000000:000000:000000
# Size                                2105344
# Center_1                            304.9000
# Center_2                            588.7000
# Comment                             Xenocs_Cell_Window - front_window_open_only
# DDummy                              0.6
# Date                                2025-10-17T18:34:42
# Delta                               21.910000
# Dummy                               -1.5
# ExposureTime                        360
# Gamma                               15.360000
# Intensity1                          9.97674e-10
# PSize_1                             7.5e-05
# PSize_2                             7.5e-05
# Pressure                            0.0441303
# SampleDistance                      0.115750
# SampleEnvKind                       large
# SampleEnvPN                         ElectroChemical cell
# SampleEnvSN                         1141
# Thickness                           0
# Wavelength                          1.541891e-10
# Wavelength                          1.54189e-10
# aux                                 0
# aux_dial                            0.002375
# beamx                               588.429
# beamx_dial                          588.429
# beamz                               657.855
# beamz_dial                          657.855
# det0x                               -0.000396875
# det0x_dial                          6.36905
# det0xvd                             -0.0005
# det0xvd_dial                        -0.0005
# det0y                               450.002
# det0y_dial                          481.635
# det0z                               0
# det0z_dial                          1.2295
# det0zvd                             0
# det0zvd_dial                        0
# mag                                 1.818
# mag_dial                            1.818
# om                                  0.2499
# om_dial                             -0.610199
# phi                                 -0.0120535
# phi_dial                            0
# ry                                  0.599993
# ry_dial                             0.599993
# s1bot                               0.8
# s1bot_dial                          -1.66094
# s1hl                                0.8
# s1hl_dial                           -0.608437
# s1hr                                0.8
# s1hr_dial                           0.970938
# s1top                               0.8
# s1top_dial                          -0.461562
# s2bot                               0.45
# s2bot_dial                          1.36109
# s2hl                                0.45
# s2hl_dial                           -0.83375
# s2hr                                0.45
# s2hr_dial                           -0.118594
# s2top                               0.45
# s2top_dial                          1.44734
# w2theta                             32
# w2theta_dial                        32
# waxsch                              19.2605
# waxsch_dial                         -32.7238
# waxsh                               137.085
# waxsh_dial                          -43.5335
# waxsth                              26.0607
# waxsth_dial                         -19.4068
# waxsz                               67.0407
# waxsz_dial                          -23.7962
# wind                                65.9854
# wind_dial                           66.0041
# wpsi                                124
# wpsi_dial                           124
# wstod                               115
# wstod_dial                          115
# x                                   0
# x_dial                              1.00969
# z                                   0
# z_dial                              13.3172
# CountCutoff                         6807993
# DetectorModel                       Dectris EIGER2 Si 500K, S/N E-01-0554
# ThresholdSetting                    4023.88989258
# Saturation                          0
# FlatField                           Corrected
# BackgroundReductionExtra            0.02
# BackgroundCorrectionConstant        0.0026712
# Detector                            0
# Monitor                             0
# Pil_Roi0                            0
# SumForIntensity1                    3.59163e+08
# TransmittedFlux                     997674
# det                                 0
# mon                                 0
# pilai0                              3.59163e+08
# pilai1                              776432
# pilct0                              6.16086e+08
# pilct1                              776432
# pilroi0                             0
# pilroi1                             0
# sec                                 1
# title                               20251017__1_00004.edf
# usaxs0                              0
# Operation                           Azimuthal average I(q)
# Error_model                         ErrorModel.poisson
# Geometrical_correction              True
# Transmission_correction             True
# Thickness_correction                False
# Binning mode                        Uniform
# Binning factor                      1.0
# Psi                                 0.0
# Omega                               0.2499
# MaskInvalidPixels                   True
# DetectorEdge                        3
# MaskFiles                           ['20251017__1_00233_mask.edf']
################################################################################
    q(A⁻¹)                Intensity(a.u.)            Sigma_I(a.u.)            
       0.690460             0.00691267703             0.00725827976           
       0.693100             0.00700481159             0.00326660442           
       0.695741             0.00731915664              0.0028209472           
       0.698381             0.00637226986             0.00246182786           
       0.701021             0.00618370956             0.00197924707           
       0.703662             0.00681187977             0.00192287607           
       0.706302             0.00395334002             0.00141473711           
       0.708942             0.00546783538             0.00147790086           
       0.711583             0.00590954534             0.00153615513           
       0.714223             0.00504138078             0.00123639436           
       0.716864             0.00463496573             0.00120975447           
       0.719504             0.00643325093             0.00131906466           
       0.722144             0.00570740746             0.00119993016           
       0.724785             0.00605143626             0.00121531447           
       0.727425             0.00681898169             0.00119662222           
       0.730065             0.00633034213             0.00118632164           
       0.732706             0.00620430348              0.0010561199           
       0.735346             0.00729092196             0.00123665988           
       0.737987             0.00372131551            0.000764707305           
       0.740627             0.00506463002            0.000977301696           
       0.743267             0.00551281911            0.000877055727           
       0.745908             0.00492057187            0.000888037406           
       0.748548             0.00609330952            0.000921680279           
       0.751189             0.00580906026            0.000891447232           
       0.753829             0.00594572325            0.000910007873           
       0.756469             0.00733371705            0.000950571766           
       0.759110             0.00572667218            0.000868835565           
       0.761750             0.00668865078            0.000859357494           
       0.764390             0.00629193681            0.000894698176           
       0.767031             0.00683291172            0.000843684623           
       0.769671             0.00513563232            0.000775708139           
       0.772312             0.00570464428            0.000745009642           
       0.774952             0.00564676695            0.000794627982           
       0.777592             0.00587312343            0.000741230986           
       0.780233             0.00559389599            0.000762610965           
       0.782873             0.00640277263            0.000746085614           
       0.785513             0.00615069666            0.000777877445           
       0.788154             0.00683883265            0.000753399006           
       0.790794             0.00696987665            0.000787181533           
       0.793435             0.00627011905            0.000717122217           
       0.796075             0.00658008543            0.000738515369           
       0.798715             0.00674152191            0.000743252434           
       0.801356             0.00614947255            0.000690868619           
       0.803996             0.00587726079            0.000686197919           
       0.806637             0.00795776016            0.000754762748           
       0.809277              0.0066911303            0.000724042681           
       0.811917             0.00775648361            0.000737685765           
       0.814558             0.00623359743            0.000677474718           
       0.817198             0.00633196451            0.000651049533           
       0.819838             0.00637530877            0.000681434771           
       0.822479             0.00553937579            0.000585362487           
       0.825119             0.00587585195            0.000647646514           
       0.827760             0.00708312646            0.000658883537           
       0.830400             0.00607405157            0.000642868484           
       0.833040              0.0059465321            0.000593648019           
       0.835681             0.00588756973            0.000618586278           
       0.838321             0.00709195726            0.000635451683           
       0.840961              0.0068751076            0.000653968383           
       0.843602             0.00554132731            0.000553039967           
       0.846242             0.00628782539            0.000609914261           
       0.848883             0.00588178248            0.000573833115           
       0.851523             0.00762439487            0.000658228087           
       0.854163             0.00629987212            0.000591377183           
       0.856804             0.00523300035            0.000525190821           
       0.859444             0.00598662154            0.000565775297           
       0.862085             0.00728526037            0.000615051956           
       0.864725             0.00672517991             0.00058876751           
       0.867365             0.00582292676            0.000543927692           
       0.870006             0.00659623177             0.00058699705           
       0.872646             0.00717687531            0.000585640638           
       0.875286             0.00690699054            0.000594099524           
       0.877927             0.00629099328            0.000542868321           
       0.880567             0.00668784728            0.000570664055           
       0.883208             0.00671603762            0.000555350002           
       0.885848             0.00687783065            0.000576574012           
       0.888488             0.00660040008            0.000537047806           
       0.891129             0.00576600239            0.000527644983           
       0.893769             0.00692479462            0.000546580128           
       0.896410             0.00630495567            0.000537609885           
       0.899050             0.00597200994            0.000504489067           
       0.901690             0.00648965644            0.000536876449           
       0.904331             0.00637568585            0.000513562701           
       0.906971             0.00754864941            0.000577025435           
       0.909611             0.00646736994            0.000512648103           
       0.912252              0.0063519018            0.000516854657           
       0.914892             0.00738504483             0.00054318935           
       0.917533             0.00690709087            0.000537171266           
       0.920173             0.00685036848            0.000513160666           
       0.922813              0.0064651224            0.000520964918           
       0.925454             0.00779463372            0.000542889459           
       0.928094             0.00602585517            0.000487580448           
       0.930734             0.00703205649            0.000514147457           
       0.933375             0.00675863116            0.000514797707           
       0.936015             0.00713947045            0.000506254589           
       0.938656             0.00737493175            0.000536117542           
       0.941296             0.00606340113            0.000468613574           
       0.943936              0.0077010096            0.000537628749           
       0.946577             0.00672766703            0.000483943943           
       0.949217             0.00636361432            0.000487290289           
       0.951858             0.00651251894            0.000466034302           
       0.954498             0.00800283928             0.00054349945           
       0.957138             0.00760654321            0.000509285319           
       0.959779             0.00648988955            0.000480709829           
       0.962419              0.0070957857            0.000483897741           
       0.965059             0.00693407552            0.000491939362           
       0.967700             0.00633667163            0.000455063105           
       0.970340             0.00712600142            0.000496134242           
       0.972981             0.00734774482            0.000486427917           
       0.975621             0.00642352667            0.000464331013           
       0.978261             0.00798717738            0.000494018307           
       0.980902               0.006965028            0.000483291979           
       0.983542             0.00721520996             0.00047757266           
       0.986182             0.00720840274            0.000483633634           
       0.988823             0.00664854536             0.00044948632           
       0.991463             0.00698442373            0.000471704068           
       0.994104               0.007285507            0.000465524878           
       0.996744             0.00732618179            0.000481961073           
       0.999384             0.00707799096            0.000457648508           
       1.002025             0.00753112909            0.000485214569           
       1.004665             0.00684801959            0.000443733366           
       1.007306             0.00739580959            0.000476591523           
       1.009946             0.00704542735            0.000447270906           
       1.012586             0.00757410465            0.000477088574           
       1.015227             0.00781476493            0.000469939985           
       1.017867              0.0072757984            0.000466439384           
       1.020507             0.00751768295            0.000456280508           
       1.023148             0.00749520033            0.000461100637           
       1.025788             0.00798846779            0.000471157222           
       1.028429             0.00731477899             0.00046070872           
       1.031069             0.00749829661            0.000449403583           
       1.033709             0.00833279383            0.000482848848           
       1.036350             0.00825568692            0.000468007125           
       1.038990             0.00764317571            0.000461428428           
       1.041630             0.00734195665            0.000443544024           
       1.044271             0.00718689824            0.000438884593           
       1.046911             0.00762594536            0.000443691814           
       1.049552             0.00776870641            0.000463964185           
       1.052192             0.00799328416            0.000449459334           
       1.054832             0.00733665415            0.000438976714           
       1.057473             0.00745853959            0.000437004827           
       1.060113             0.00743758654            0.000441116104           
       1.062754             0.00766310781            0.000442801695           
       1.065394             0.00746212153            0.000432358901           
       1.068034             0.00775852231            0.000439155284           
       1.070675             0.00744279809             0.00043769245           
       1.073315             0.00721454765            0.000417756689           
       1.075955             0.00771356229            0.000439207418           
       1.078596             0.00755242786            0.000433736711           
       1.081236              0.0080017918            0.000439831944           
       1.083877             0.00787096888            0.000449848711           
       1.086517             0.00735799623            0.000425103822           
       1.089157             0.00715211704            0.000422187186           
       1.091798             0.00834758797             0.00044644488           
       1.094438             0.00815312314            0.000448226301           
       1.097078             0.00765104332            0.000423047835           
       1.099719             0.00868198316            0.000462198888           
       1.102359             0.00857617359             0.00043517367           
       1.105000             0.00789561796            0.000433995057           
       1.107640             0.00763509141            0.000412863052           
       1.110280             0.00768306154            0.000422450895           
       1.112921             0.00761556673            0.000412980899           
       1.115561             0.00789327498             0.00042577903           
       1.118202             0.00729863247            0.000397477067           
       1.120842             0.00728116069            0.000409509623           
       1.123482             0.00840900264            0.000427739365           
       1.126123             0.00810147511            0.000422465233           
       1.128763             0.00786508075            0.000414191403           
       1.131403             0.00805727139            0.000418569744           
       1.134044             0.00867050291            0.000433452517           
       1.136684             0.00777665105            0.000413587384           
       1.139325             0.00872221618             0.00042566923           
       1.141965             0.00804767565            0.000414225796           
       1.144605             0.00746593887            0.000401317079           
       1.147246             0.00873627667            0.000425897124           
       1.149886             0.00792785665            0.000408598843           
       1.152527             0.00843248648            0.000421824713           
       1.155167             0.00837591281            0.000414496384           
       1.157807             0.00880558962            0.000425287857           
       1.160448             0.00889934588            0.000433395775           
       1.163088             0.00854955877            0.000409033432           
       1.165728             0.00788375867            0.000408973651           
       1.168369             0.00840467814            0.000407194227           
       1.171009             0.00913195797             0.00042796559           
       1.173650             0.00806791966            0.000399360018           
       1.176290             0.00853664335            0.000415617268           
       1.178930             0.00786768379            0.000387784161           
       1.181571             0.00833036511            0.000412056382           
       1.184211             0.00878822354            0.000410446585           
       1.186851             0.00918468003            0.000423471511           
       1.189492             0.00842007242            0.000407713473           
       1.192132             0.00861687505            0.000406342212           
       1.194773             0.00828336683            0.000395997486           
       1.197413             0.00914366502             0.00041944737           
       1.200053             0.00883057501            0.000409610153           
       1.202694             0.00877910895            0.000405337072           
       1.205334             0.00853545459            0.000404041686           
       1.207975              0.0086412689            0.000398572859           
       1.210615             0.00917448193            0.000419370274           
       1.213255             0.00943899881            0.000414119557           
       1.215896             0.00834661205            0.000396801153           
       1.218536             0.00883993144              0.0003965974           
       1.221176             0.00900074432             0.00040974054           
       1.223817             0.00930181544            0.000407857375           
       1.226457             0.00948436293            0.000417071068           
       1.229098             0.00869008823            0.000393168733           
       1.231738             0.00924558634             0.00041125102           
       1.234378             0.00970346273            0.000413125094           
       1.237019             0.00933843578            0.000408549049           
       1.239659             0.00882493706            0.000396942777           
       1.242299             0.00885418465            0.000395567344           
       1.244940             0.00927731576            0.000400538188           
       1.247580             0.00923601056            0.000401410153           
       1.250221             0.00910144835            0.000404979767           
       1.252861              0.0101260916            0.000411253496           
       1.255501             0.00955989443             0.00041087266           
       1.258142              0.0103361924            0.000418782967           
       1.260782              0.0102300904            0.000421334093           
       1.263423              0.0103878519            0.000416158926           
       1.266063             0.00992970231            0.000414461889           
       1.268703             0.00895259568            0.000383626603           
       1.271344             0.00930106716            0.000399537939           
       1.273984             0.00992421232            0.000406262296           
       1.276624             0.00980347851             0.00040131986           
       1.279265             0.00893298598            0.000383924695           
       1.281905             0.00974952963            0.000403560123           
       1.284546             0.00969122652            0.000397956191           
       1.287186             0.00933628067            0.000390975789           
       1.289826              0.0101452314            0.000409675683           
       1.292467              0.0100030824            0.000399534966           
       1.295107             0.00977031889            0.000401819139           
       1.297747             0.00989178117            0.000393704249           
       1.300388             0.00977334023             0.00040138942           
       1.303028             0.00981897601            0.000392094645           
       1.305669             0.00971896366            0.000395132659           
       1.308309             0.00963496501            0.000387505938           
       1.310949              0.0101778507            0.000403237491           
       1.313590             0.00960093002            0.000385581256           
       1.316230              0.0100195075            0.000400986958           
       1.318871             0.00972629278            0.000386552879           
       1.321511             0.00938999884            0.000381714769           
       1.324151              0.0101241686            0.000397922585           
       1.326792              0.0106470412            0.000404763198           
       1.329432             0.00952491492            0.000384836826           
       1.332072               0.010069417            0.000388898755           
       1.334713             0.00987644051            0.000389930816           
       1.337353              0.0108309384            0.000402057343           
       1.339994              0.0100987681            0.000393759834           
       1.342634              0.0104587739            0.000391695733           
       1.345274              0.0114271001            0.000414779544           
       1.347915              0.0111716456            0.000411207432           
       1.350555             0.00964234912            0.000380534282           
       1.353195              0.0110101676            0.000398850923           
       1.355836              0.0116805928            0.000418566003           
       1.358476             0.00985194322            0.000383326899           
       1.361117              0.0101410143            0.000379153773           
       1.363757              0.0105024416            0.000398638556           
       1.366397              0.0102986086            0.000382458301           
       1.369038              0.0110193417            0.000403953343           
       1.371678              0.0106802791            0.000389659798           
       1.374319              0.0109620064            0.000397896551           
       1.376959              0.0109237161            0.000391732779           
       1.379599              0.0107007367            0.000395271372           
       1.382240              0.0105637545            0.000385273841           
       1.384880               0.010303142            0.000385163387           
       1.387520              0.0110037564            0.000393389738           
       1.390161              0.0100060048            0.000374111358           
       1.392801              0.0104305772            0.000384242595           
       1.395442             0.00999002027            0.000372144108           
       1.398082              0.0105580659            0.000383887358           
       1.400722              0.0106394693            0.000383623497           
       1.403363              0.0106032713            0.000386524238           
       1.406003              0.0102752913            0.000371156083           
       1.408644              0.0100607126            0.000374970374           
       1.411284              0.0106393719            0.000383488437           
       1.413924              0.0105763506            0.000377635184           
       1.416565              0.0104204494            0.000374400933           
       1.419205              0.0105684256            0.000380764043           
       1.421845              0.0109057412            0.000381930133           
       1.424486             0.00998555204            0.000367075541           
       1.427126             0.00992111568            0.000365658408           
       1.429767              0.0104995965            0.000370371103           
       1.432407              0.0104617561             0.00037901644           
       1.435047              0.0107071685            0.000371913674           
       1.437688              0.0103282127            0.000373361792           
       1.440328              0.0104207611            0.000367763238           
       1.442968              0.0107857551            0.000379327699           
       1.445609              0.0106326007            0.000370430147           
       1.448249              0.0104103777            0.000368908673           
       1.450890              0.0102392771            0.000363254593           
       1.453530              0.0102664026            0.000366429668           
       1.456170              0.0102837554            0.000365913556           
       1.458811              0.0105252317            0.000367239585           
       1.461451             0.00998750381            0.000360365253           
       1.464092              0.0107222053            0.000370130008           
       1.466732                0.01114998            0.000375126124           
       1.469372             0.00977251461            0.000350111516           
       1.472013             0.00977597412            0.000356438404           
       1.474653              0.0100647377            0.000352734222           
       1.477293              0.0103641873            0.000363968104           
       1.479934              0.0103334297            0.000359623832           
       1.482574              0.0103863026            0.000359652891           
       1.485215              0.0105615238            0.000363607831           
       1.487855              0.0105872286            0.000363974835           
       1.490495              0.0101111268            0.000354931242           
       1.493136              0.0104098076            0.000355412528           
       1.495776              0.0103494054             0.00036055838           
       1.498416             0.00975744706            0.000343293716           
       1.501057             0.00984829533             0.00034785465           
       1.503697              0.0105907218            0.000357259877           
       1.506338             0.00998028016            0.000349361452           
       1.508978               0.010417108            0.000354817783           
       1.511618             0.00989329847            0.000345607226           
       1.514259              0.0103327865            0.000353838135           
       1.516899             0.00908946882             0.00033202238           
       1.519540              0.0100171959            0.000346620629           
       1.522180             0.00984425362            0.000339324298           
       1.524820              0.0102340229            0.000352964501           
       1.527461             0.00989405494            0.000339374902           
       1.530101             0.00974294062            0.000340255255           
       1.532741              0.0103427277            0.000348911145           
       1.535382             0.00969834249            0.000338611279           
       1.538022              0.0101796394            0.000343842307           
       1.540663              0.0104277777            0.000351296839           
       1.543303              0.0105274105            0.000348578617           
       1.545943             0.00964160906            0.000335460866           
       1.548584              0.0102033996            0.000346933353           
       1.551224              0.0092461369             0.00032179145           
       1.553864              0.0103765241            0.000349800064           
       1.556505             0.00947299264            0.000329082558           
       1.559145              0.0102351336            0.000342855299           
       1.561786               0.009821585             0.00033433586           
       1.564426              0.0102943566            0.000341978909           
       1.567066             0.00935558299            0.000323468598           
       1.569707             0.00970466798            0.000334217696           
       1.572347             0.00915978974            0.000320486951           
       1.574988             0.00912041433            0.000318532238           
       1.577628             0.00889825143             0.00032171258           
       1.580268              0.0100544611            0.000330174081           
       1.582909             0.00970720368            0.000330490279           
       1.585549              0.0088125904            0.000311950517           
       1.588189             0.00871126645            0.000313616073           
       1.590830             0.00988613852            0.000328360835           
       1.593470             0.00873375535            0.000311150632           
       1.596111             0.00898709147            0.000312903789           
       1.598751             0.00929871661            0.000321536213           
       1.601391             0.00938388501            0.000320940205           
       1.604032             0.00890212933            0.000309982931           
       1.606672             0.00944270485            0.000325681571           
       1.609312             0.00825924838            0.000295526598           
       1.611953             0.00918440486            0.000316155398           
       1.614593             0.00886553218            0.000308256148           
       1.617234             0.00920415528            0.000315868346           
       1.619874             0.00836633039            0.000297606363           
       1.622514             0.00935496226            0.000317482511           
       1.625155             0.00897825211            0.000310255383           
       1.627795             0.00848720009            0.000298603375           
       1.630436             0.00832972747            0.000298793656           
       1.633076             0.00900398579            0.000309073131           
       1.635716             0.00933054381              0.0003140793           
       1.638357             0.00873105343            0.000302531109           
       1.640997             0.00915158827            0.000312153412           
       1.643637             0.00865730636            0.000297968943           
       1.646278             0.00902908058            0.000308854463           
       1.648918             0.00877719965            0.000300590156           
       1.651559             0.00876138953             0.00030409529           
       1.654199             0.00899282521            0.000303862492           
       1.656839             0.00926467202            0.000308338031           
       1.659480             0.00932052728            0.000311989876           
       1.662120             0.00860406019             0.00029574195           
       1.664761             0.00907428702            0.000307004238           
       1.667401             0.00853746223            0.000295010665           
       1.670041              0.0082504883            0.000290341995           
       1.672682             0.00885163942            0.000297903699           
       1.675322             0.00811311267            0.000290248132           
       1.677962             0.00861024567            0.000293070131           
       1.680603             0.00802495367            0.000285444969           
       1.683243             0.00826441979            0.000287529613           
       1.685884             0.00842914246            0.000291485932           
       1.688524             0.00850099479            0.000291902069           
       1.691164             0.00864407175            0.000293591705           
       1.693805             0.00850934506            0.000293650348           
       1.696445             0.00862218271             0.00029148829           
       1.699085             0.00806955018            0.000283118068           
       1.701726             0.00804913658            0.000279081732           
       1.704366             0.00773689878            0.000280272873           
       1.707007             0.00840759271            0.000285933838           
       1.709647             0.00842332771            0.000289757346           
       1.712287             0.00796596216            0.000277071905           
       1.714928             0.00816691055            0.000283365801           
       1.717568              0.0080692245            0.000279075913           
       1.720209             0.00841043825            0.000286674682           
       1.722849             0.00833802014            0.000285895473           
       1.725489             0.00832957904            0.000281196184           
       1.728130             0.00852833751            0.000290323496           
       1.730770             0.00828410461            0.000280087968           
       1.733410             0.00835239706            0.000284932117           
       1.736051             0.00805019788            0.000275388099           
       1.738691             0.00811942843            0.000279392702           
       1.741332             0.00890505621            0.000290796359           
       1.743972             0.00772955131            0.000271024672           
       1.746612             0.00794288691            0.000274802561           
       1.749253             0.00841105093            0.000284007313           
       1.751893             0.00804848431            0.000276151909           
       1.754533             0.00847383652            0.000279466108           
       1.757174             0.00789628301            0.000274818101           
       1.759814              0.0082379567            0.000276421416           
       1.762455             0.00822871396            0.000278618282           
       1.765095             0.00861776952            0.000281124648           
       1.767735             0.00839679075            0.000282212234           
       1.770376               0.008409711            0.000278146167           
       1.773016             0.00828176598            0.000276457828           
       1.775657             0.00822123009            0.000276009909           
       1.778297             0.00786345716            0.000271257923           
       1.780937              0.0086154838            0.000282607803           
       1.783578             0.00817759589            0.000274039403           
       1.786218              0.0079203654            0.000273998602           
       1.788858             0.00826009336            0.000272861182           
       1.791499             0.00840795262              0.0002803662           
       1.794139             0.00825437004            0.000272664037           
       1.796780             0.00788460065             0.00026807025           
       1.799420             0.00814084197            0.000272044628           
       1.802060             0.00814808795              0.0002688182           
       1.804701             0.00885209012            0.000283949699           
       1.807341             0.00798224659            0.000267032573           
       1.809981             0.00810583507            0.000270878962           
       1.812622             0.00875764172            0.000280025359           
       1.815262             0.00852864991            0.000277325416           
       1.817903              0.0086836826            0.000276377433           
       1.820543             0.00836175371            0.000274558122           
       1.823183             0.00808855159            0.000265874859           
       1.825824             0.00843140327            0.000275533406           
       1.828464             0.00775740899             0.00026348029           
       1.831105             0.00809508657            0.000270195833           
       1.833745             0.00768677559            0.000263129075           
       1.836385             0.00768529568            0.000262080447           
       1.839026             0.00803258568            0.000271964309           
       1.841666             0.00811886472            0.000269870718           
       1.844306             0.00792629354            0.000270017359           
       1.846947             0.00786627733            0.000265536387           
       1.849587             0.00787487496            0.000269284857           
       1.852228             0.00790416576            0.000266915808           
       1.854868             0.00783089108            0.000270548401           
       1.857508             0.00759802771            0.000261574666           
       1.860149               0.008106258            0.000272347034           
       1.862789              0.0076614843            0.000265941662           
       1.865429             0.00789383295            0.000270757978           
       1.868070             0.00744166256            0.000261980524           
       1.870710             0.00771265588            0.000267434306           
       1.873351             0.00779259859            0.000270532879           
       1.875991             0.00740736825            0.000265187944           
       1.878631             0.00788330016             0.00027103188           
       1.881272             0.00761003161            0.000265669112           
       1.883912             0.00751979062            0.000267186429           
       1.886553             0.00751104716            0.000263827885           
       1.889193             0.00756890449            0.000267901421           
       1.891833             0.00775976216             0.00026817121           
       1.894474             0.00796102035            0.000273776395           
       1.897114             0.00768582869             0.00026691634           
       1.899754             0.00746996558            0.000266092449           
       1.902395             0.00758644226            0.000268216138           
       1.905035             0.00716626154            0.000259661072           
       1.907676             0.00749173411            0.000265800807           
       1.910316              0.0074648569            0.000267015333           
       1.912956             0.00784332543            0.000273689612           
       1.915597             0.00755345426            0.000265784434           
       1.918237             0.00803343439            0.000278259712           
       1.920878             0.00776528003            0.000268734535           
       1.923518             0.00778996655            0.000276312603           
       1.926158              0.0077590847            0.000269427572           
       1.928799             0.00721908549            0.000263336455           
       1.931439             0.00758045745            0.000267684466           
       1.934079             0.00735137272            0.000266278196           
       1.936720             0.00756597429            0.000268546884           
       1.939360              0.0070583864            0.000261882218           
       1.942001             0.00736992383            0.000266569741           
       1.944641             0.00711065285            0.000260710557           
       1.947281             0.00724280927             0.00026439338           
       1.949922             0.00754109854            0.000270120529           
       1.952562              0.0069813229            0.000262138185           
       1.955202             0.00753326151            0.000265461775           
       1.957843             0.00720502516            0.000267861154           
       1.960483             0.00760750511            0.000270850689           
       1.963124             0.00731745085            0.000265440112           
       1.965764              0.0071931545            0.000263270126           
       1.968404             0.00738619636            0.000271550002           
       1.971045             0.00709561076            0.000259483036           
       1.973685             0.00763675597            0.000274219502           
       1.976326             0.00797785492              0.0002790547           
       1.978966             0.00706531554            0.000263853151           
       1.981606             0.00737278638            0.000266682773           
       1.984247              0.0075046929            0.000271403908           
       1.986887             0.00742195929            0.000272427991           
       1.989527             0.00716748072            0.000262139398           
       1.992168             0.00720674779            0.000269198424           
       1.994808             0.00761864096            0.000273564972           
       1.997449             0.00689576633            0.000259881672           
       2.000089             0.00674200011            0.000255454717           
       2.002729             0.00731053901            0.000272103139           
       2.005370             0.00696603046            0.000260565167           
       2.008010              0.0072843695            0.000269990013           
       2.010650             0.00726212807            0.000268806336           
       2.013291             0.00675751662             0.00026077507           
       2.015931             0.00748154928            0.000272426157           
       2.018572             0.00734620432            0.000273535995           
       2.021212              0.0073080726            0.000270376628           
       2.023852             0.00702886696            0.000266554397           
       2.026493             0.00740100294            0.000272320961           
       2.029133             0.00794215979            0.000279949307           
       2.031774             0.00756492836            0.000275869602           
       2.034414             0.00756162602            0.000274163402           
       2.037054             0.00685201156            0.000264273009           
       2.039695             0.00749354101            0.000270923992           
       2.042335             0.00690941993            0.000264578657           
       2.044975             0.00712665382            0.000266558148           
       2.047616             0.00723237575            0.000269678685           
       2.050256             0.00714485091            0.000264888954           
       2.052897             0.00710885067            0.000272046215           
       2.055537             0.00715281512            0.000265446211           
       2.058177             0.00704058181            0.000265681737           
       2.060818             0.00686814948            0.000263195923           
       2.063458             0.00732779696            0.000272234874           
       2.066098              0.0074930183            0.000274065175           
       2.068739             0.00718772001            0.000271222576           
       2.071379             0.00772259381            0.000276981338           
       2.074020             0.00731191603            0.000273206685           
       2.076660             0.00773834538            0.000279155315           
       2.079300             0.00721500599             0.00026951148           
       2.081941             0.00694268695            0.000265983686           
       2.084581              0.0072206132            0.000271456239           
       2.087222             0.00790020109            0.000284136887           
       2.089862             0.00723117289            0.000268451509           
       2.092502             0.00717682446            0.000272300172           
       2.095143             0.00676469693            0.000260587912           
       2.097783             0.00677161767             0.00026468852           
       2.100423             0.00745394674            0.000272379073           
       2.103064             0.00702228448            0.000268939273           
       2.105704             0.00703847032            0.000268218992           
       2.108345             0.00710904781            0.000270797954           
       2.110985              0.0068655206            0.000262381423           
       2.113625             0.00742611805             0.00027718297           
       2.116266              0.0077403828            0.000280892706           
       2.118906              0.0069283679            0.000265557653           
       2.121546             0.00704527576             0.00026757614           
       2.124187             0.00738419702            0.000277725571           
       2.126827             0.00700015157            0.000266166266           
       2.129468             0.00696745346            0.000268315028           
       2.132108             0.00723710461             0.00027289199           
       2.134748             0.00727024015            0.000272485212           
       2.137389             0.00664139993             0.00026261572           
       2.140029             0.00762789666            0.000280761374           
       2.142670             0.00666408379            0.000262853783           
       2.145310             0.00723797452            0.000274984735           
       2.147950             0.00697889194            0.000271062209           
       2.150591             0.00724225988            0.000273597133           
       2.153231             0.00705882848            0.000274103471           
       2.155871              0.0071680472            0.000272226712           
       2.158512               0.006802195            0.000269967099           
       2.161152             0.00675979481            0.000262401709           
       2.163793             0.00697172638            0.000270819397           
       2.166433              0.0068478661            0.000263748553           
       2.169073             0.00718342222            0.000276440302           
       2.171714             0.00677551789             0.00026301108           
       2.174354             0.00655546981            0.000262658199           
       2.176995             0.00652671266            0.000259907453           
       2.179635             0.00747377915            0.000283389602           
       2.182275             0.00693553715             0.00026757529           
       2.184916             0.00707468964            0.000275957851           
       2.187556              0.0069647648             0.00026939755           
       2.190196             0.00675397169            0.000269459275           
       2.192837              0.0070162431            0.000271633815           
       2.195477             0.00695310733            0.000273017317           
       2.198118             0.00665330217             0.00026213594           
       2.200758             0.00745878263            0.000281860601           
       2.203398             0.00707479223            0.000269957099           
       2.206039             0.00702838682            0.000273182984           
       2.208679              0.0064938011            0.000260017798           
       2.211319             0.00746584251             0.00028011245           
       2.213960             0.00751324141            0.000278012515           
       2.216600              0.0070253835            0.000275169102           
       2.219241             0.00731665591             0.00027673283           
       2.221881             0.00671332566            0.000266459434           
       2.224521             0.00762348873            0.000282963333           
       2.227162             0.00662329821            0.000267891439           
       2.229802             0.00665431892            0.000264159361           
       2.232443             0.00727881987             0.00027736312           
       2.235083             0.00674600836            0.000265417567           
       2.237723             0.00745567873            0.000281167638           
       2.240364             0.00702993518            0.000271633147           
       2.243004             0.00737152456             0.00027899462           
       2.245644             0.00654217721            0.000262225108           
       2.248285              0.0064653611            0.000262373312           
       2.250925             0.00688166457             0.00026942284           
       2.253566             0.00636172126            0.000259678276           
       2.256206             0.00679288601            0.000267530068           
       2.258846             0.00733385682            0.000277981262           
       2.261487             0.00752681968            0.000282101689           
       2.264127             0.00734217929            0.000281256321           
       2.266767             0.00672900862            0.000264903995           
       2.269408             0.00676128067             0.00026869222           
       2.272048             0.00700371295            0.000271784714           
       2.274689             0.00699529236            0.000272689371           
       2.277329             0.00707634495            0.000273900169           
       2.279969             0.00700731027            0.000273386969           
       2.282610             0.00713086207            0.000273097113           
       2.285250             0.00682061917            0.000271290897           
       2.287891             0.00715931821            0.000275140413           
       2.290531             0.00749358161            0.000282878314           
       2.293171             0.00675948001            0.000268652055           
       2.295812             0.00729796311            0.000277666296           
       2.298452             0.00695964537            0.000272890588           
       2.301092             0.00659098442            0.000267251497           
       2.303733             0.00698441281             0.00026967069           
       2.306373             0.00697346761            0.000276050049           
       2.309014             0.00685275322            0.000268377044           
       2.311654             0.00681867099            0.000270249508           
       2.314294              0.0069459758            0.000272165152           
       2.316935             0.00693012936            0.000272928965           
       2.319575             0.00693139726            0.000271931824           
       2.322215             0.00737067577            0.000284412197           
       2.324856             0.00697663247            0.000269756578           
       2.327496             0.00677161849            0.000272276797           
       2.330137             0.00680723035            0.000267957159           
       2.332777             0.00694949871            0.000273703942           
       2.335417              0.0071804022            0.000277378605           
       2.338058             0.00689050175            0.000272809009           
       2.340698              0.0074842186            0.000281520051           
       2.343339             0.00689699416            0.000275407321           
       2.345979             0.00683471109            0.000268690168           
       2.348619             0.00693388257            0.000275743313           
       2.351260              0.0072701261            0.000276347983           
       2.353900              0.0071584126            0.000280025167           
       2.356540             0.00679203852            0.000269013676           
       2.359181             0.00699340486            0.000276622555           
       2.361821             0.00744047515            0.000281850957           
       2.364462             0.00685840591            0.000275124382           
       2.367102             0.00705461291            0.000270963096           
       2.369742             0.00746094877            0.000288643605           
       2.372383              0.0067093044            0.000265739056           
       2.375023             0.00689290084            0.000276368123           
       2.377663             0.00687342768            0.000270112784           
       2.380304             0.00681172768            0.000272627779           
       2.382944             0.00721433005            0.000277824611           
       2.385585             0.00699160989            0.000276088106           
       2.388225             0.00694634464            0.000273949541           
       2.390865             0.00717273539            0.000279090788           
       2.393506             0.00679059805            0.000270303117           
       2.396146             0.00733397061            0.000281840703           
       2.398787             0.00724078623             0.00028028942           
       2.401427             0.00721791226            0.000278147127           
       2.404067             0.00695914521            0.000277284313           
       2.406708             0.00710433678             0.00027664057           
       2.409348             0.00753730935            0.000287089376           
       2.411988             0.00717384436            0.000279187311           
       2.414629             0.00687373248            0.000274179309           
       2.417269              0.0067510959            0.000269254811           
       2.419910             0.00728024951            0.000283133991           
       2.422550             0.00727932114            0.000278818298           
       2.425190             0.00726497238            0.000287313275           
       2.427831             0.00669157696             0.00026537171           
       2.430471             0.00718412408             0.00028300254           
       2.433112             0.00668052631            0.000266463804           
       2.435752             0.00694891673            0.000278643706           
       2.438392             0.00666135111            0.000268231716           
       2.441033             0.00689728974            0.000274191354           
       2.443673             0.00674661044            0.000271903954           
       2.446313             0.00729281355            0.000281190197           
       2.448954             0.00672660796            0.000272423675           
       2.451594             0.00745042957             0.00028498615           
       2.454235             0.00734389871            0.000282060969           
       2.456875             0.00738859861            0.000284351148           
       2.459515             0.00778443081            0.000292318632           
       2.462156             0.00746547345            0.000284791627           
       2.464796             0.00793691457             0.00029882592           
       2.467436             0.00764742473            0.000287175066           
       2.470077             0.00814138256            0.000300390384           
       2.472717             0.00777222611            0.000289828594           
       2.475358             0.00757462477            0.000289362172           
       2.477998             0.00725265705             0.00028163495           
       2.480638             0.00813891885            0.000299071682           
       2.483279             0.00750044442            0.000288334864           
       2.485919              0.0078447391            0.000292813644           
       2.488560             0.00708461543            0.000279420261           
       2.491200             0.00727830145             0.00028282574           
       2.493840             0.00685821589            0.000273047674           
       2.496481             0.00749084541            0.000289095086           
       2.499121             0.00702352588            0.000276205051           
       2.501761             0.00690242566            0.000278463027           
       2.504402             0.00748763337            0.000284469252           
       2.507042             0.00749718493            0.000289382463           
       2.509683             0.00710423987            0.000279131417           
       2.512323             0.00720657799            0.000282235514           
       2.514963             0.00880006768            0.000312502133           
       2.517604              0.0125904556            0.000372329235           
       2.520244              0.0330048381            0.000602962306           
       2.522884              0.0161822736            0.000421279259           
       2.525525              0.0106674105            0.000344851853           
       2.528165              0.0211318576            0.000483152127           
       2.530806              0.0285344136            0.000559327587           
       2.533446              0.0253063541            0.000531421317           
       2.536086              0.0276053523             0.00055037732           
       2.538727              0.0229576789            0.000505130032           
       2.541367              0.0179498819            0.000445375555           
       2.544008              0.0124547901            0.000371305626           
       2.546648             0.00977924747            0.000329388865           
       2.549288              0.0081821076            0.000301336196           
       2.551929             0.00815423318            0.000301816135           
       2.554569             0.00775530142            0.000291650889           
       2.557209             0.00773943821             0.00029464438           
       2.559850             0.00733743305            0.000283591079           
       2.562490             0.00755889892            0.000289934891           
       2.565131             0.00718838076            0.000283231605           
       2.567771             0.00738233785            0.000285506002           
       2.570411             0.00711682427            0.000283735978           
       2.573052             0.00716965277             0.00028146283           
       2.575692             0.00731359341             0.00028502827           
       2.578332             0.00729415593            0.000283808386           
       2.580973             0.00702861612              0.0002808534           
       2.583613             0.00724856985            0.000282614956           
       2.586254             0.00680046447            0.000276161756           
       2.588894              0.0074231719            0.000286989586           
       2.591534             0.00730998388            0.000285317024           
       2.594175             0.00726449055            0.000286078847           
       2.596815             0.00722898468            0.000282725553           
       2.599456             0.00736812016             0.00028776872           
       2.602096             0.00696179869            0.000278674787           
       2.604736             0.00715334637            0.000283223374           
       2.607377             0.00691738384            0.000277447888           
       2.610017             0.00711623503            0.000281309155           
       2.612657             0.00696151209            0.000280199633           
       2.615298             0.00642561586            0.000266565589           
       2.617938             0.00650136975            0.000270477957           
       2.620579             0.00690075548            0.000276385721           
       2.623219             0.00721498909            0.000287128999           
       2.625859             0.00641630935            0.000266207308           
       2.628500             0.00679571089            0.000278343334           
       2.631140             0.00734193521            0.000284211559           
       2.633780             0.00697908568            0.000280658576           
       2.636421             0.00685362311            0.000275593601           
       2.639061             0.00678200458            0.000277427725           
       2.641702             0.00732900544            0.000285315747           
       2.644342             0.00696641929             0.00028045039           
       2.646982             0.00697106597            0.000280305732           
       2.649623             0.00741005643            0.000290729366           
       2.652263             0.00702516108            0.000280825577           
       2.654904             0.00747315472             0.00029121399           
       2.657544             0.00725546675            0.000284922402           
       2.660184             0.00686425984            0.000277489103           
       2.662825             0.00715532902            0.000283990363           
       2.665465             0.00706056878             0.00028262536           
       2.668105              0.0068158135            0.000277793487           
       2.670746             0.00685660046             0.00027626589           
       2.673386             0.00746818451            0.000291818071           
       2.676027             0.00678363086            0.000275757944           
       2.678667              0.0075279631            0.000292003186           
       2.681307             0.00662736184             0.00027182577           
       2.683948             0.00723298813             0.00028679461           
       2.686588             0.00818044631             0.00030220167           
       2.689229             0.00690986597             0.00028023573           
       2.691869             0.00748249665            0.000288705632           
       2.694509             0.00731066541            0.000289284937           
       2.697150             0.00740184518             0.00028643755           
       2.699790             0.00701786631            0.000284702546           
       2.702430              0.0066406165            0.000271634831           
       2.705071             0.00678151878            0.000278258322           
       2.707711             0.00656624408            0.000271091006           
       2.710352             0.00652694422            0.000271816913           
       2.712992             0.00668896939            0.000276064684           
       2.715632             0.00705096539            0.000281824079           
       2.718273             0.00660103292            0.000273589319           
       2.720913             0.00688448782            0.000279868155           
       2.723553              0.0066604044            0.000274319209           
       2.726194             0.00671406313            0.000276750315           
       2.728834             0.00631402431            0.000265993303           
       2.731475             0.00718918956            0.000286310099           
       2.734115             0.00686647282             0.00027814289           
       2.736755             0.00688219786            0.000280301953           
       2.739396             0.00690671854            0.000279315985           
       2.742036             0.00680590928            0.000279162588           
       2.744677             0.00695735543            0.000282664149           
       2.747317             0.00745758869            0.000291227791           
       2.749957             0.00790974581            0.000302102349           
       2.752598              0.0069954979            0.000284962701           
       2.755238             0.00668204037            0.000278379643           
       2.757878             0.00709848492            0.000286106329           
       2.760519             0.00662367998            0.000273454079           
       2.763159             0.00690224379            0.000283683871           
       2.765800             0.00744592744            0.000289653665           
       2.768440             0.00702579588            0.000285069791           
       2.771080             0.00704043354            0.000282961803           
       2.773721             0.00635167397            0.000272061869           
       2.776361             0.00652880997            0.000272866924           
       2.779001             0.00642978683            0.000273636149           
       2.781642             0.00647404825            0.000272702796           
       2.784282             0.00645052353            0.000272301848           
       2.786923             0.00654737836            0.000272252103           
       2.789563             0.00633550596            0.000268348838           
       2.792203              0.0067885554            0.000279546125           
       2.794844             0.00717247525            0.000286034682           
       2.797484             0.00664437838            0.000275691155           
       2.800125             0.00712289758            0.000285077154           
       2.802765             0.00667475706            0.000281079431           
       2.805405             0.00633376519            0.000269853205           
       2.808046             0.00685362198             0.00028501348           
       2.810686             0.00667435966             0.00027826442           
       2.813326             0.00690371787            0.000286506578           
       2.815967             0.00668179089            0.000280087626           
       2.818607             0.00685209122            0.000286469806           
       2.821248             0.00663562588            0.000278393446           
       2.823888             0.00662117503            0.000282569279           
       2.826528             0.00665146834             0.00028152523           
       2.829169             0.00706791408            0.000288923313           
       2.831809             0.00640814983            0.000275349078           
       2.834449             0.00653680583            0.000273245243           
       2.837090             0.00678531105            0.000280066035           
       2.839730             0.00682884634            0.000278967811           
       2.842371              0.0062735425             0.00026924787           
       2.845011             0.00652320188            0.000273940712           
       2.847651             0.00677445263            0.000279679165           
       2.850292             0.00669549774            0.000276464776           
       2.852932              0.0064391975            0.000271607862           
       2.855573             0.00663096003            0.000278043178           
       2.858213              0.0073357673            0.000289165427           
       2.860853             0.00692636801             0.00028308374           
       2.863494             0.00677249737            0.000280595716           
       2.866134             0.00658185891            0.000280498325           
       2.868774             0.00691572148             0.00028312312           
       2.871415             0.00723214049            0.000292393215           
       2.874055             0.00649306317            0.000278422689           
       2.876696             0.00665282556            0.000279289438           
       2.879336             0.00671173397            0.000282385343           
       2.881976             0.00620759736            0.000271349464           
       2.884617             0.00706323534            0.000287839065           
       2.887257             0.00684873753            0.000281458539           
       2.889897             0.00663995568             0.00028031179           
       2.892538             0.00667734109            0.000279150814           
       2.895178             0.00629873158            0.000268356498           
       2.897819             0.00694731722            0.000284733132           
       2.900459             0.00734232843            0.000290292364           
       2.903099             0.00672691754            0.000279311286           
       2.905740             0.00677554233            0.000277189921           
       2.908380             0.00702233929            0.000285954905           
       2.911021             0.00652840856             0.00027623908           
       2.913661             0.00666128235            0.000275965351           
       2.916301             0.00660716381            0.000278751928           
       2.918942              0.0064714957             0.00027171327           
       2.921582             0.00673188074            0.000280033169           
       2.924222             0.00710689603            0.000286058551           
       2.926863             0.00674760915            0.000279474352           
       2.929503             0.00683883688            0.000284480587           
       2.932144             0.00647234737            0.000272214031           
       2.934784             0.00687128103            0.000281669742           
       2.937424             0.00718823167            0.000288625637           
       2.940065             0.00710890115            0.000287262164           
       2.942705             0.00668617693            0.000279436895           
       2.945346             0.00653127208            0.000274549688           
       2.947986             0.00660732605            0.000277109246           
       2.950626             0.00746811538            0.000295513244           
       2.953267              0.0084270246            0.000310577656           
       2.955907             0.00952088708            0.000334484449           
       2.958547              0.0102971339            0.000344285911           
       2.961188             0.00809794942            0.000307980667           
       2.963828             0.00713851207            0.000287522346           
       2.966469             0.00710600099            0.000286938312           
       2.969109             0.00703810584            0.000287024691           
       2.971749             0.00704480233            0.000286316573           
       2.974390             0.00724429005            0.000291138792           
       2.977030             0.00863100726            0.000317179848           
       2.979670              0.0101731627            0.000342132091           
       2.982311             0.00842244809            0.000313550855           
       2.984951             0.00796628241            0.000305730061           
       2.987592             0.00757157822            0.000297053842           
       2.990232             0.00718747186            0.000290160047           
       2.992872               0.007773437            0.000299395258           
       2.995513             0.00757969192            0.000297962937           
       2.998153             0.00785309199              0.0003052458           
       3.000794             0.00924338378            0.000326346361           
       3.003434              0.0200285251             0.00048547691           
       3.006074              0.0693858084            0.000906518816           
       3.008715              0.0513383726            0.000785700521           
       3.011355               0.030277575            0.000609662849           
       3.013995              0.0230535326            0.000529381702           
       3.016636              0.0351806593            0.000655187641           
       3.019276               0.196029129             0.00158354523           
       3.021917               0.192121599             0.00154109523           
       3.024557               0.120318984             0.00122931128           
       3.027197               0.160032713              0.0014415437           
       3.029838               0.166660001             0.00146405495           
       3.032478               0.056762029            0.000859524042           
       3.035118              0.0331997997            0.000660733848           
       3.037759               0.100462682             0.00115139788           
       3.040399               0.236502974             0.00178682746           
       3.043040              0.0973293165             0.00115740118           
       3.045680              0.0543392978            0.000851487867           
       3.048320               0.166683108             0.00151523832           
       3.050961               0.238675847             0.00183135508           
       3.053601              0.0701202655            0.000988246389           
       3.056242              0.0530290084            0.000864929972           
       3.058882               0.215910221              0.0017712248           
       3.061522                 0.1186294             0.00130380844           
       3.064163               0.021427854            0.000555132297           
       3.066803              0.0240999484            0.000600112995           
       3.069443              0.0381184021            0.000749704578           
       3.072084              0.0678753394             0.00100931727           
       3.074724              0.0232487901            0.000594194761           
       3.077365              0.0104768194            0.000398595437           
       3.080005             0.00974466825              0.0003886786           
       3.082645             0.00966781672            0.000389114106           
       3.085286             0.00856125994            0.000366235817           
       3.087926             0.00768137686            0.000349112947           
       3.090566             0.00696193331            0.000335785531           
       3.093207             0.00760565382            0.000347174335           
       3.095847             0.00701385786             0.00034038235           
       3.098488             0.00640314345            0.000324636226           
       3.101128              0.0078067314            0.000360407924           
       3.103768             0.00991143292             0.00040838312           
       3.106409              0.0106539313            0.000426239496           
       3.109049              0.0109335023            0.000435152506           
       3.111690              0.0109490257            0.000433746722           
       3.114330             0.00959246649            0.000409600767           
       3.116970             0.00982181175            0.000420234246           
       3.119611              0.0127730403            0.000476110393           
       3.122251               0.015252486            0.000524533295           
       3.124891              0.0118639372            0.000464858172           
       3.127532             0.00912276801            0.000414976052           
       3.130172             0.00748302592            0.000368104416           
       3.132813             0.00651738799            0.000350525314           
       3.135453             0.00926500224            0.000426747733           
       3.138093             0.00768544236            0.000379449569           
       3.140734             0.00654535391            0.000356692983           
       3.143374              0.0066209589            0.000364231199           
       3.146014             0.00621501119            0.000350327001           
       3.148655              0.0061642302            0.000351639751           
       3.151295             0.00600367091             0.00034977679           
       3.153936             0.00578252889            0.000348342046           
       3.156576             0.00636594041            0.000361296689           
       3.159216             0.00706609862            0.000383760353           
       3.161857             0.00602965473            0.000358848953           
       3.164497             0.00647447661            0.000379690584           
       3.167138             0.00597193189            0.000355908589           
       3.169778             0.00533226756            0.000342380529           
       3.172418             0.00637625311            0.000376587784           
       3.175059             0.00563148027            0.000358543132           
       3.177699             0.00650911427            0.000383947903           
       3.180339             0.00610631527            0.000375202447           
       3.182980              0.0059877063            0.000376556348           
       3.185620             0.00566005695            0.000370109487           
       3.188261             0.00532419529            0.000354257742           
       3.190901             0.00664769866            0.000401947208           
       3.193541             0.00586117785            0.000378664451           
       3.196182              0.0054481735            0.000372675612           
       3.198822             0.00534133059            0.000364530057           
       3.201463             0.00581121608            0.000385143248           
       3.204103             0.00584367429              0.0003913603           
       3.206743             0.00631525397             0.00041028492           
       3.209384             0.00559014934            0.000384292167           
       3.212024             0.00526394949            0.000374236164           
       3.214664             0.00590152848            0.000403805329           
       3.217305             0.00581600451            0.000410221154           
       3.219945             0.00580159923             0.00040628678           
       3.222586             0.00571211596             0.00040542283           
       3.225226             0.00559462071            0.000410270582           
       3.227866             0.00635877005            0.000440776547           
       3.230507             0.00531060143            0.000407619964           
       3.233147             0.00537083819            0.000403861962           
       3.235787             0.00546971747            0.000407673422           
       3.238428             0.00522454424            0.000405468728           
       3.241068             0.00573861588              0.0004335659           
       3.243709             0.00576606221            0.000432189255           
       3.246349             0.00619659271            0.000445527031           
       3.248989             0.00605564947            0.000450497994           
       3.251630             0.00516673784            0.000417963027           
       3.254270             0.00518830658            0.000431708953           
       3.256911             0.00576799681            0.000443782793           
       3.259551             0.00623811428            0.000471711924           
       3.262191             0.00540625181            0.000443175254           
       3.264832             0.00569841617            0.000459261939           
       3.267472             0.00567648791            0.000464877906           
       3.270112             0.00566640235            0.000465786957           
       3.272753             0.00541524331            0.000460942954           
       3.275393             0.00559581682            0.000470976932           
       3.278034             0.00533283162            0.000469142684           
       3.280674             0.00473672788            0.000443428745           
       3.283314             0.00474962716            0.000446485615           
       3.285955             0.00515638894             0.00047394972           
       3.288595             0.00500439166            0.000472120955           
       3.291235             0.00558989967            0.000501907111           
       3.293876             0.00506476961            0.000480579369           
       3.296516             0.00522840267            0.000498240137           
       3.299157             0.00601471917             0.00054247143           
       3.301797             0.00611561621            0.000547234947           
       3.304437               0.005242533            0.000516166262           
       3.307078             0.00482677401            0.000500087656           
       3.309718             0.00591927454            0.000559326783           
       3.312359             0.00513378801            0.000531420208           
       3.314999             0.00507536951            0.000533931034           
       3.317639             0.00537651942            0.000555460802           
       3.320280             0.00567283017            0.000578893762           
       3.322920             0.00494593367            0.000548621511           
       3.325560              0.0057664765             0.00060382364           
       3.328201             0.00498143214            0.000563590878           
       3.330841             0.00637654618            0.000653154007           
       3.333482             0.00578678067            0.000630116587           
       3.336122             0.00433112162            0.000556981382           
       3.338762              0.0050674129            0.000607977898           
       3.341403             0.00547843442            0.000638018441           
       3.344043             0.00614259441            0.000701371718           
       3.346683             0.00590084925            0.000694404033           
       3.349324             0.00710420609            0.000773720568           
       3.351964             0.00461103255            0.000643380101           
       3.354605             0.00637417304            0.000765016327           
       3.357245             0.00474800966            0.000683467261           
       3.359885              0.0057505513            0.000752441484           
       3.362526             0.00537241323            0.000764468519           
       3.365166             0.00557825795            0.000769358808           
       3.367807             0.00491204408            0.000772828584           
       3.370447             0.00482788877            0.000766476816           
       3.373087              0.0051060395             0.00083191492           
       3.375728              0.0045131117             0.00077621038           
       3.378368             0.00507652495            0.000889568754           
       3.381008             0.00577688892            0.000940675541           
       3.383649             0.00622612956              0.0010568674           
       3.386289             0.00550722002            0.000994389915           
       3.388930             0.00428079613            0.000962837029           
       3.391570             0.00408969217            0.000941494715           
       3.394210             0.00635422978             0.00125744023           
       3.396851             0.00487630128              0.0011932302           
       3.399491             0.00471510646             0.00119463751           
       3.402131             0.00619055619             0.00162032835           
       3.404772             0.00411723919             0.00132198746           
       3.407412             0.00941093236             0.00248009499           
       3.410053             0.00537507547             0.00195169102           
       3.412693              0.0039896574             0.00237894066           
       3.415333             0.00386994474              0.0028707172           
