################################################################################
# EDF_DataBlockID                     0.Image.Psd
# EDF_BinarySize                      2105344
# EDF_HeaderSize                      2560
# ByteOrder                           LowByteFirst
# DataType                            FloatValue
# Dim_1                               512
# Dim_2                               1028
# Image                               0
# HeaderID                            EH:000000:000000:000000
# Size                                2105344
# Center_1                            304.9000
# Center_2                            588.7000
# Comment                             Xenocs_Cell_Window - 20251028_20perc_iodine_1.23mg
# DDummy                              0.6
# Date                                2025-10-30T05:37:58
# Delta                               21.910000
# Dummy                               -1.5
# ExposureTime                        360
# Gamma                               15.360000
# Intensity1                          8.5294e-10
# PSize_1                             7.5e-05
# PSize_2                             7.5e-05
# Pressure                            0.0324879
# SampleDistance                      0.115750
# SampleEnvKind                       large
# SampleEnvPN                         ElectroChemical cell
# SampleEnvSN                         1141
# Thickness                           0
# Wavelength                          1.541891e-10
# Wavelength                          1.54189e-10
# aux                                 0
# aux_dial                            0.002375
# beamx                               588.434
# beamx_dial                          588.434
# beamz                               657.808
# beamz_dial                          657.808
# det0x                               0
# det0x_dial                          6.36945
# det0xvd                             0
# det0xvd_dial                        0
# det0y                               450.002
# det0y_dial                          481.635
# det0z                               0
# det0z_dial                          1.23302
# det0zvd                             0
# det0zvd_dial                        0
# mag                                 1.818
# mag_dial                            1.818
# om                                  0.2499
# om_dial                             -0.610199
# phi                                 -0.0120535
# phi_dial                            0
# ry                                  0.599993
# ry_dial                             0.599993
# s1bot                               0.8
# s1bot_dial                          -1.66094
# s1hl                                0.8
# s1hl_dial                           -0.608437
# s1hr                                0.8
# s1hr_dial                           0.970938
# s1top                               0.8
# s1top_dial                          -0.461562
# s2bot                               0.45
# s2bot_dial                          1.36109
# s2hl                                0.45
# s2hl_dial                           -0.83375
# s2hr                                0.45
# s2hr_dial                           -0.118594
# s2top                               0.45
# s2top_dial                          1.44734
# w2theta                             32
# w2theta_dial                        32
# waxsch                              19.2605
# waxsch_dial                         -32.7355
# waxsh                               137.085
# waxsh_dial                          -43.5338
# waxsth                              26.0607
# waxsth_dial                         -19.4086
# waxsz                               67.0407
# waxsz_dial                          -23.7954
# wind                                65.9854
# wind_dial                           66.0041
# wpsi                                124
# wpsi_dial                           124
# wstod                               115
# wstod_dial                          115
# x                                   0
# x_dial                              1.00969
# z                                   0
# z_dial                              13.3172
# CountCutoff                         6807993
# DetectorModel                       Dectris EIGER2 Si 500K, S/N E-01-0554
# ThresholdSetting                    4023.88989258
# Saturation                          0
# FlatField                           Corrected
# BackgroundReductionExtra            0.02
# BackgroundCorrectionConstant        0.0026712
# Detector                            0
# Monitor                             0
# Pil_Roi0                            0
# SumForIntensity1                    3.07058e+08
# TransmittedFlux                     852940
# det                                 0
# mon                                 0
# pilai0                              3.07058e+08
# pilai1                              770362
# pilct0                              5.3185e+08
# pilct1                              770362
# pilroi0                             0
# pilroi1                             0
# sec                                 1
# title                               20251028_20perc_iodine_1.23mg_1_00357.edf
# usaxs0                              0
# Operation                           Azimuthal average I(q)
# Error_model                         ErrorModel.poisson
# Geometrical_correction              True
# Transmission_correction             True
# Thickness_correction                False
# Binning mode                        Uniform
# Binning factor                      1.0
# Psi                                 0.0
# Omega                               0.2499
# MaskInvalidPixels                   True
# DetectorEdge                        3
# MaskFiles                           ['WAXS_corrected.edf']
################################################################################
    q(A⁻¹)                Intensity(a.u.)            Sigma_I(a.u.)            
       0.693100             0.00412902855             0.00428922442           
       0.695741              0.0112320837             0.00577288241           
       0.698381              0.0214043973             0.00976173258           
       0.701021             0.00883750248             0.00886731962           
       0.703662             0.00845611338             0.00500671015           
       0.706302              0.0103696457             0.00429245909           
       0.708942              0.0143099062             0.00650824142           
       0.711583             0.00443252763             0.00313658297           
       0.714223             0.00293645346             0.00294742345           
       0.716864             0.00752237172             0.00308659148           
       0.719504             0.00586097234             0.00294004819           
       0.722144              0.0113849689             0.00379474288           
       0.724785              0.0143417995             0.00339742328           
       0.727425             0.00889634338             0.00361987565           
       0.730065             0.00583804158             0.00207425761           
       0.732706              0.0119194857             0.00248889515           
       0.735346             0.00703900543              0.0024932028           
       0.737987              0.0105165034             0.00215344959           
       0.740627             0.00582897876              0.0023921133           
       0.743267             0.00702804454             0.00175932034           
       0.745908             0.00676149709             0.00187222408           
       0.748548             0.00881083415             0.00196996877           
       0.751189              0.0104642821             0.00289282442           
       0.753829              0.0122090979             0.00287232944           
       0.756469             0.00874466194             0.00196018617           
       0.759110             0.00583295721             0.00168709967           
       0.761750             0.00645671124             0.00156950495           
       0.764390             0.00833526751             0.00186647529           
       0.767031             0.00654823824             0.00143259645           
       0.769671              0.0058628425             0.00169094853           
       0.772312              0.0064847942             0.00135386613           
       0.774952             0.00513651271             0.00162712727           
       0.777592             0.00543302516             0.00121889246           
       0.780233             0.00476185571             0.00137675423           
       0.782873             0.00766715766              0.0016708141           
       0.785513             0.00498141863             0.00143976373           
       0.788154             0.00695157996             0.00142278848           
       0.790794             0.00414123778             0.00131287294           
       0.793435              0.0084116293             0.00168092329           
       0.796075             0.00715813707             0.00149373653           
       0.798715             0.00695080724             0.00173941961           
       0.801356             0.00736964605             0.00154150866           
       0.803996             0.00869984257             0.00170754071           
       0.806637             0.00806886669             0.00130868119           
       0.809277             0.00746728084             0.00136266834           
       0.811917             0.00997423179             0.00147226606           
       0.814558             0.00769734346              0.0013442092           
       0.817198             0.00594118143             0.00112196129           
       0.819838             0.00802356406             0.00131958492           
       0.822479             0.00689077753             0.00143600812           
       0.825119             0.00625485126             0.00116446113           
       0.827760             0.00777111185             0.00131477343           
       0.830400              0.0068444185             0.00116132245           
       0.833040              0.0088489838             0.00138345458           
       0.835681             0.00644613182             0.00134234109           
       0.838321             0.00629136242             0.00111306202           
       0.840961             0.00767471947             0.00133944306           
       0.843602             0.00662877806             0.00114155916           
       0.846242             0.00782354991             0.00123999185           
       0.848883             0.00843618423             0.00131770048           
       0.851523              0.0072054971             0.00120267178           
       0.854163             0.00658737228             0.00122289853           
       0.856804             0.00750525211             0.00117366161           
       0.859444             0.00509526731            0.000947510836           
       0.862085             0.00786212245             0.00122671206           
       0.864725             0.00481149246            0.000982102211           
       0.867365             0.00810298514             0.00118183053           
       0.870006             0.00640885192             0.00100156856           
       0.872646             0.00776432271             0.00115602735           
       0.875286             0.00731735525             0.00107968333           
       0.877927             0.00605661613            0.000947852329           
       0.880567             0.00797422783             0.00112677771           
       0.883208             0.00810697454             0.00112541447           
       0.885848              0.0052051155             0.00093631399           
       0.888488             0.00620846935            0.000959119802           
       0.891129              0.0068663744              0.0010356822           
       0.893769             0.00842482084             0.00109791027           
       0.896410             0.00619218805            0.000877582075           
       0.899050             0.00601649355            0.000951311478           
       0.901690             0.00730524006             0.00114185774           
       0.904331             0.00701872207            0.000992269148           
       0.906971             0.00841392868             0.00115577759           
       0.909611             0.00617328436            0.000901212301           
       0.912252              0.0077004283             0.00103963903           
       0.914892             0.00804609432             0.00116132332           
       0.917533             0.00552973081            0.000910756001           
       0.920173             0.00709380486            0.000957074232           
       0.922813             0.00951535666             0.00116319992           
       0.925454             0.00712457456            0.000906341205           
       0.928094             0.00865453704             0.00106643985           
       0.930734             0.00882877871             0.00115964058           
       0.933375             0.00925292697             0.00117549868           
       0.936015             0.00837109831             0.00101545792           
       0.938656             0.00611086893            0.000930735478           
       0.941296             0.00686980034            0.000894348979           
       0.943936             0.00895601497             0.00100140236           
       0.946577             0.00781885604            0.000929484367           
       0.949217             0.00764008164            0.000844917002           
       0.951858             0.00643796179            0.000811901111           
       0.954498              0.0076852516             0.00102676808           
       0.957138             0.00786758721            0.000984193688           
       0.959779             0.00692704956            0.000910374985           
       0.962419             0.00908000183             0.00103535838           
       0.965059             0.00664980486            0.000931879796           
       0.967700             0.00791991939             0.00104159752           
       0.970340              0.0077023839            0.000908964323           
       0.972981             0.00691492011            0.000784678867           
       0.975621             0.00807205832            0.000901907104           
       0.978261             0.00734651209            0.000817549864           
       0.980902              0.0101207665              0.0011480874           
       0.983542             0.00857571343            0.000935888058           
       0.986182             0.00778615808            0.000875529321           
       0.988823             0.00789416946            0.000856016851           
       0.991463              0.0089826791            0.000974213143           
       0.994104             0.00875799819             0.00093839913           
       0.996744             0.00763834318            0.000893884737           
       0.999384             0.00743950634            0.000788958195           
       1.002025              0.0091953723             0.00097899888           
       1.004665             0.00653023848            0.000753962001           
       1.007306             0.00643797857            0.000744785192           
       1.009946             0.00689888345            0.000786296373           
       1.012586             0.00704424234            0.000773832044           
       1.015227             0.00873212366            0.000925593641           
       1.017867              0.0101483899            0.000958989019           
       1.020507             0.00646768667             0.00074156651           
       1.023148             0.00691091628            0.000827134028           
       1.025788             0.00774800067            0.000803035759           
       1.028429             0.00921612216            0.000917564038           
       1.031069             0.00833225588            0.000821014706           
       1.033709             0.00464860976            0.000651876692           
       1.036350             0.00780475451            0.000758622953           
       1.038990             0.00849375864            0.000805943566           
       1.041630             0.00847475322            0.000839666296           
       1.044271             0.00676629186            0.000705603265           
       1.046911             0.00928327658            0.000869356181           
       1.049552             0.00827639976            0.000862415073           
       1.052192             0.00923414355            0.000831811634           
       1.054832             0.00808175979            0.000785258236           
       1.057473             0.00801535551            0.000770912058           
       1.060113             0.00959907651            0.000822780312           
       1.062754             0.00889777418            0.000808775704           
       1.065394             0.00846136118            0.000833851491           
       1.068034             0.00768141807            0.000722878388           
       1.070675             0.00889360822              0.0008113701           
       1.073315             0.00828911834            0.000794538634           
       1.075955             0.00764652295            0.000720428926           
       1.078596              0.0088259962            0.000822608543           
       1.081236             0.00898970485            0.000794973124           
       1.083877             0.00780479456            0.000734086087           
       1.086517             0.00841920149             0.00081755134           
       1.089157             0.00837903335            0.000846275059           
       1.091798             0.00712869056            0.000684350572           
       1.094438             0.00919178063             0.00077458592           
       1.097078             0.00781144093            0.000684859481           
       1.099719             0.00919667939             0.00080378396           
       1.102359             0.00930672986            0.000757243745           
       1.105000             0.00838162463            0.000803560802           
       1.107640             0.00908714959            0.000800018879           
       1.110280             0.00838439028            0.000701162551           
       1.112921              0.0100152508            0.000823200435           
       1.115561             0.00950186887            0.000762066828           
       1.118202             0.00950393126            0.000762867677           
       1.120842             0.00981815487            0.000814925489           
       1.123482             0.00735688523            0.000702342525           
       1.126123             0.00992158378            0.000782324539           
       1.128763             0.00856263527            0.000731758326           
       1.131403             0.00864956665            0.000708682074           
       1.134044             0.00719736754            0.000665208081           
       1.136684             0.00937748689            0.000809546407           
       1.139325             0.00895787678            0.000728877355           
       1.141965              0.0100858602            0.000778520422           
       1.144605             0.00993635983            0.000736799355           
       1.147246             0.00908203495            0.000720905449           
       1.149886             0.00920397004            0.000723152442           
       1.152527             0.00910201731            0.000729593773           
       1.155167             0.00920397864            0.000697830839           
       1.157807             0.00760231357            0.000679989497           
       1.160448             0.00841468134            0.000698605155           
       1.163088             0.00822454706            0.000658795045           
       1.165728             0.00861253464            0.000692167778           
       1.168369             0.00944658261            0.000731605728           
       1.171009             0.00900655202            0.000693270013           
       1.173650             0.00847408839            0.000690109338           
       1.176290              0.0083745793            0.000670420335           
       1.178930             0.00989744581            0.000714321408           
       1.181571             0.00910808873            0.000698833415           
       1.184211             0.00856631144            0.000680133345           
       1.186851              0.0101206198            0.000722769649           
       1.189492             0.00923169086            0.000685654579           
       1.192132             0.00900398564            0.000669548153           
       1.194773             0.00969843018            0.000697924675           
       1.197413             0.00964189467            0.000666758728           
       1.200053              0.0098378848            0.000690613855           
       1.202694             0.00849190217            0.000610156575           
       1.205334               0.010379145            0.000726962891           
       1.207975             0.00999776928            0.000681038672           
       1.210615              0.0099833911            0.000750760937           
       1.213255              0.0107255508            0.000696830023           
       1.215896              0.0095577077            0.000669718757           
       1.218536             0.00947144234            0.000641050537           
       1.221176             0.00903248368            0.000680611543           
       1.223817              0.0094310862            0.000652846745           
       1.226457              0.0090645166            0.000652927801           
       1.229098             0.00974137727            0.000676833521           
       1.231738             0.00945271674            0.000670011409           
       1.234378              0.0105556218            0.000665291601           
       1.237019             0.00975571803            0.000659088536           
       1.239659               0.010359266            0.000673253954           
       1.242299             0.00880938411            0.000612962736           
       1.244940              0.0107115255            0.000657361961           
       1.247580             0.00959728266            0.000641262002           
       1.250221              0.0096779217             0.00063997699           
       1.252861              0.0108126082            0.000643987862           
       1.255501              0.0101737558            0.000678276056           
       1.258142              0.0109708978            0.000661860753           
       1.260782              0.0112094741             0.00068349428           
       1.263423              0.0108828432            0.000647121341           
       1.266063             0.00989360955            0.000632417152           
       1.268703              0.0102762344            0.000639181834           
       1.271344              0.0116808262            0.000704561395           
       1.273984              0.0111712454            0.000665458974           
       1.276624              0.0106448248             0.00063738707           
       1.279265             0.00984468573            0.000623143153           
       1.281905             0.00957413479            0.000617248252           
       1.284546              0.0102692232            0.000617904705           
       1.287186              0.0106214292            0.000616538449           
       1.289826              0.0112056153            0.000667411081           
       1.292467              0.0113646426            0.000657326039           
       1.295107              0.0103459241            0.000620943255           
       1.297747               0.011190842            0.000617977832           
       1.300388              0.0123789621            0.000708533556           
       1.303028              0.0111624557            0.000642313303           
       1.305669             0.00944946628            0.000605048848           
       1.308309              0.0111640824            0.000651178925           
       1.310949              0.0104503725            0.000629387387           
       1.313590              0.0110134091            0.000625922802           
       1.316230               0.011617559            0.000686022348           
       1.318871              0.0119425059            0.000681206135           
       1.321511              0.0109080069            0.000638966682           
       1.324151              0.0109162647            0.000620258317           
       1.326792              0.0104203046            0.000609750958           
       1.329432              0.0109833093            0.000621588966           
       1.332072              0.0114651566            0.000625612842           
       1.334713              0.0108873958            0.000629215083           
       1.337353              0.0112351382            0.000612990814           
       1.339994              0.0112815026            0.000644598737           
       1.342634              0.0108285808            0.000605594485           
       1.345274              0.0105385469            0.000618283168           
       1.347915              0.0111403538            0.000618137162           
       1.350555              0.0107271598             0.00061718884           
       1.353195               0.011195289            0.000633608739           
       1.355836              0.0113889341            0.000629099998           
       1.358476              0.0118601963            0.000623463759           
       1.361117               0.011664745            0.000619153899           
       1.363757              0.0107408523             0.00061226991           
       1.366397              0.0114514338             0.00061306743           
       1.369038              0.0108436111            0.000602515548           
       1.371678              0.0112682069            0.000608783618           
       1.374319              0.0110433503            0.000597489301           
       1.376959              0.0114608814             0.00060255835           
       1.379599              0.0106366828            0.000622107289           
       1.382240              0.0107615985            0.000588110687           
       1.384880               0.011058012            0.000631463629           
       1.387520               0.011300133            0.000606250538           
       1.390161              0.0118328203            0.000589207501           
       1.392801              0.0110712714            0.000593813679           
       1.395442              0.0115556477            0.000614950166           
       1.398082               0.012157289            0.000590675178           
       1.400722              0.0109222963            0.000586451146           
       1.403363              0.0105982859            0.000608085872           
       1.406003              0.0115954245            0.000595256226           
       1.408644               0.011261706             0.00061453087           
       1.411284              0.0114300492            0.000586239327           
       1.413924              0.0111470531            0.000576790233           
       1.416565              0.0105015537            0.000557641806           
       1.419205              0.0114667116            0.000607853242           
       1.421845              0.0109259385            0.000592998485           
       1.424486              0.0120622421            0.000598915403           
       1.427126              0.0115500487            0.000608804811           
       1.429767              0.0107735967            0.000553222765           
       1.432407              0.0111843396            0.000589893738           
       1.435047              0.0115989259            0.000564182815           
       1.437688              0.0118277083             0.00057823805           
       1.440328              0.0107170672            0.000561765568           
       1.442968              0.0104204313            0.000566347766           
       1.445609              0.0116793802            0.000580563865           
       1.448249              0.0114883627            0.000590375489           
       1.450890              0.0116512608             0.00059066576           
       1.453530              0.0125351079            0.000640965357           
       1.456170              0.0112274851            0.000588732215           
       1.458811              0.0114648899            0.000568878994           
       1.461451              0.0101706962             0.00053721492           
       1.464092              0.0119141957            0.000585241598           
       1.466732              0.0107743295            0.000551759499           
       1.469372              0.0111727445            0.000548718977           
       1.472013              0.0111198715            0.000590402418           
       1.474653              0.0109023602            0.000575581401           
       1.477293              0.0112411423            0.000596774233           
       1.479934              0.0126315239            0.000603637454           
       1.482574              0.0110945437            0.000547247596           
       1.485215              0.0113419627            0.000563621661           
       1.487855              0.0111805574              0.0005669789           
       1.490495              0.0112596379            0.000566884994           
       1.493136              0.0113433677            0.000561189785           
       1.495776              0.0101698878            0.000528950256           
       1.498416              0.0106797491            0.000559781661           
       1.501057              0.0108848164            0.000552675796           
       1.503697               0.010611481            0.000533501346           
       1.506338              0.0111704435            0.000557374597           
       1.508978              0.0118549206            0.000568550656           
       1.511618              0.0104986219            0.000569814645           
       1.514259              0.0119324256             0.00058649327           
       1.516899              0.0106438763            0.000539336358           
       1.519540              0.0115361672            0.000570542519           
       1.522180              0.0108145015            0.000557261311           
       1.524820              0.0103511976            0.000542135047           
       1.527461              0.0106891948             0.00055363975           
       1.530101              0.0106003828            0.000545821034           
       1.532741              0.0107757789            0.000547124437           
       1.535382               0.010413951            0.000546519258           
       1.538022              0.0108273582            0.000524969734           
       1.540663              0.0102338923            0.000548944937           
       1.543303              0.0103973983            0.000513759946           
       1.545943              0.0115567649             0.00057329296           
       1.548584              0.0113050051            0.000577192343           
       1.551224              0.0100719567            0.000503724893           
       1.553864                0.01076734            0.000550347514           
       1.556505              0.0103826074            0.000522065238           
       1.559145              0.0102600463            0.000525332132           
       1.561786              0.0101781517             0.00052363433           
       1.564426              0.0111772517            0.000531665245           
       1.567066              0.0101387941            0.000530573577           
       1.569707              0.0103852435            0.000527337426           
       1.572347              0.0097052288            0.000526654129           
       1.574988              0.0101444856            0.000512504961           
       1.577628              0.0102272971            0.000536593145           
       1.580268              0.0113662646            0.000548087134           
       1.582909              0.0102692209            0.000552203362           
       1.585549             0.00915401425            0.000506222011           
       1.588189              0.0100441725            0.000518690992           
       1.590830              0.0106461118            0.000533336989           
       1.593470              0.0107050431            0.000555987409           
       1.596111             0.00915431724            0.000501963055           
       1.598751             0.00984628298            0.000504433227           
       1.601391             0.00900888252            0.000493151723           
       1.604032             0.00875813651             0.00049640523           
       1.606672             0.00931842803            0.000497493102           
       1.609312             0.00918325567            0.000515544216           
       1.611953             0.00975167874            0.000519871214           
       1.614593             0.00973187039            0.000509434298           
       1.617234              0.0101515593            0.000539230013           
       1.619874              0.0091224016            0.000509147132           
       1.622514             0.00978451942            0.000520107673           
       1.625155             0.00883395119            0.000497117502           
       1.627795              0.0102436248            0.000522197589           
       1.630436             0.00966157741            0.000504496744           
       1.633076              0.0094121795            0.000504473509           
       1.635716             0.00904989046            0.000486972632           
       1.638357             0.00964081493            0.000503944828           
       1.640997             0.00939351803            0.000512507938           
       1.643637              0.0092611219            0.000495200878           
       1.646278             0.00879289087            0.000497680973           
       1.648918             0.00949097707            0.000518470168           
       1.651559             0.00883457804            0.000504102638           
       1.654199             0.00931914603            0.000503550415           
       1.656839             0.00907128801            0.000496982331           
       1.659480             0.00935326757            0.000523597986           
       1.662120             0.00996260314            0.000508952966           
       1.664761             0.00864680531            0.000492523229           
       1.667401             0.00797296278            0.000452032185           
       1.670041             0.00913574829            0.000491251155           
       1.672682             0.00898496026            0.000485177776           
       1.675322             0.00866732684            0.000473460405           
       1.677962              0.0098141956            0.000498254222           
       1.680603             0.00889141894             0.00047571139           
       1.683243             0.00855945779            0.000486963005           
       1.685884             0.00890448472            0.000500348454           
       1.688524             0.00981643736            0.000515190617           
       1.691164              0.0087879128            0.000487564893           
       1.693805             0.00861194706            0.000487961003           
       1.696445             0.00846760886            0.000486661257           
       1.699085             0.00847090654            0.000470445735           
       1.701726             0.00901930777            0.000467631998           
       1.704366             0.00837649705            0.000474757764           
       1.707007             0.00866447984            0.000472086608           
       1.709647             0.00870363458            0.000478495431           
       1.712287               0.008936658            0.000489078857           
       1.714928             0.00845793979            0.000479635272           
       1.717568             0.00810870498            0.000442392037           
       1.720209             0.00780905473            0.000454732566           
       1.722849             0.00841905291            0.000469731768           
       1.725489             0.00850580934            0.000472542261           
       1.728130             0.00824779565            0.000494504833           
       1.730770             0.00937896503            0.000500817826           
       1.733410             0.00835071868            0.000465139621           
       1.736051              0.0088656305            0.000482601467           
       1.738691             0.00882185524            0.000471649762           
       1.741332             0.00854413211            0.000477738857           
       1.743972             0.00823726766            0.000484406166           
       1.746612             0.00898276246            0.000485746386           
       1.749253              0.0079130072            0.000464909508           
       1.751893             0.00898914317             0.00049187782           
       1.754533             0.00915806483            0.000496014279           
       1.757174               0.008431268            0.000471468478           
       1.759814             0.00832672855            0.000461434383           
       1.762455              0.0078408268            0.000455990625           
       1.765095             0.00843795161            0.000452515722           
       1.767735             0.00869400105             0.00047350053           
       1.770376             0.00787769415            0.000451911711           
       1.773016             0.00833543482            0.000461741979           
       1.775657             0.00864120958            0.000463370308           
       1.778297             0.00854026422            0.000456689197           
       1.780937             0.00890444336            0.000492205612           
       1.783578             0.00798564839            0.000454465577           
       1.786218             0.00824387101            0.000481891739           
       1.788858             0.00902036914            0.000478750595           
       1.791499             0.00935275282            0.000482016355           
       1.794139             0.00950719235            0.000482036921           
       1.796780             0.00831670916             0.00044867427           
       1.799420             0.00899468326            0.000464019941           
       1.802060             0.00945405306            0.000479563984           
       1.804701             0.00907351953             0.00045085435           
       1.807341             0.00954554653            0.000485916451           
       1.809981             0.00943639955            0.000484741174           
       1.812622             0.00845127501            0.000450482496           
       1.815262              0.0082481327            0.000454489046           
       1.817903             0.00892392812            0.000465736845           
       1.820543             0.00929584841            0.000482749893           
       1.823183             0.00873579732            0.000467724507           
       1.825824             0.00926872388            0.000460273155           
       1.828464             0.00923138199            0.000478887068           
       1.831105             0.00893861916            0.000458203642           
       1.833745             0.00823374152            0.000449158364           
       1.836385             0.00825564448              0.0004625907           
       1.839026             0.00723966249             0.00043182349           
       1.841666             0.00891631803            0.000477526155           
       1.844306             0.00851938969            0.000454039906           
       1.846947             0.00757151495            0.000431788923           
       1.849587             0.00861606371            0.000508626498           
       1.852228             0.00795192289              0.0004418431           
       1.854868             0.00801637078            0.000468629471           
       1.857508             0.00811581836            0.000466902626           
       1.860149             0.00897318991            0.000499865627           
       1.862789                0.00850548            0.000469743347           
       1.865429             0.00841409688            0.000487698956           
       1.868070             0.00790389746            0.000466381609           
       1.870710             0.00807702257            0.000460592345           
       1.873351             0.00806041127            0.000465806586           
       1.875991             0.00840078544            0.000483300819           
       1.878631             0.00889996276            0.000487925255           
       1.881272             0.00833697742            0.000469076664           
       1.883912             0.00860818402            0.000496049092           
       1.886553             0.00865039158              0.0004917043           
       1.889193             0.00804079564            0.000473252522           
       1.891833             0.00804635885            0.000491661195           
       1.894474             0.00901137443            0.000515778123           
       1.897114             0.00831495623            0.000479433919           
       1.899754             0.00867026961            0.000491618714           
       1.902395             0.00867401404             0.00048211105           
       1.905035             0.00789661991            0.000487216886           
       1.907676             0.00917767037            0.000495051815           
       1.910316             0.00882438746            0.000498319111           
       1.912956             0.00857537824            0.000480430645           
       1.915597             0.00821535024            0.000472865421           
       1.918237             0.00702136587            0.000451474608           
       1.920878             0.00796725073            0.000478955619           
       1.923518             0.00804975421            0.000481633371           
       1.926158             0.00948889963            0.000516131884           
       1.928799             0.00742458131            0.000451265721           
       1.931439             0.00784879292            0.000476148117           
       1.934079             0.00808822046            0.000503886752           
       1.936720             0.00789120774            0.000461144707           
       1.939360             0.00827925541            0.000503928346           
       1.942001             0.00806687775            0.000455913689           
       1.944641             0.00824580156             0.00047002158           
       1.947281             0.00797817267            0.000458069529           
       1.949922             0.00748269709            0.000458217742           
       1.952562             0.00844587178            0.000502075801           
       1.955202             0.00766330879            0.000477667285           
       1.957843             0.00840895528            0.000487390703           
       1.960483             0.00801443105            0.000497469029           
       1.963124             0.00780669268            0.000480906717           
       1.965764             0.00826817253            0.000466720267           
       1.968404             0.00837024641            0.000465155463           
       1.971045             0.00880758894            0.000486482421           
       1.973685             0.00823050792            0.000493283436           
       1.976326             0.00743545708            0.000462409584           
       1.978966             0.00773337782            0.000475720956           
       1.981606              0.0081674425            0.000499085606           
       1.984247             0.00812103726             0.00049439384           
       1.986887             0.00780664127            0.000478922961           
       1.989527             0.00772394543            0.000471249274           
       1.992168             0.00807447188            0.000499932925           
       1.994808             0.00840020157            0.000507731246           
       1.997449             0.00780127081            0.000479247613           
       2.000089             0.00850334231            0.000498364221           
       2.002729             0.00759338372            0.000471226811           
       2.005370             0.00840603873            0.000490467026           
       2.008010             0.00794045515            0.000497495238           
       2.010650             0.00780857191            0.000497027753           
       2.013291             0.00732633959            0.000461910974           
       2.015931             0.00800522644            0.000479425008           
       2.018572             0.00862446431            0.000532254236           
       2.021212             0.00835236602            0.000514379941           
       2.023852             0.00804812438            0.000477887431           
       2.026493             0.00739510534            0.000478556109           
       2.029133              0.0085062064            0.000502920971           
       2.031774             0.00772898962            0.000503113992           
       2.034414             0.00734616746            0.000451324434           
       2.037054              0.0078710959            0.000479012427           
       2.039695             0.00729353436            0.000457620751           
       2.042335             0.00824473009             0.00050562928           
       2.044975             0.00726943019            0.000469024122           
       2.047616             0.00773146248            0.000482498162           
       2.050256             0.00725925229            0.000471955911           
       2.052897             0.00709437394            0.000475166797           
       2.055537             0.00751427729            0.000472625806           
       2.058177             0.00786505771            0.000473507731           
       2.060818             0.00803297471            0.000501303181           
       2.063458             0.00719515902             0.00049441493           
       2.066098             0.00733293789            0.000470843222           
       2.068739             0.00747575277            0.000482795845           
       2.071379              0.0077704493            0.000505057103           
       2.074020             0.00741068312            0.000482507468           
       2.076660              0.0077530467            0.000497516879           
       2.079300             0.00845754283            0.000532361373           
       2.081941             0.00795013869            0.000472589613           
       2.084581             0.00744250754            0.000482634891           
       2.087222             0.00835268908            0.000493095938           
       2.089862             0.00669938619            0.000480977213           
       2.092502             0.00717538629            0.000482517975           
       2.095143             0.00753335108            0.000510549579           
       2.097783             0.00738996397            0.000489571183           
       2.100423             0.00798586358            0.000490398165           
       2.103064             0.00791864051            0.000506707767           
       2.105704             0.00773421431            0.000498291904           
       2.108345             0.00755192603            0.000473050082           
       2.110985             0.00662707797            0.000473303784           
       2.113625             0.00764483928            0.000512786432           
       2.116266             0.00671626937            0.000487455206           
       2.118906             0.00787058733            0.000491772269           
       2.121546             0.00711054308            0.000458500327           
       2.124187             0.00709698085            0.000480824534           
       2.126827             0.00705867647            0.000484877064           
       2.129468              0.0073012792            0.000494398792           
       2.132108             0.00685008941            0.000465913093           
       2.134748             0.00773309486            0.000493111599           
       2.137389             0.00757007952            0.000508986771           
       2.140029             0.00921190152            0.000502667259           
       2.142670             0.00783373216             0.00049539872           
       2.145310             0.00777194433            0.000480275108           
       2.147950             0.00697084504            0.000468164336           
       2.150591             0.00752807257            0.000481599664           
       2.153231             0.00761500256            0.000498585982           
       2.155871             0.00807270565            0.000495931414           
       2.158512             0.00709975379            0.000485284751           
       2.161152             0.00687299533            0.000462509293           
       2.163793             0.00683507014            0.000459155048           
       2.166433             0.00742885341            0.000491557879           
       2.169073              0.0076858922            0.000488858066           
       2.171714             0.00757238308            0.000481607427           
       2.174354             0.00792719347             0.00051489007           
       2.176995              0.0077680193            0.000507549814           
       2.179635             0.00768749776            0.000533548586           
       2.182275             0.00737944454            0.000493558116           
       2.184916             0.00666010806            0.000452882802           
       2.187556             0.00697100453            0.000458688703           
       2.190196             0.00738258997            0.000493270823           
       2.192837             0.00759787193            0.000497688572           
       2.195477             0.00762130483            0.000475218071           
       2.198118             0.00716582451            0.000472606123           
       2.200758             0.00699005074            0.000478881534           
       2.203398             0.00756353542            0.000501325545           
       2.206039             0.00708134588            0.000459089212           
       2.208679             0.00713097582            0.000471416835           
       2.211319             0.00793571679            0.000500173447           
       2.213960             0.00806740035            0.000511063119           
       2.216600              0.0074912709            0.000509455929           
       2.219241             0.00735334795            0.000482399166           
       2.221881             0.00715048468            0.000476676508           
       2.224521             0.00735510973            0.000489373021           
       2.227162             0.00678807773            0.000460717837           
       2.229802             0.00672137199            0.000472799796           
       2.232443             0.00699767775            0.000474810812           
       2.235083             0.00781942847            0.000516721264           
       2.237723               0.007863533            0.000497265551           
       2.240364              0.0066699497            0.000469256502           
       2.243004             0.00721509127            0.000484160399           
       2.245644             0.00610232997              0.0004497194           
       2.248285             0.00690789961            0.000468897867           
       2.250925             0.00637670758            0.000453245691           
       2.253566             0.00761704191            0.000529587115           
       2.256206             0.00810099387             0.00053523148           
       2.258846              0.0071086961            0.000476951581           
       2.261487             0.00710007179            0.000500301168           
       2.264127             0.00734051062            0.000491296156           
       2.266767             0.00752045375            0.000510530383           
       2.269408             0.00707202338            0.000497102823           
       2.272048             0.00829747663            0.000535238418           
       2.274689             0.00673863185            0.000488703173           
       2.277329             0.00778634564            0.000494625137           
       2.279969             0.00695141715            0.000497471633           
       2.282610              0.0074013458            0.000499041801           
       2.285250             0.00792467158            0.000494249017           
       2.287891             0.00726211763            0.000507274192           
       2.290531             0.00681238711            0.000497920471           
       2.293171             0.00749557439            0.000508758943           
       2.295812             0.00796367676             0.00052229657           
       2.298452             0.00688181732            0.000507730515           
       2.301092             0.00731607603            0.000486400433           
       2.303733             0.00755296965            0.000514153635           
       2.306373              0.0074122499            0.000517362872           
       2.309014             0.00728727866            0.000502975799           
       2.311654             0.00684186432            0.000508585336           
       2.314294             0.00780404473            0.000500425337           
       2.316935             0.00741072404            0.000489666388           
       2.319575              0.0064715889            0.000479447206           
       2.322215              0.0069043709            0.000516101905           
       2.324856              0.0066882411             0.00046701638           
       2.327496             0.00734485089            0.000520390288           
       2.330137             0.00733341417            0.000497586724           
       2.332777             0.00713976019            0.000506245369           
       2.335417             0.00717606362            0.000492380748           
       2.338058             0.00705864888            0.000502923632           
       2.340698             0.00665946479            0.000484657093           
       2.343339             0.00685186027            0.000502426544           
       2.345979             0.00715217379            0.000485640621           
       2.348619              0.0075168392            0.000516066136           
       2.351260             0.00636277769             0.00047203413           
       2.353900             0.00732081455            0.000504721483           
       2.356540             0.00693782474            0.000490644371           
       2.359181             0.00816958459            0.000524956687           
       2.361821             0.00734345251            0.000480771567           
       2.364462             0.00665339539            0.000478619103           
       2.367102             0.00790248972            0.000536043171           
       2.369742             0.00664460689             0.00051737215           
       2.372383             0.00703560601            0.000482065919           
       2.375023             0.00826004813            0.000549084533           
       2.377663             0.00654081867            0.000467184653           
       2.380304             0.00790399896             0.00052212872           
       2.382944             0.00745524403             0.00048298721           
       2.385585             0.00690354982            0.000495688459           
       2.388225             0.00630776176            0.000471590097           
       2.390865             0.00749462679            0.000508765668           
       2.393506             0.00755186085            0.000501069572           
       2.396146              0.0064925252            0.000502344931           
       2.398787             0.00679521443            0.000473618542           
       2.401427             0.00780636034            0.000489984641           
       2.404067             0.00643297739            0.000454720905           
       2.406708             0.00706433339             0.00047079856           
       2.409348             0.00695317161             0.00049542941           
       2.411988             0.00676607407            0.000478835912           
       2.414629             0.00626777996             0.00047521973           
       2.417269             0.00770395906            0.000533010433           
       2.419910             0.00704269442            0.000510804532           
       2.422550             0.00661661296            0.000473692342           
       2.425190             0.00614982854            0.000481386202           
       2.427831             0.00703595966            0.000512006643           
       2.430471             0.00745115385             0.00050197113           
       2.433112             0.00776068634            0.000498849682           
       2.435752             0.00595989993            0.000462650381           
       2.438392             0.00701679767            0.000484531689           
       2.441033             0.00785243827             0.00054322341           
       2.443673             0.00699686434            0.000513170506           
       2.446313             0.00715621928            0.000519438967           
       2.448954             0.00750798866            0.000506588379           
       2.451594              0.0069423215            0.000523779669           
       2.454235             0.00761528117            0.000514707245           
       2.456875             0.00734371383            0.000528878186           
       2.459515             0.00822243006             0.00057411322           
       2.462156             0.00728773421            0.000510304946           
       2.464796             0.00828580514              0.0005371076           
       2.467436             0.00781170003            0.000539307655           
       2.470077             0.00815511113            0.000522280639           
       2.472717             0.00813416649            0.000523869027           
       2.475358              0.0077449468            0.000516511961           
       2.477998             0.00762245084            0.000503772524           
       2.480638             0.00713186343            0.000495950028           
       2.483279             0.00726275048            0.000523081678           
       2.485919             0.00705498828            0.000496846069           
       2.488560             0.00734284751             0.00050546464           
       2.491200             0.00652798277             0.00049076525           
       2.493840             0.00863535638            0.000597260586           
       2.496481             0.00594955752            0.000487644356           
       2.499121             0.00698812343            0.000514046111           
       2.501761             0.00791022885            0.000554156864           
       2.504402             0.00715332364            0.000519278457           
       2.507042             0.00653444681            0.000492630828           
       2.509683             0.00730525853            0.000512915923           
       2.512323             0.00698918443            0.000526906652           
       2.514963             0.00758358317             0.00054207423           
       2.517604             0.00788479908            0.000573547415           
       2.520244             0.00688944324            0.000502618184           
       2.522884             0.00916192859            0.000587904001           
       2.525525              0.0121932228              0.0006859205           
       2.528165              0.0108724367            0.000637609835           
       2.530806              0.0110746873            0.000654729545           
       2.533446             0.00840280487            0.000558133715           
       2.536086             0.00748867873            0.000522184669           
       2.538727             0.00700582051            0.000484537277           
       2.541367             0.00672115404            0.000479266076           
       2.544008             0.00695648899            0.000503555678           
       2.546648             0.00655743307            0.000497285197           
       2.549288             0.00650402503            0.000505347201           
       2.551929             0.00672256918            0.000505577702           
       2.554569             0.00658904471              0.0004822203           
       2.557209             0.00747401052            0.000518300198           
       2.559850             0.00678494069            0.000495415884           
       2.562490             0.00695021596            0.000518237806           
       2.565131             0.00744102801            0.000555981399           
       2.567771             0.00706512127            0.000522333971           
       2.570411             0.00729047967            0.000524858094           
       2.573052             0.00696677416            0.000519535101           
       2.575692             0.00653853033            0.000500266286           
       2.578332             0.00690593606            0.000516255459           
       2.580973             0.00682159482            0.000508211382           
       2.583613             0.00666910061            0.000490533869           
       2.586254             0.00773457428            0.000527532944           
       2.588894             0.00717732082            0.000527714585           
       2.591534             0.00607119507            0.000502428299           
       2.594175             0.00872950318            0.000591096076           
       2.596815             0.00679485883             0.00052457395           
       2.599456             0.00736315231            0.000517835734           
       2.602096             0.00694149277            0.000506616312           
       2.604736             0.00701341947            0.000521309348           
       2.607377             0.00744732849             0.00052303683           
       2.610017             0.00663718976            0.000485128569           
       2.612657              0.0067050844            0.000518639899           
       2.615298              0.0066167556            0.000503009428           
       2.617938             0.00643482281            0.000530642356           
       2.620579             0.00770121874            0.000557288393           
       2.623219             0.00675888609             0.00052133672           
       2.625859             0.00686606946            0.000510888844           
       2.628500             0.00769376357            0.000537261528           
       2.631140             0.00761405681            0.000542706582           
       2.633780             0.00800215224            0.000555882154           
       2.636421             0.00707509449            0.000535545498           
       2.639061              0.0071512515            0.000506860653           
       2.641702              0.0064645367            0.000493066873           
       2.644342             0.00666999973            0.000502975251           
       2.646982             0.00791733409            0.000539798373           
       2.649623             0.00755392608            0.000552551922           
       2.652263             0.00749118174            0.000544730575           
       2.654904             0.00724282249            0.000536163445           
       2.657544             0.00685339295            0.000491246168           
       2.660184             0.00764809009            0.000549196856           
       2.662825             0.00734754019            0.000550786126           
       2.665465             0.00617522215            0.000488358488           
       2.668105             0.00699825916            0.000547978936           
       2.670746             0.00646320826            0.000486479627           
       2.673386             0.00943812877            0.000605850279           
       2.676027             0.00738531726            0.000527327337           
       2.678667              0.0100529344             0.00060031708           
       2.681307              0.0103492012             0.00059847414           
       2.683948              0.0161756811            0.000768750659           
       2.686588              0.0135202449            0.000691168505           
       2.689229              0.0103342739            0.000590468488           
       2.691869              0.0090297301            0.000583348728           
       2.694509             0.00822529855            0.000557064239           
       2.697150             0.00745040333            0.000521573549           
       2.699790             0.00753610564            0.000549930848           
       2.702430             0.00796442312             0.00054039962           
       2.705071             0.00711196045            0.000527671583           
       2.707711             0.00708630218            0.000511220132           
       2.710352             0.00811373491             0.00057800217           
       2.712992             0.00833764983            0.000596757199           
       2.715632             0.00750706363            0.000525370893           
       2.718273             0.00705940481            0.000527992696           
       2.720913             0.00706011826            0.000526516989           
       2.723553             0.00745408753            0.000544637847           
       2.726194             0.00765933238            0.000577110913           
       2.728834             0.00651637733            0.000532562584           
       2.731475             0.00826078335            0.000553399288           
       2.734115             0.00751037033            0.000544041771           
       2.736755              0.0068222377             0.00052278721           
       2.739396             0.00620903167             0.00049584954           
       2.742036             0.00719719432            0.000558708364           
       2.744677             0.00619866545            0.000503092446           
       2.747317             0.00636320292            0.000506091043           
       2.749957             0.00585294048            0.000488781746           
       2.752598             0.00758535575            0.000562475634           
       2.755238             0.00737793274            0.000564745987           
       2.757878             0.00811459411            0.000587090929           
       2.760519             0.00889638106            0.000608203823           
       2.763159              0.0081883185             0.00057766756           
       2.765800             0.00755246517            0.000528701782           
       2.768440             0.00739410218            0.000526983241           
       2.771080             0.00752141234            0.000535937115           
       2.773721             0.00706682951            0.000532889954           
       2.776361             0.00764077398            0.000561751799           
       2.779001             0.00795951124            0.000593760896           
       2.781642             0.00605941981            0.000514246713           
       2.784282             0.00705953679            0.000564192798           
       2.786923             0.00688406193            0.000562042238           
       2.789563             0.00713340095            0.000551028599           
       2.792203             0.00711157283            0.000525583674           
       2.794844             0.00619003859            0.000537415014           
       2.797484             0.00730225804            0.000550872943           
       2.800125             0.00744228241            0.000584770357           
       2.802765             0.00735985324            0.000571518782           
       2.805405             0.00700916903            0.000559624388           
       2.808046             0.00554307857            0.000506415795           
       2.810686             0.00748851676            0.000540866621           
       2.813326             0.00609896123            0.000507014507           
       2.815967             0.00604352026             0.00051905502           
       2.818607             0.00645012368            0.000511711975           
       2.821248             0.00621760239            0.000491973558           
       2.823888             0.00745623498            0.000559239758           
       2.826528             0.00761216665             0.00054722995           
       2.829169             0.00672587781             0.00053879182           
       2.831809             0.00709076261             0.00056073868           
       2.834449             0.00764012258            0.000585733661           
       2.837090             0.00597831858            0.000500432336           
       2.839730             0.00737130683            0.000552971149           
       2.842371               0.007531213             0.00055974347           
       2.845011             0.00721718269            0.000552317052           
       2.847651             0.00627120932            0.000515481761           
       2.850292             0.00647325686            0.000528859756           
       2.852932             0.00683962168            0.000555466932           
       2.855573             0.00606695667            0.000507471871           
       2.858213             0.00725934756            0.000582927818           
       2.860853             0.00654352015            0.000514827725           
       2.863494             0.00767614993            0.000577323866           
       2.866134             0.00684972784            0.000566835639           
       2.868774             0.00748674708            0.000582411602           
       2.871415             0.00737451891             0.00058703353           
       2.874055             0.00730958072            0.000558655006           
       2.876696              0.0071642079            0.000568031663           
       2.879336             0.00703418179            0.000542482406           
       2.881976             0.00627036967            0.000528281791           
       2.884617             0.00738032168            0.000564717359           
       2.887257             0.00715390712            0.000558857409           
       2.889897             0.00644889027            0.000519685248           
       2.892538             0.00678589684            0.000584003365           
       2.895178              0.0065654961            0.000518969247           
       2.897819             0.00694188638             0.00054436157           
       2.900459              0.0066380344            0.000521959494           
       2.903099             0.00682738273            0.000523933023           
       2.905740             0.00647502544            0.000523434874           
       2.908380             0.00614856796            0.000515864536           
       2.911021              0.0073895557            0.000574727514           
       2.913661              0.0072434918            0.000568848583           
       2.916301             0.00751503957            0.000579965678           
       2.918942             0.00691508869            0.000532147069           
       2.921582             0.00754124415            0.000581440906           
       2.924222             0.00643798793            0.000520471233           
       2.926863             0.00716976899            0.000572112761           
       2.929503             0.00733303282             0.00058544473           
       2.932144             0.00666403008            0.000535742533           
       2.934784             0.00749456817            0.000558831328           
       2.937424             0.00750280202            0.000564878785           
       2.940065             0.00709222912            0.000523890184           
       2.942705               0.006332597            0.000494418378           
       2.945346             0.00684463895             0.00054550397           
       2.947986             0.00705806494            0.000564830668           
       2.950626             0.00738056286            0.000574338651           
       2.953267             0.00773744005            0.000578558937           
       2.955907             0.00679654876            0.000562501584           
       2.958547              0.0070998684            0.000542750556           
       2.961188             0.00754118256            0.000583573293           
       2.963828             0.00714063742            0.000555475755           
       2.966469             0.00678094065            0.000531017781           
       2.969109             0.00728091933             0.00055839913           
       2.971749             0.00629156229            0.000515837736           
       2.974390             0.00801101972            0.000571993643           
       2.977030             0.00726013494            0.000556696503           
       2.979670             0.00866794634            0.000591670398           
       2.982311             0.00809839283            0.000592747017           
       2.984951             0.00856955696            0.000579922334           
       2.987592              0.0065786186            0.000518287335           
       2.990232             0.00627443286            0.000526404171           
       2.992872             0.00684692634             0.00051797018           
       2.995513              0.0079480059            0.000545972811           
       2.998153              0.0121321346            0.000685877596           
       3.000794              0.0132574096            0.000694469269           
       3.003434              0.0109043452             0.00063078118           
       3.006074              0.0321662772             0.00106819178           
       3.008715               0.097123795             0.00179176094           
       3.011355               0.229584018             0.00265650483           
       3.013995               0.142597865             0.00209930867           
       3.016636              0.0792370287              0.0015323983           
       3.019276               0.138052686             0.00198826619           
       3.021917               0.486135472             0.00358758288           
       3.024557                1.34558855             0.00586826081           
       3.027197                1.16411811             0.00532148642           
       3.029838               0.586561055             0.00383096378           
       3.032478               0.268409597             0.00259413045           
       3.035118               0.068329884             0.00132643483           
       3.037759              0.0828282284             0.00145850884           
       3.040399               0.101085143               0.001662047           
       3.043040               0.412972514             0.00340056558           
       3.045680               0.407499924             0.00317818009           
       3.048320               0.112450251             0.00170585502           
       3.050961               0.113648368             0.00174513584           
       3.053601              0.0912310111             0.00150591286           
       3.056242              0.0738311503             0.00144035144           
       3.058882               0.066486158             0.00146620195           
       3.061522              0.0480077607             0.00122237844           
       3.064163              0.0616287276             0.00136753366           
       3.066803               0.127723798             0.00207263052           
       3.069443                0.11857693             0.00208941213           
       3.072084              0.0405521873              0.0011897921           
       3.074724              0.0399622838             0.00131902634           
       3.077365              0.0742719957             0.00186146318           
       3.080005              0.0137635387             0.00080586248           
       3.082645              0.0126172562            0.000810557933           
       3.085286              0.0145762405            0.000878086602           
       3.087926             0.00996176005            0.000720315041           
       3.090566              0.0118974254            0.000771296704           
       3.093207              0.0125009007            0.000822717828           
       3.095847             0.00911694149            0.000673426201           
       3.098488             0.00954433213            0.000764016459           
       3.101128              0.0100965043            0.000790859801           
       3.103768             0.00881973217            0.000725259166           
       3.106409             0.00864773292            0.000764307408           
       3.109049             0.00890142113             0.00074414864           
       3.111690             0.00805446991            0.000695710073           
       3.114330             0.00854482902            0.000731818649           
       3.116970             0.00827339947            0.000725629923           
       3.119611              0.0101434849            0.000855235135           
       3.122251              0.0165868583             0.00114398316           
       3.124891              0.0336750744             0.00164519905           
       3.127532               0.027040229             0.00144223971           
       3.130172              0.0158301184               0.001122573           
       3.132813              0.0103982136            0.000895678989           
       3.135453             0.00672356746            0.000714300114           
       3.138093             0.00695847119            0.000787373603           
       3.140734             0.00651806007            0.000703049219           
       3.143374             0.00890852933            0.000869216361           
       3.146014             0.00655651552            0.000802775043           
       3.148655             0.00720471599            0.000782273116           
       3.151295             0.00529071708            0.000714371966           
       3.153936             0.00656149567            0.000768479215           
       3.156576             0.00568734861            0.000705728723           
       3.159216              0.0058314218            0.000718186001           
       3.161857             0.00559087631            0.000700355527           
       3.164497             0.00812729651            0.000887228131           
       3.167138             0.00889802011             0.00095920594           
       3.169778             0.00637283076            0.000798379826           
       3.172418             0.00724720669            0.000842730258           
       3.175059             0.00607745512            0.000684169362           
       3.177699             0.00654859228            0.000752051997           
       3.180339             0.00445294722            0.000664444043           
       3.182980             0.00517820857            0.000740802204           
       3.185620             0.00626823967            0.000830061032           
       3.188261             0.00623837408            0.000842858639           
       3.190901             0.00712158419            0.000828243703           
       3.193541             0.00584612512            0.000788509514           
       3.196182             0.00391197582             0.00067219994           
       3.198822             0.00599341819            0.000832306372           
       3.201463             0.00647104251            0.000849934714           
       3.204103             0.00549395032            0.000778377789           
       3.206743             0.00463278715             0.00071470773           
       3.209384             0.00488710302             0.00079309188           
       3.212024             0.00613601427            0.000828519954           
       3.214664              0.0052017964            0.000867463779           
       3.217305             0.00404151457            0.000726825955           
       3.219945             0.00553900671            0.000875787206           
       3.222586             0.00677582345            0.000922616253           
       3.225226             0.00573114015            0.000941297499           
       3.227866             0.00632377386            0.000903724337           
       3.230507             0.00567775454            0.000887669261           
       3.233147             0.00594320356            0.000915516045           
       3.235787             0.00619399036            0.000956479671           
       3.238428              0.0065447378             0.00106098437           
       3.241068             0.00660250809            0.000996441987           
       3.243709             0.00640656194             0.00101409159           
       3.246349             0.00493530512            0.000811377132           
       3.248989             0.00669337247             0.00111572267           
       3.251630             0.00518497916            0.000945630026           
       3.254270             0.00645712867            0.000943133646           
       3.256911             0.00605526704            0.000996527052           
       3.259551             0.00589377379             0.00105844717           
       3.262191             0.00493278038             0.00098908925           
       3.264832             0.00517461482             0.00105847993           
       3.267472             0.00625247755             0.00109149639           
       3.270112             0.00650246023              0.0012301199           
       3.272753              0.0070451226             0.00117200012           
       3.275393             0.00529958326             0.00103717661           
       3.278034             0.00548159774             0.00105543107           
       3.280674             0.00429068831             0.00101326978           
       3.283314             0.00613757233             0.00108385087           
       3.285955             0.00407987181            0.000911762579           
       3.288595             0.00378769657            0.000977373888           
       3.291235             0.00529318663             0.00118773963           
       3.293876             0.00600594878             0.00128336389           
       3.296516             0.00682893329             0.00131376237           
       3.299157             0.00592406229             0.00120825512           
       3.301797             0.00863022343             0.00166351037           
       3.304437              0.0055111612             0.00115171476           
       3.307078             0.00434484626             0.00112646932           
       3.309718             0.00746999858             0.00152457123           
       3.312359             0.00780268437             0.00155852092           
       3.314999             0.00662347536             0.00141379162           
       3.317639             0.00580784755             0.00126613268           
       3.320280             0.00686241662             0.00146328098           
       3.322920             0.00710518327             0.00151399901           
       3.325560             0.00352727943             0.00106746301           
       3.328201             0.00523491345             0.00117119577           
       3.330841             0.00426126666             0.00128604743           
       3.333482             0.00589049297             0.00142922548           
       3.336122             0.00624120271             0.00147183343           
       3.338762             0.00277065619             0.00113280734           
       3.341403             0.00337648476             0.00119493975           
       3.344043             0.00503164593              0.0014004809           
       3.346683             0.00648632663             0.00162335173           
       3.349324             0.00667757058             0.00185189298           
       3.351964             0.00341779706             0.00140102161           
       3.354605             0.00753870724             0.00237965693           
       3.357245             0.00478133586              0.0017096149           
       3.359885             0.00313328579             0.00110766707           
       3.362526             0.00485366344             0.00172402001           
       3.365166             0.00431431799             0.00153307846           
       3.367807             0.00173118274             0.00124285587           
       3.370447             0.00305329439             0.00136916968           
       3.373087             0.00560745515             0.00198418926           
       3.375728             0.00717833759             0.00253367763           
       3.378368             0.00399847858             0.00280644609           
       3.381008              0.0043584867             0.00218451643           
       3.383649             0.00557774084             0.00198244469           
       3.386289             0.00489340457             0.00219764741           
       3.388930             0.00500905821             0.00351701166           
       3.391570             0.00732994372             0.00300959861           
       3.394210              0.0019777459             0.00197839712           
       3.396851             0.00242765785             0.00245186052           
       3.399491             0.00479580527             0.00344710794           
       3.402131              0.0096762203              0.0069274512           
       3.404772             0.00968212951              0.0098022511           
       3.407412                       nan                       nan           
       3.410053           -2.65739145e-05                         0           
       3.412693                       nan                       nan           
       3.415333             0.00902121253              0.0094824723           
