################################################################################
# EDF_DataBlockID                     0.Image.Psd
# EDF_BinarySize                      2105344
# EDF_HeaderSize                      2560
# ByteOrder                           LowByteFirst
# DataType                            FloatValue
# Dim_1                               512
# Dim_2                               1028
# Image                               0
# HeaderID                            EH:000000:000000:000000
# Size                                2105344
# Center_1                            304.9000
# Center_2                            588.7000
# Comment                             Xenocs_Cell_Window - 20251028_20perc_iodine_1.23mg
# DDummy                              0.6
# Date                                2025-10-28T23:51:35
# Delta                               21.910000
# Dummy                               -1.5
# ExposureTime                        360
# Gamma                               15.360000
# Intensity1                          8.518e-10
# PSize_1                             7.5e-05
# PSize_2                             7.5e-05
# Pressure                            0.0339108
# SampleDistance                      0.115750
# SampleEnvKind                       large
# SampleEnvPN                         ElectroChemical cell
# SampleEnvSN                         1141
# Thickness                           0
# Wavelength                          1.541891e-10
# Wavelength                          1.54189e-10
# aux                                 0
# aux_dial                            0.002375
# beamx                               588.434
# beamx_dial                          588.434
# beamz                               657.808
# beamz_dial                          657.808
# det0x                               0
# det0x_dial                          6.36945
# det0xvd                             0
# det0xvd_dial                        0
# det0y                               450.002
# det0y_dial                          481.635
# det0z                               0
# det0z_dial                          1.23302
# det0zvd                             0
# det0zvd_dial                        0
# mag                                 1.818
# mag_dial                            1.818
# om                                  0.2499
# om_dial                             -0.610199
# phi                                 -0.0120535
# phi_dial                            0
# ry                                  0.599993
# ry_dial                             0.599993
# s1bot                               0.8
# s1bot_dial                          -1.66094
# s1hl                                0.8
# s1hl_dial                           -0.608437
# s1hr                                0.8
# s1hr_dial                           0.970938
# s1top                               0.8
# s1top_dial                          -0.461562
# s2bot                               0.45
# s2bot_dial                          1.36109
# s2hl                                0.45
# s2hl_dial                           -0.83375
# s2hr                                0.45
# s2hr_dial                           -0.118594
# s2top                               0.45
# s2top_dial                          1.44734
# w2theta                             32
# w2theta_dial                        32
# waxsch                              19.2605
# waxsch_dial                         -32.7355
# waxsh                               137.085
# waxsh_dial                          -43.5338
# waxsth                              26.0607
# waxsth_dial                         -19.4086
# waxsz                               67.0407
# waxsz_dial                          -23.7954
# wind                                65.9854
# wind_dial                           66.0041
# wpsi                                124
# wpsi_dial                           124
# wstod                               115
# wstod_dial                          115
# x                                   0
# x_dial                              1.00969
# z                                   0
# z_dial                              13.3172
# CountCutoff                         6807993
# DetectorModel                       Dectris EIGER2 Si 500K, S/N E-01-0554
# ThresholdSetting                    4023.88989258
# Saturation                          0
# FlatField                           Corrected
# BackgroundReductionExtra            0.02
# BackgroundCorrectionConstant        0.0026712
# Detector                            0
# Monitor                             0
# Pil_Roi0                            0
# SumForIntensity1                    3.06648e+08
# TransmittedFlux                     851800
# det                                 0
# mon                                 0
# pilai0                              3.06648e+08
# pilai1                              777687
# pilct0                              5.31301e+08
# pilct1                              777687
# pilroi0                             0
# pilroi1                             0
# sec                                 1
# title                               20251028_20perc_iodine_1.23mg_1_00086.edf
# usaxs0                              0
# Operation                           Azimuthal average I(q)
# Error_model                         ErrorModel.poisson
# Geometrical_correction              True
# Transmission_correction             True
# Thickness_correction                False
# Binning mode                        Uniform
# Binning factor                      1.0
# Psi                                 0.0
# Omega                               0.2499
# MaskInvalidPixels                   True
# DetectorEdge                        3
# MaskFiles                           ['WAXS_corrected.edf']
################################################################################
    q(A⁻¹)                Intensity(a.u.)            Sigma_I(a.u.)            
       0.693100             0.00414188342             0.00429876977           
       0.695741              0.0111682779              0.0057603129           
       0.698381             0.00428746283             0.00437185763           
       0.701021             0.00884933009             0.00887918713           
       0.703662             0.00282822657             0.00289744081           
       0.706302             0.00704877163             0.00354137037           
       0.708942             0.00572443923             0.00411909832           
       0.711583             0.00221928702             0.00222089596           
       0.714223           -2.37394399e-05                         0           
       0.716864             0.00503941278             0.00252802956           
       0.719504              0.0029686933             0.00209383619           
       0.722144             0.00501447354             0.00252011017           
       0.724785             0.00879095925             0.00266168337           
       0.727425              0.0103826739             0.00391320782           
       0.730065             0.00731540529             0.00232347883           
       0.732706             0.00934489032             0.00220523751           
       0.735346             0.00882637429             0.00279372432           
       0.737987             0.00656957154              0.0017031699           
       0.740627              0.0107213302             0.00324638685           
       0.743267             0.00795777358             0.00187332825           
       0.745908              0.0078363083             0.00201689168           
       0.748548             0.00439810138             0.00139275225           
       0.751189             0.00481178905             0.00196295828           
       0.753829             0.00267828409             0.00134620502           
       0.756469             0.00434494207             0.00138263717           
       0.759110             0.00929364733             0.00213098239           
       0.761750             0.00610489558             0.00152716707           
       0.764390             0.00622469552              0.0016140313           
       0.767031             0.00750977088             0.00153520155           
       0.769671             0.00487957841             0.00154368203           
       0.772312             0.00563952986               0.001263396           
       0.774952             0.00774166331             0.00199891766           
       0.777592             0.00571797698             0.00125128476           
       0.780233             0.00557336763             0.00149045055           
       0.782873             0.00583422346             0.00145845451           
       0.785513             0.00543272538             0.00150457558           
       0.788154             0.00756561322             0.00148528936           
       0.790794             0.00748894348             0.00176668172           
       0.793435              0.0067330606             0.00150488917           
       0.796075             0.00684570951             0.00146175185           
       0.798715             0.00869977446             0.00194729236           
       0.801356              0.0072980412             0.00153502776           
       0.803996             0.00462555801             0.00124591341           
       0.806637             0.00870515275             0.00136021078           
       0.809277             0.00747910516             0.00136465907           
       0.811917             0.00610521099             0.00115262314           
       0.814558             0.00697950661             0.00128085278           
       0.817198             0.00595368529             0.00112389264           
       0.819838             0.00579173597             0.00112188536           
       0.822479             0.00481482184             0.00120116679           
       0.825119              0.0091350559             0.00140819413           
       0.827760             0.00778082544             0.00131647495           
       0.830400             0.00864373835             0.00130594766           
       0.833040             0.00714874649             0.00124429563           
       0.835681             0.00588814423             0.00128378689           
       0.838321             0.00670837669             0.00115012794           
       0.840961             0.00910704866             0.00146006521           
       0.843602             0.00704139989             0.00117733922           
       0.846242             0.00683303071              0.0011596155           
       0.848883             0.00824287483              0.0013033872           
       0.851523             0.00703296339             0.00118898055           
       0.854163              0.0100027272             0.00150793963           
       0.856804             0.00660921983             0.00110211212           
       0.859444             0.00598428183             0.00102753622           
       0.862085             0.00573742023             0.00104862809           
       0.864725             0.00723197932              0.0012048578           
       0.867365             0.00517386587            0.000944997562           
       0.870006              0.0061179551            0.000979228695           
       0.872646             0.00776118406             0.00115656683           
       0.875286             0.00730163515             0.00107924442           
       0.877927             0.00549507384            0.000903447346           
       0.880567             0.00621633987            0.000995523984           
       0.883208             0.00732996798             0.00107083992           
       0.885848             0.00925039097             0.00124904129           
       0.888488             0.00608166217            0.000949909335           
       0.891129             0.00701309309             0.00104738897           
       0.893769             0.00699424488             0.00100103059           
       0.896410             0.00706755829            0.000938189997           
       0.899050             0.00705996612             0.00103119961           
       0.901690             0.00784806463             0.00118431291           
       0.904331             0.00788031764             0.00105211388           
       0.906971             0.00857006299             0.00116723227           
       0.909611             0.00633238111            0.000913361949           
       0.912252             0.00743887203             0.00102251362           
       0.914892             0.00721545191             0.00110048159           
       0.917533             0.00508777677            0.000874187301           
       0.920173             0.00645484624            0.000913564843           
       0.922813             0.00610402015            0.000932266827           
       0.925454             0.00783496705            0.000951089237           
       0.928094              0.0064159564             0.00091883085           
       0.930734              0.0060842626             0.00096331315           
       0.933375             0.00747081965             0.00105695653           
       0.936015             0.00515665589            0.000797526659           
       0.938656             0.00726218862             0.00101531072           
       0.941296             0.00769474463            0.000947158119           
       0.943936               0.007733283            0.000931158433           
       0.946577             0.00662682371            0.000856275688           
       0.949217             0.00708147196            0.000813986576           
       0.951858             0.00726766165            0.000863210495           
       0.954498             0.00630662322            0.000930748143           
       0.957138             0.00862098881               0.001030929           
       0.959779             0.00815123973            0.000988208135           
       0.962419             0.00778416404            0.000959277256           
       0.965059             0.00719482235            0.000969964648           
       0.967700              0.0076648073             0.00102536998           
       0.970340             0.00771908155            0.000910557748           
       0.972981             0.00755130739            0.000820540215           
       0.975621             0.00787165529            0.000891236817           
       0.978261             0.00617047618            0.000749761982           
       0.980902             0.00726871321            0.000973615409           
       0.983542             0.00715503566            0.000855431227           
       0.986182             0.00820717991            0.000899490305           
       0.988823              0.0098691922             0.00095776799           
       0.991463             0.00804371381            0.000922507212           
       0.994104              0.0102650523             0.00101661421           
       0.996744             0.00724424071            0.000871101572           
       0.999384             0.00879730096            0.000858513404           
       1.002025             0.00667060675            0.000834392955           
       1.004665             0.00821333038            0.000846125935           
       1.007306             0.00768814414            0.000814436917           
       1.009946             0.00934918835            0.000915955229           
       1.012586             0.00775389271            0.000812418645           
       1.015227             0.00696033091            0.000826924369           
       1.017867             0.00644244903            0.000764594168           
       1.020507             0.00886045644            0.000868548536           
       1.023148             0.00843579163            0.000914453059           
       1.025788             0.00799896959            0.000816483675           
       1.028429             0.00739907579            0.000822699879           
       1.031069             0.00778777564            0.000794267469           
       1.033709             0.00630423538             0.00075964475           
       1.036350             0.00722176183            0.000730227794           
       1.038990              0.0077886359            0.000772281797           
       1.041630             0.00876240157            0.000854368426           
       1.044271             0.00773314001            0.000754837692           
       1.046911             0.00937720229            0.000874327557           
       1.049552              0.0081900867            0.000858480196           
       1.052192             0.00863548082            0.000804934171           
       1.054832             0.00854438311            0.000807960838           
       1.057473             0.00706827125            0.000724420064           
       1.060113             0.00735113587             0.00072050469           
       1.062754             0.00852749846            0.000792298174           
       1.065394             0.00722596926             0.00077109355           
       1.068034             0.00742612895            0.000711240053           
       1.070675             0.00838357059            0.000788288041           
       1.073315             0.00869213554            0.000814168916           
       1.075955             0.00782164266            0.000729119229           
       1.078596              0.0102871922            0.000888689803           
       1.081236             0.00885413861            0.000789483961           
       1.083877             0.00815540803            0.000750895541           
       1.086517             0.00842289948            0.000818277887           
       1.089157             0.00933336654            0.000893766692           
       1.091798             0.00767207668            0.000710428938           
       1.094438             0.00847576148            0.000744302639           
       1.097078             0.00872492506            0.000724281132           
       1.099719             0.00815727174            0.000757507087           
       1.102359             0.00962440593            0.000770574316           
       1.105000               0.008858475            0.000826655472           
       1.107640             0.00930196841            0.000809961265           
       1.110280             0.00843482923             0.00070373887           
       1.112921             0.00894384757            0.000778443854           
       1.115561             0.00815102096             0.00070629311           
       1.118202             0.00821837181            0.000709873374           
       1.120842             0.00967006326             0.00080929721           
       1.123482             0.00818141588            0.000741150886           
       1.126123             0.00813906248            0.000709045434           
       1.128763             0.00926570276            0.000761716836           
       1.131403             0.00894567592            0.000721192624           
       1.134044              0.0078832201            0.000696647247           
       1.136684             0.00839760878            0.000766596371           
       1.139325             0.00878390483             0.00072224767           
       1.141965              0.0110102529            0.000813959145           
       1.144605             0.00864217613            0.000687602681           
       1.147246             0.00898316311            0.000717450246           
       1.149886             0.00917191381            0.000722374928           
       1.152527             0.00965054215            0.000751758884           
       1.155167             0.00911164837            0.000694786315           
       1.157807             0.00943431019            0.000758009789           
       1.160448             0.00791707952            0.000678087714           
       1.163088             0.00834622804            0.000664094487           
       1.165728             0.00929751142             0.00071964725           
       1.168369             0.00837642448            0.000689381295           
       1.171009             0.00895337005            0.000691682559           
       1.173650             0.00871346315            0.000700256634           
       1.176290             0.00961387531            0.000718795491           
       1.178930              0.0103725165            0.000731753131           
       1.181571             0.00906944571            0.000697815854           
       1.184211             0.00934759807            0.000710947573           
       1.186851             0.00992619319            0.000716272266           
       1.189492              0.0101449126            0.000719249109           
       1.192132             0.00980741438            0.000699249404           
       1.194773             0.00864597023            0.000659409382           
       1.197413             0.00905278448            0.000646500748           
       1.200053             0.00878857862            0.000653181934           
       1.202694             0.00934980115            0.000640664138           
       1.205334              0.0105475816            0.000733328095           
       1.207975             0.00950980144            0.000664655137           
       1.210615             0.00875338094            0.000703462519           
       1.213255             0.00978404822            0.000665988556           
       1.215896              0.0103333602            0.000696829933           
       1.218536              0.0103158498            0.000669463858           
       1.221176             0.00951093997            0.000698872354           
       1.223817             0.00785458281             0.00059618682           
       1.226457              0.0087549574            0.000642111249           
       1.229098             0.00950703208            0.000669090064           
       1.231738              0.0107912791            0.000716359065           
       1.234378              0.0106544241            0.000668845091           
       1.237019             0.00988760391            0.000663972498           
       1.239659               0.010645345            0.000682943403           
       1.242299              0.0114752385            0.000700055678           
       1.244940              0.0093939276            0.000616017337           
       1.247580              0.0106891081            0.000677208689           
       1.250221              0.0088000356              0.0006106691           
       1.252861              0.0100998236            0.000622816008           
       1.255501              0.0100119375            0.000673310395           
       1.258142             0.00934291995            0.000611191465           
       1.260782              0.0116340969            0.000696785376           
       1.263423              0.0112107132            0.000657236357           
       1.266063              0.0108108031            0.000661524081           
       1.268703                 0.0108853            0.000658291194           
       1.271344              0.0110143046            0.000684622277           
       1.273984              0.0102988791            0.000639375355           
       1.276624              0.0100821486            0.000620727463           
       1.279265             0.00947899283            0.000611868957           
       1.281905             0.00959340445            0.000618282423           
       1.284546             0.00992527872            0.000607875282           
       1.287186               0.010955618            0.000626581474           
       1.289826             0.00983333928            0.000625628455           
       1.292467              0.0100511529             0.00061858774           
       1.295107              0.0105453905            0.000627319842           
       1.297747              0.0104570966            0.000597774654           
       1.300388              0.0112972198            0.000677320966           
       1.303028              0.0114779754            0.000651763611           
       1.305669               0.010817282            0.000647793069           
       1.308309              0.0101040907            0.000619908887           
       1.310949              0.0100776012            0.000618473587           
       1.313590               0.010252563            0.000604319396           
       1.316230             0.00958883459            0.000623668999           
       1.318871              0.0100138269             0.00062419643           
       1.321511              0.0115928543            0.000659160422           
       1.324151              0.0105433995            0.000609981022           
       1.326792              0.0112550063            0.000634126028           
       1.329432              0.0113252558            0.000631613089           
       1.332072              0.0101115851            0.000587916573           
       1.334713              0.0107971386            0.000627020703           
       1.337353              0.0127092077            0.000652400703           
       1.339994              0.0115560032            0.000652830183           
       1.342634              0.0118568811            0.000634120504           
       1.345274              0.0114315902            0.000644378147           
       1.347915              0.0104318369            0.000598557918           
       1.350555              0.0104594756            0.000609847248           
       1.353195              0.0108523362            0.000624245683           
       1.355836              0.0118625072            0.000642475855           
       1.358476              0.0112807432             0.00060844952           
       1.361117              0.0117003283            0.000620512355           
       1.363757              0.0109894681            0.000619729691           
       1.366397              0.0109975796            0.000601197673           
       1.369038              0.0108834001            0.000604023745           
       1.371678              0.0116118533            0.000618410342           
       1.374319              0.0107955489            0.000591142925           
       1.376959              0.0109057761            0.000588178047           
       1.379599               0.011338742            0.000642739582           
       1.382240              0.0108013668            0.000589590477           
       1.384880              0.0112617095            0.000637679412           
       1.387520              0.0113758736            0.000608685787           
       1.390161              0.0111764052            0.000573014517           
       1.392801              0.0107237646            0.000584810967           
       1.395442              0.0104241872            0.000584459337           
       1.398082              0.0109396651            0.000560689969           
       1.400722              0.0107981182            0.000583497937           
       1.403363              0.0102310961            0.000597858768           
       1.406003              0.0113394225             0.00058904234           
       1.408644              0.0112359911            0.000614239481           
       1.411284              0.0108353693            0.000571167097           
       1.413924             0.00961740069            0.000536113992           
       1.416565              0.0114036911             0.00058148925           
       1.419205              0.0109234908            0.000593677292           
       1.421845             0.00988458727            0.000564408961           
       1.424486              0.0108228355            0.000567691528           
       1.427126              0.0112043454            0.000600025676           
       1.429767              0.0126452372            0.000599754616           
       1.432407              0.0105871422            0.000574312687           
       1.435047              0.0104298109            0.000535352218           
       1.437688              0.0108221483            0.000553482034           
       1.440328              0.0107902413            0.000564057192           
       1.442968             0.00955914041            0.000542800437           
       1.445609               0.011140118             0.00056738183           
       1.448249              0.0106856055            0.000569756436           
       1.450890              0.0097672127            0.000541166719           
       1.453530              0.0109167154             0.00059855896           
       1.456170              0.0101962395            0.000561418853           
       1.458811              0.0105174953            0.000545232256           
       1.461451              0.0105796527            0.000548275516           
       1.464092              0.0101526965            0.000540609841           
       1.466732              0.0100251985            0.000532588281           
       1.469372              0.0106190504            0.000535307478           
       1.472013              0.0101642981            0.000564842497           
       1.474653              0.0105220745             0.00056583212           
       1.477293              0.0100263505            0.000563983896           
       1.479934              0.0109752768            0.000563049359           
       1.482574             0.00997006123            0.000519120855           
       1.485215              0.0113311719            0.000563730336           
       1.487855              0.0113997557            0.000572892801           
       1.490495              0.0109085153            0.000558349325           
       1.493136              0.0111589487            0.000556981559           
       1.495776              0.0111284921            0.000553688285           
       1.498416              0.0100790928            0.000544175879           
       1.501057              0.0120733099             0.00058245649           
       1.503697              0.0112257554            0.000549092777           
       1.506338               0.010586787              0.0005429808           
       1.508978               0.010772809            0.000542343879           
       1.511618              0.0118193047            0.000604997871           
       1.514259              0.0116090839            0.000578879358           
       1.516899              0.0112002868            0.000553623841           
       1.519540              0.0104518854            0.000543431722           
       1.522180               0.010722129            0.000555247454           
       1.524820              0.0107026005             0.00055162922           
       1.527461              0.0107343129            0.000555178086           
       1.530101              0.0100707942            0.000532367797           
       1.532741             0.00999260856             0.00052721971           
       1.535382              0.0112901632            0.000569427238           
       1.538022               0.010539234            0.000518284187           
       1.540663              0.0112886968            0.000576926768           
       1.543303              0.0104578829              0.0005155968           
       1.545943              0.0104527607             0.00054558748           
       1.548584              0.0104661362            0.000555736337           
       1.551224              0.0102310184            0.000508026474           
       1.553864              0.0105797157            0.000545896384           
       1.556505              0.0101358611            0.000516169465           
       1.559145              0.0101349247            0.000522468355           
       1.561786              0.0105709801            0.000534000547           
       1.564426              0.0101554982            0.000507121233           
       1.567066             0.00887221714            0.000496659755           
       1.569707              0.0101247775            0.000521030827           
       1.572347             0.00960782104             0.00052435508           
       1.574988              0.0106206564            0.000524746027           
       1.577628             0.00945942184            0.000516401393           
       1.580268             0.00988614262            0.000511498761           
       1.582909              0.0101112002            0.000548304835           
       1.585549             0.00910206217            0.000505121152           
       1.588189             0.00897633988            0.000490672468           
       1.590830             0.00914050248            0.000494517486           
       1.593470             0.00951125215             0.00052442093           
       1.596111             0.00981382827             0.00052007793           
       1.598751              0.0102171319            0.000514188611           
       1.601391              0.0100523098            0.000521276863           
       1.604032             0.00948326435            0.000516892041           
       1.606672              0.0103037963            0.000523485662           
       1.609312             0.00867887888            0.000501521803           
       1.611953             0.00929790764            0.000507971228           
       1.614593             0.00934130225            0.000499440961           
       1.617234             0.00911818106            0.000511389973           
       1.619874             0.00901836135             0.00050657406           
       1.622514             0.00890660054             0.00049655793           
       1.625155             0.00836848784            0.000484167321           
       1.627795             0.00934280866            0.000499042096           
       1.630436             0.00909405397            0.000489782806           
       1.633076             0.00955319099            0.000508578409           
       1.635716             0.00850346917            0.000472358121           
       1.638357             0.00910123195            0.000489966778           
       1.640997              0.0087893369            0.000496083678           
       1.643637             0.00906071941            0.000490141381           
       1.646278             0.00908757745            0.000506290387           
       1.648918              0.0102966529            0.000540389336           
       1.651559             0.00930415333            0.000517672288           
       1.654199             0.00836654799            0.000477439642           
       1.656839             0.00942653613            0.000506959145           
       1.659480             0.00960767708            0.000531026153           
       1.662120             0.00838501971            0.000467233207           
       1.664761             0.00863203948            0.000492431708           
       1.667401             0.00881940303            0.000475739824           
       1.670041             0.00824896513            0.000467112704           
       1.672682             0.00846939084            0.000471367168           
       1.675322              0.0084357906            0.000467406122           
       1.677962             0.00942186809            0.000488520244           
       1.680603             0.00928081931            0.000486341796           
       1.683243             0.00904575169            0.000500939866           
       1.685884             0.00845961375             0.00048801577           
       1.688524             0.00928818052            0.000501472061           
       1.691164             0.00811251045            0.000468767631           
       1.693805             0.00928113371            0.000506903601           
       1.696445             0.00848578521            0.000487509205           
       1.699085             0.00864049907            0.000475449536           
       1.701726             0.00937831137            0.000477166959           
       1.704366             0.00836424993            0.000474727925           
       1.707007             0.00866828443            0.000472506115           
       1.709647             0.00839657456            0.000470293491           
       1.712287             0.00855502592            0.000478842189           
       1.714928             0.00986881375            0.000518443839           
       1.717568             0.00877897021             0.00046062103           
       1.720209             0.00925242764            0.000495307718           
       1.722849             0.00906930374             0.00048786056           
       1.725489             0.00875769334            0.000479808705           
       1.728130             0.00845047627            0.000500878754           
       1.730770             0.00775078346            0.000455580939           
       1.733410             0.00819068096            0.000460969123           
       1.736051             0.00904515354            0.000487789243           
       1.738691             0.00820329396            0.000455118214           
       1.741332             0.00818138945            0.000467800353           
       1.743972             0.00938559291            0.000517415403           
       1.746612             0.00870801029            0.000478579961           
       1.749253             0.00823628688             0.00047462849           
       1.751893             0.00877863045            0.000486409331           
       1.754533             0.00902865953            0.000492826875           
       1.757174             0.00896989006            0.000486620272           
       1.759814             0.00854897871            0.000467864711           
       1.762455             0.00958547292            0.000504512788           
       1.765095             0.00837124356            0.000451024952           
       1.767735             0.00823841238            0.000461235591           
       1.770376             0.00790342553            0.000452951961           
       1.773016             0.00760359575            0.000441301255           
       1.775657             0.00800698103            0.000446339945           
       1.778297             0.00833905183            0.000451579112           
       1.780937             0.00864195718             0.00048522107           
       1.783578             0.00916491356            0.000487192408           
       1.786218              0.0087155894            0.000495818459           
       1.788858             0.00895462862            0.000477321926           
       1.791499              0.0091419942            0.000476873226           
       1.794139             0.00851073859             0.00045638169           
       1.796780             0.00962177848            0.000482918127           
       1.799420               0.007946867            0.000436447593           
       1.802060             0.00847876407             0.00045445851           
       1.804701              0.0095878656            0.000463766919           
       1.807341              0.0095094506            0.000485321286           
       1.809981             0.00980173176            0.000494365983           
       1.812622              0.0091876046            0.000470011382           
       1.815262             0.00942126311            0.000486060791           
       1.817903             0.00915389242            0.000472015098           
       1.820543             0.00980701032            0.000496176748           
       1.823183             0.00914804137            0.000478953481           
       1.825824             0.00897589694            0.000453247091           
       1.828464             0.00865670399            0.000464051793           
       1.831105             0.00952115319            0.000473215019           
       1.833745             0.00942372135            0.000480842136           
       1.836385             0.00845106924             0.00046834691           
       1.839026             0.00871428523             0.00047408194           
       1.841666             0.00795231076            0.000451275216           
       1.844306             0.00908115815            0.000469084222           
       1.846947             0.00995320368            0.000495395405           
       1.849587             0.00892846185            0.000518111555           
       1.852228             0.00933692949            0.000479098113           
       1.854868             0.00792069491            0.000466136128           
       1.857508             0.00889775804            0.000489204988           
       1.860149             0.00805146462            0.000473813807           
       1.862789             0.00772040697            0.000447838828           
       1.865429             0.00788202505            0.000472342909           
       1.868070             0.00821317389            0.000475736748           
       1.870710             0.00922616168            0.000492597293           
       1.873351             0.00880299802            0.000487116397           
       1.875991             0.00934730276            0.000510142096           
       1.878631             0.00936247716            0.000500777735           
       1.881272             0.00895237472            0.000486406158           
       1.883912             0.00844369042             0.00049161538           
       1.886553             0.00929341417            0.000509992973           
       1.889193             0.00824907063            0.000479663154           
       1.891833             0.00745635815            0.000473609099           
       1.894474             0.00874936517            0.000508564562           
       1.897114             0.00855171852            0.000486537024           
       1.899754             0.00953532695            0.000515905696           
       1.902395             0.00906274369            0.000493125314           
       1.905035              0.0100110731            0.000548949576           
       1.907676             0.00884123154            0.000486218227           
       1.910316             0.00791623635             0.00047229686           
       1.912956             0.00789669793            0.000461335893           
       1.915597             0.00933686892            0.000504447029           
       1.918237             0.00830409664             0.00049131401           
       1.920878             0.00778864572            0.000473873507           
       1.923518             0.00891415626            0.000507172626           
       1.926158             0.00873616232            0.000495568316           
       1.928799             0.00820358795            0.000474666633           
       1.931439              0.0082051546            0.000487163164           
       1.934079             0.00822940365            0.000508605503           
       1.936720             0.00869291421            0.000484326921           
       1.939360             0.00816845183            0.000500879719           
       1.942001             0.00741803131            0.000437486493           
       1.944641             0.00900457424            0.000491499832           
       1.947281             0.00866025943            0.000477568377           
       1.949922             0.00833434266            0.000483914815           
       1.952562             0.00815705029            0.000493746512           
       1.955202             0.00777018722            0.000481308465           
       1.957843             0.00822795151            0.000482439106           
       1.960483             0.00864211923            0.000516928229           
       1.963124              0.0084422202             0.00050043314           
       1.965764              0.0077996347            0.000453606688           
       1.968404             0.00826813106            0.000462618614           
       1.971045             0.00801277202             0.00046432327           
       1.973685             0.00819988768            0.000492694358           
       1.976326             0.00846272263            0.000493649235           
       1.978966             0.00882174213            0.000508434803           
       1.981606             0.00738019205            0.000474740471           
       1.984247             0.00764205141            0.000479913205           
       1.986887             0.00805973238              0.0004869499           
       1.989527             0.00802727483            0.000480734826           
       1.992168             0.00870337985            0.000519384601           
       1.994808             0.00737222389            0.000475969055           
       1.997449             0.00789375439            0.000482402455           
       2.000089             0.00798675531            0.000483312065           
       2.002729              0.0079895798             0.00048368733           
       2.005370             0.00763792892            0.000467834614           
       2.008010             0.00820295454            0.000505989849           
       2.010650             0.00769355961            0.000493683846           
       2.013291             0.00751914662            0.000468262584           
       2.015931             0.00864520825            0.000498553795           
       2.018572             0.00834550562            0.000523925832           
       2.021212             0.00779865638            0.000497369994           
       2.023852              0.0080065777            0.000476971196           
       2.026493             0.00814847484            0.000502677295           
       2.029133             0.00800730705            0.000488276082           
       2.031774             0.00715856394            0.000484516321           
       2.034414             0.00837140089            0.000482111984           
       2.037054              0.0082265493            0.000490036528           
       2.039695             0.00773686429            0.000471638887           
       2.042335             0.00773945869            0.000490218515           
       2.044975             0.00830532866            0.000501665031           
       2.047616             0.00780795739            0.000485203559           
       2.050256             0.00798581302            0.000495342368           
       2.052897             0.00855764989            0.000522223881           
       2.055537             0.00782867016            0.000482734395           
       2.058177             0.00752759796             0.00046354804           
       2.060818             0.00725924274            0.000476868179           
       2.063458             0.00791781951            0.000518996705           
       2.066098             0.00817297517            0.000497413803           
       2.068739             0.00808334706            0.000502368147           
       2.071379             0.00784950359            0.000507959324           
       2.074020             0.00804752696            0.000503148939           
       2.076660             0.00833159675            0.000516090854           
       2.079300             0.00774408041            0.000509752992           
       2.081941             0.00764909964            0.000463865851           
       2.084581             0.00830122354             0.00051005916           
       2.087222             0.00733895673            0.000462515034           
       2.089862             0.00690412462            0.000488598049           
       2.092502             0.00717841366            0.000482942602           
       2.095143              0.0075220296             0.00051050707           
       2.097783             0.00798204633            0.000509145877           
       2.100423              0.0075978268            0.000478655453           
       2.103064             0.00831189137            0.000519484508           
       2.105704             0.00696395188            0.000473144759           
       2.108345             0.00780639262            0.000481275636           
       2.110985             0.00744846943            0.000502114634           
       2.113625             0.00696585916            0.000489812781           
       2.116266             0.00808254116            0.000535100116           
       2.118906             0.00778410486            0.000489390152           
       2.121546              0.0075375963            0.000472383939           
       2.124187             0.00848091606            0.000525970768           
       2.126827             0.00823529092             0.00052408279           
       2.129468             0.00657104228            0.000469337738           
       2.132108             0.00682517289            0.000465376069           
       2.134748             0.00782998594            0.000496523106           
       2.137389             0.00805827718            0.000525494043           
       2.140029             0.00709476941            0.000441433736           
       2.142670             0.00777887415            0.000493991318           
       2.145310             0.00724460167            0.000464005274           
       2.147950             0.00743391967            0.000483787861           
       2.150591             0.00716927453            0.000470297104           
       2.153231              0.0074544589            0.000493632246           
       2.155871             0.00762869192            0.000482422463           
       2.158512              0.0087120989             0.00053793131           
       2.161152             0.00792033453            0.000496832073           
       2.163793             0.00775465082             0.00048939488           
       2.166433             0.00710478487              0.0004810383           
       2.169073             0.00666780865            0.000455635578           
       2.171714             0.00828992591            0.000504246201           
       2.174354             0.00688896436            0.000480310609           
       2.176995             0.00730791631            0.000492618515           
       2.179635               0.008514862             0.00056190216           
       2.182275             0.00672651551            0.000471532855           
       2.184916             0.00822034271             0.00050347809           
       2.187556             0.00703476392            0.000461089835           
       2.190196             0.00759360031            0.000500605185           
       2.192837             0.00649221862             0.00046036116           
       2.195477             0.00706607298             0.00045788642           
       2.198118             0.00696611146            0.000466285481           
       2.200758             0.00706460474            0.000481750622           
       2.203398               0.007123147            0.000486837237           
       2.206039             0.00666576277            0.000445712212           
       2.208679             0.00698680873             0.00046693933           
       2.211319             0.00742021229             0.00048397858           
       2.213960             0.00752450532            0.000493897851           
       2.216600             0.00767095558            0.000515874459           
       2.219241             0.00761956131            0.000491382174           
       2.221881             0.00744478786            0.000486712607           
       2.224521             0.00569744542            0.000430998694           
       2.227162              0.0077644194            0.000493067683           
       2.229802               0.007189937            0.000489329366           
       2.232443             0.00813157137            0.000512178439           
       2.235083             0.00793093241            0.000520740524           
       2.237723             0.00788252582            0.000498198758           
       2.240364             0.00748407205            0.000497403026           
       2.243004             0.00713148727            0.000481669147           
       2.245644             0.00801260223            0.000515668964           
       2.248285             0.00779323234            0.000498372974           
       2.250925             0.00615961583            0.000445761616           
       2.253566             0.00680723447             0.00050097957           
       2.256206             0.00764519746            0.000520304131           
       2.258846              0.0066686014            0.000462260858           
       2.261487             0.00749138579            0.000514246863           
       2.264127             0.00826912622            0.000521795662           
       2.266767             0.00798602056            0.000526447667           
       2.269408              0.0069643105            0.000493632643           
       2.272048             0.00708100361            0.000494779948           
       2.274689             0.00648506426            0.000479741025           
       2.277329              0.0077664127            0.000494322069           
       2.279969             0.00746671947            0.000515925491           
       2.282610             0.00745653011            0.000501233845           
       2.285250             0.00737709391            0.000477186619           
       2.287891             0.00838252071            0.000545367017           
       2.290531             0.00718205583            0.000511593636           
       2.293171             0.00709500014            0.000495309005           
       2.295812             0.00666056452            0.000477976236           
       2.298452             0.00825790857            0.000556553802           
       2.301092             0.00742226195            0.000490245267           
       2.303733             0.00725466863            0.000504235309           
       2.306373              0.0068350763            0.000497144157           
       2.309014             0.00600985721            0.000457074403           
       2.311654             0.00689194836            0.000510784883           
       2.314294             0.00753187493             0.00049195048           
       2.316935              0.0076873886            0.000499056612           
       2.319575             0.00668705475            0.000487689262           
       2.322215             0.00707316997            0.000522722117           
       2.324856             0.00676395013            0.000469966362           
       2.327496             0.00723239428            0.000516736526           
       2.330137             0.00809339163            0.000523083931           
       2.332777             0.00711673645            0.000505766565           
       2.335417             0.00774673427            0.000511926576           
       2.338058             0.00718046816            0.000507584156           
       2.340698             0.00723498289            0.000505503407           
       2.343339             0.00771167359            0.000533375507           
       2.345979             0.00700589966            0.000480970407           
       2.348619             0.00658955526            0.000483510831           
       2.351260              0.0069810673            0.000494767725           
       2.353900             0.00743657843            0.000509036697           
       2.356540              0.0069109905            0.000490022171           
       2.359181             0.00753090734            0.000504356428           
       2.361821             0.00712889074             0.00047401276           
       2.364462              0.0068007289            0.000484213079           
       2.367102             0.00808332862            0.000542504492           
       2.369742             0.00588826467            0.000487362922           
       2.372383             0.00705588167            0.000483082985           
       2.375023             0.00723693501            0.000514299001           
       2.377663             0.00687647603            0.000479342463           
       2.380304             0.00745566358             0.00050744353           
       2.382944             0.00718371413            0.000474427267           
       2.385585             0.00780729687            0.000527488925           
       2.388225               0.007641161            0.000519394246           
       2.390865             0.00678283997            0.000484327356           
       2.393506              0.0067908002            0.000475468709           
       2.396146              0.0079454121            0.000556088404           
       2.398787             0.00763956331             0.00050251821           
       2.401427              0.0080388008            0.000497558587           
       2.404067              0.0066048985            0.000461065265           
       2.406708             0.00691435362            0.000466085668           
       2.409348             0.00780758793            0.000525338433           
       2.411988             0.00702222396            0.000488141916           
       2.414629             0.00765365584            0.000525487609           
       2.417269             0.00727601057            0.000518341296           
       2.419910             0.00694700429            0.000507661847           
       2.422550             0.00734038297            0.000499261734           
       2.425190             0.00687673213             0.00050938202           
       2.427831             0.00752079203             0.00052970752           
       2.430471             0.00597306657            0.000449734366           
       2.433112             0.00690155368            0.000470742589           
       2.435752             0.00622105477            0.000472994265           
       2.438392             0.00706539789            0.000486532038           
       2.441033             0.00707524906            0.000515985505           
       2.443673             0.00746671742            0.000530475391           
       2.446313             0.00738241092            0.000527937166           
       2.448954             0.00667151657            0.000477854991           
       2.451594             0.00715426018            0.000532070357           
       2.454235             0.00777023639            0.000520265286           
       2.456875             0.00776003077            0.000544026339           
       2.459515             0.00725740234            0.000539732384           
       2.462156             0.00761918947            0.000522129612           
       2.464796             0.00680134796            0.000486947186           
       2.467436             0.00849897506            0.000562908111           
       2.470077             0.00822550332            0.000524880754           
       2.472717               0.007431723            0.000501073429           
       2.475358             0.00754905032             0.00051027906           
       2.477998             0.00712444695            0.000487363682           
       2.480638             0.00810277908            0.000528985578           
       2.483279             0.00799453538            0.000549168962           
       2.485919             0.00847982149            0.000545076537           
       2.488560             0.00685122849            0.000488577175           
       2.491200             0.00720970831            0.000516099661           
       2.493840             0.00736187095            0.000551833735           
       2.496481             0.00671216129            0.000518301521           
       2.499121             0.00695103643            0.000513023193           
       2.501761             0.00652569351            0.000503665209           
       2.504402             0.00705926184            0.000516198142           
       2.507042             0.00684057406            0.000504375369           
       2.509683             0.00645202657             0.00048235511           
       2.512323             0.00639507968              0.0005043521           
       2.514963             0.00667095069             0.00050875164           
       2.517604             0.00764725847            0.000565219737           
       2.520244             0.00719251341            0.000513897964           
       2.522884             0.00841732131            0.000563884738           
       2.525525             0.00694981767            0.000518193136           
       2.528165             0.00726873806            0.000521688779           
       2.530806             0.00681515802            0.000513954403           
       2.533446             0.00685666783            0.000504513854           
       2.536086             0.00764874632            0.000528088936           
       2.538727             0.00687587369            0.000480343655           
       2.541367             0.00672391193            0.000479685064           
       2.544008             0.00725797286              0.0005146957           
       2.546648             0.00641004447            0.000491993701           
       2.549288             0.00749388042            0.000542803407           
       2.551929             0.00596749316            0.000476657751           
       2.554569             0.00607226659             0.00046323365           
       2.557209             0.00592842353            0.000461917649           
       2.559850             0.00770231113            0.000528199336           
       2.562490             0.00777569178            0.000548516737           
       2.565131             0.00669793439             0.00052784287           
       2.567771             0.00719035863            0.000527295616           
       2.570411             0.00624434694            0.000486068842           
       2.573052             0.00663273623             0.00050726607           
       2.575692             0.00694408605            0.000515892405           
       2.578332             0.00730453907            0.000531300485           
       2.580973             0.00716733525            0.000521279577           
       2.583613             0.00703836693            0.000504268383           
       2.586254             0.00659576066             0.00048747713           
       2.588894             0.00641424615            0.000499207558           
       2.591534             0.00753715755            0.000560184669           
       2.594175              0.0071303547             0.00053457581           
       2.596815             0.00734061292            0.000545598397           
       2.599456             0.00682755914            0.000498980165           
       2.602096             0.00643472338              0.0004880992           
       2.604736             0.00713480068            0.000526152879           
       2.607377              0.0076503173            0.000530471631           
       2.610017             0.00592335454            0.000458605248           
       2.612657             0.00681875583             0.00052336755           
       2.615298             0.00735223559            0.000530583461           
       2.617938             0.00837210881            0.000605677543           
       2.620579             0.00563346122            0.000476956033           
       2.623219             0.00749396955            0.000549322182           
       2.625859             0.00595658246            0.000476169228           
       2.628500             0.00755777831            0.000532848591           
       2.631140             0.00658274017            0.000504952831           
       2.633780             0.00716161803            0.000526229665           
       2.636421             0.00672466276            0.000522463468           
       2.639061             0.00686638657            0.000496995093           
       2.641702             0.00668681028            0.000501807383           
       2.644342             0.00756347487            0.000535963008           
       2.646982             0.00733303362            0.000519845569           
       2.649623             0.00707692315            0.000535179403           
       2.652263             0.00653502617            0.000509120605           
       2.654904             0.00791974148            0.000561034032           
       2.657544             0.00789080189              0.0005274695           
       2.660184             0.00651095821            0.000507065919           
       2.662825             0.00735581827            0.000551464964           
       2.665465             0.00745896614            0.000537083968           
       2.668105             0.00622371742            0.000517111517           
       2.670746             0.00689375687            0.000502757997           
       2.673386             0.00871989701            0.000582731459           
       2.676027             0.00944088859            0.000596612801           
       2.678667             0.00791042749            0.000532874176           
       2.681307              0.0102043971            0.000594670057           
       2.683948              0.0105239302            0.000620488324           
       2.686588             0.00855280977             0.00055009347           
       2.689229             0.00823689375            0.000527507812           
       2.691869             0.00742277244            0.000529254265           
       2.694509             0.00861387831            0.000570452166           
       2.697150             0.00713847956            0.000510880056           
       2.699790             0.00738660648            0.000544813044           
       2.702430             0.00701768612            0.000507604268           
       2.705071             0.00645336849            0.000502982292           
       2.707711             0.00580790297            0.000463124987           
       2.710352             0.00679452867            0.000529284471           
       2.712992             0.00774657264            0.000575600368           
       2.715632             0.00688572106            0.000503496082           
       2.718273             0.00611973648            0.000491926995           
       2.720913             0.00644027735            0.000503209822           
       2.723553              0.0079747254            0.000563714057           
       2.726194             0.00739427531             0.00056741663           
       2.728834             0.00727179599            0.000562961642           
       2.731475             0.00694165768            0.000507633179           
       2.734115             0.00752639275            0.000544986107           
       2.736755             0.00730521143            0.000541337794           
       2.739396             0.00696555626            0.000525540636           
       2.742036             0.00659712076            0.000535267899           
       2.744677             0.00748273602            0.000553119963           
       2.747317             0.00845944282            0.000583918275           
       2.749957             0.00673576273            0.000524700814           
       2.752598             0.00800978158            0.000578384301           
       2.755238             0.00626313811            0.000520681594           
       2.757878             0.00730432151            0.000557381221           
       2.760519             0.00755855734            0.000560986404           
       2.763159             0.00748728318            0.000552755623           
       2.765800             0.00715045323            0.000514782313           
       2.768440             0.00842883043            0.000563025625           
       2.771080             0.00820254912            0.000560052806           
       2.773721             0.00823506513             0.00057563762           
       2.776361             0.00661939419            0.000523209163           
       2.779001             0.00593196051            0.000512929811           
       2.781642             0.00733867526            0.000566311344           
       2.784282             0.00738749471            0.000577535187           
       2.786923             0.00758338877            0.000590294387           
       2.789563               0.007235296            0.000555321384           
       2.792203              0.0069079078            0.000518349549           
       2.794844             0.00844697038            0.000628208814           
       2.797484             0.00743629641            0.000556277665           
       2.800125             0.00730969881            0.000579925814           
       2.802765             0.00616007562            0.000523214023           
       2.805405             0.00715125621            0.000565646309           
       2.808046             0.00614740358            0.000533664128           
       2.810686             0.00738706957            0.000537549912           
       2.813326             0.00648733746             0.00052325829           
       2.815967             0.00700093617            0.000559032281           
       2.818607             0.00710980548            0.000537601958           
       2.821248             0.00700763645            0.000522644631           
       2.823888             0.00663152147            0.000527758527           
       2.826528             0.00766783892            0.000549594816           
       2.829169             0.00755760533            0.000571516844           
       2.831809              0.0065254189             0.00053828052           
       2.834449             0.00713779483            0.000566529426           
       2.837090              0.0067940536            0.000533839549           
       2.839730             0.00723461266            0.000548186445           
       2.842371             0.00679151011            0.000531900219           
       2.845011             0.00710435838            0.000548349506           
       2.847651              0.0067034206            0.000533305808           
       2.850292             0.00687835333            0.000545521365           
       2.852932             0.00672021214            0.000550965092           
       2.855573             0.00670335707            0.000533781021           
       2.858213             0.00736767773            0.000587654031           
       2.860853             0.00749290857            0.000551279501           
       2.863494             0.00720297731            0.000559621296           
       2.866134             0.00731228488             0.00058605377           
       2.868774             0.00651586338            0.000543700641           
       2.871415             0.00683732033            0.000565626109           
       2.874055             0.00629383408            0.000518734973           
       2.876696             0.00749440995            0.000581363284           
       2.879336             0.00759770193             0.00056417055           
       2.881976             0.00729437829            0.000570169042           
       2.884617              0.0071563159            0.000556453229           
       2.887257             0.00795540477            0.000589726886           
       2.889897             0.00707747011            0.000544787758           
       2.892538             0.00724612329            0.000603886061           
       2.895178             0.00707097734            0.000538936994           
       2.897819             0.00841782382            0.000599845005           
       2.900459             0.00768758832            0.000562085697           
       2.903099             0.00700934921            0.000531224283           
       2.905740             0.00703781765            0.000546073804           
       2.908380             0.00667210269            0.000537737678           
       2.911021             0.00720496898            0.000567883573           
       2.913661             0.00652327171            0.000540189143           
       2.916301             0.00771109976            0.000587875338           
       2.918942              0.0071397797            0.000541085164           
       2.921582             0.00753298066            0.000581510995           
       2.924222             0.00765972463            0.000568091973           
       2.926863             0.00792801373            0.000602007183           
       2.929503             0.00772819436            0.000601413991           
       2.932144             0.00824138418            0.000596181033           
       2.934784             0.00742464001            0.000556590207           
       2.937424             0.00685653831            0.000540363987           
       2.940065             0.00635212726            0.000496133898           
       2.942705             0.00821062953            0.000563355231           
       2.945346             0.00745227356             0.00056958358           
       2.947986             0.00670536972            0.000550905657           
       2.950626             0.00721696539            0.000568317509           
       2.953267             0.00771025273            0.000577927936           
       2.955907             0.00703246575            0.000572563643           
       2.958547             0.00651429211            0.000520234519           
       2.961188             0.00588383824            0.000515817968           
       2.963828             0.00596992193            0.000508242954           
       2.966469             0.00716731342            0.000546301903           
       2.969109             0.00665476675            0.000534205636           
       2.971749             0.00681249565            0.000537127517           
       2.974390             0.00736760818            0.000548909801           
       2.977030             0.00719411608            0.000554530312           
       2.979670             0.00809084949            0.000572017372           
       2.982311             0.00872445304            0.000615643764           
       2.984951              0.0073941173             0.00053904403           
       2.987592             0.00662595836            0.000520496743           
       2.990232             0.00695226855             0.00055447986           
       2.992872             0.00806422488            0.000562507955           
       2.995513             0.00991531984             0.00061021898           
       2.998153              0.0139117698            0.000734953092           
       3.000794              0.0104757418             0.00061774112           
       3.003434              0.0105272089            0.000620191736           
       3.006074              0.0210245583            0.000864176985           
       3.008715              0.0760643565             0.00158671258           
       3.011355               0.261186161             0.00283534093           
       3.013995                0.20297703             0.00250630347           
       3.016636               0.112082398             0.00182375585           
       3.019276               0.145784023             0.00204454882           
       3.021917               0.557055761             0.00384293506           
       3.024557                1.21172534             0.00557244492           
       3.027197                1.08037372             0.00512993502           
       3.029838               0.682157532             0.00413413064           
       3.032478               0.253586454             0.00252316842           
       3.035118              0.0699908581             0.00134335767           
       3.037759              0.0732512574             0.00137251736           
       3.040399              0.0947492777             0.00161019329           
       3.043040               0.328267026              0.0030338537           
       3.045680               0.361683286             0.00299619021           
       3.048320               0.122319206             0.00178032649           
       3.050961                0.16178611             0.00208357279           
       3.053601               0.119180546             0.00172235118           
       3.056242               0.123825717             0.00186657095           
       3.058882               0.158067073             0.00226224327           
       3.061522               0.132700801              0.0020336544           
       3.064163               0.158020835             0.00219126056           
       3.066803               0.174022708               0.002420914           
       3.069443              0.0912539855             0.00183417324           
       3.072084              0.0527503433             0.00135789756           
       3.074724              0.0312982107             0.00116809589           
       3.077365              0.0213657469            0.000999059528           
       3.080005              0.0105137298            0.000704798078           
       3.082645               0.017294624            0.000949615043           
       3.085286              0.0154497548            0.000904619212           
       3.087926              0.0129241796            0.000821006057           
       3.090566              0.0111757874            0.000748039395           
       3.093207              0.0110180496            0.000772899526           
       3.095847               0.010075266            0.000708409063           
       3.098488               0.008811829            0.000734604181           
       3.101128              0.0106217663            0.000811713514           
       3.103768             0.00740422309            0.000664960271           
       3.106409             0.00976800711            0.000812849871           
       3.109049             0.00815984433            0.000712953784           
       3.111690             0.00744726687            0.000669420012           
       3.114330             0.00957597531            0.000775235615           
       3.116970             0.00784179225             0.00070692164           
       3.119611              0.0111531679            0.000897390536           
       3.122251              0.0164593513             0.00114033996           
       3.124891              0.0359023128             0.00169987037           
       3.127532              0.0241802689             0.00136475047           
       3.130172               0.018705565              0.0012210919           
       3.132813              0.0112368937             0.00093172249           
       3.135453             0.00751455496            0.000755653837           
       3.138093             0.00661601147            0.000768267535           
       3.140734              0.0057645176            0.000661604512           
       3.143374             0.00796478696            0.000822436527           
       3.146014              0.0074835505            0.000858225839           
       3.148655             0.00808511545            0.000829246235           
       3.151295             0.00519432712            0.000708308095           
       3.153936             0.00756833214            0.000825888116           
       3.156576              0.0078887889            0.000831722517           
       3.159216              0.0063653185            0.000750844839           
       3.161857             0.00708312377            0.000788826436           
       3.164497             0.00493326486            0.000691703368           
       3.167138              0.0060939787            0.000794339313           
       3.169778             0.00681578115              0.0008262122           
       3.172418              0.0050930033            0.000706936923           
       3.175059             0.00653029546            0.000709675121           
       3.177699             0.00639001348            0.000743387412           
       3.180339             0.00673575101            0.000817745332           
       3.182980             0.00657068717             0.00083504199           
       3.185620             0.00504689145            0.000745314609           
       3.188261             0.00534567095            0.000780747442           
       3.190901             0.00654545725            0.000794566507           
       3.193541             0.00616838935            0.000810492868           
       3.196182             0.00543157076            0.000792599022           
       3.198822             0.00553807592            0.000800600403           
       3.201463             0.00613860401            0.000828368686           
       3.204103             0.00698664948            0.000878360852           
       3.206743              0.0044990164             0.00070478478           
       3.209384             0.00593140684            0.000874313203           
       3.212024             0.00716775123            0.000896069463           
       3.214664             0.00549140079              0.0008918805           
       3.217305             0.00558267891            0.000854810998           
       3.219945             0.00555375438            0.000877538963           
       3.222586             0.00640973128             0.00089794636           
       3.225226             0.00542735246            0.000916623161           
       3.227866             0.00698971165            0.000950753352           
       3.230507             0.00597801849            0.000911448059           
       3.233147             0.00521510873            0.000858178765           
       3.235787             0.00648465943            0.000979319699           
       3.238428             0.00584508307             0.00100334115           
       3.241068             0.00616706589            0.000963667618           
       3.243709             0.00545332426             0.00093623689           
       3.246349             0.00522091333             0.00083508258           
       3.248989             0.00764789888             0.00119342533           
       3.251630             0.00743823584             0.00113337373           
       3.254270             0.00522162563            0.000848685549           
       3.256911             0.00540515424            0.000942143186           
       3.259551             0.00361561595            0.000829571886           
       3.262191              0.0053569864             0.00103143125           
       3.264832             0.00411132563            0.000944115168           
       3.267472             0.00761168036             0.00120511066           
       3.270112             0.00488799245             0.00106724537           
       3.272753             0.00624327553             0.00110402791           
       3.275393             0.00610861195             0.00111427797           
       3.278034             0.00567709531             0.00107480532           
       3.280674             0.00647017241              0.0012451164           
       3.283314              0.0067218216             0.00113502423           
       3.285955             0.00922029675             0.00137158074           
       3.288595             0.00632680936              0.0012640258           
       3.291235              0.0058417912             0.00124860791           
       3.293876             0.00385301551             0.00102860778           
       3.296516              0.0073463035              0.0013635317           
       3.299157              0.0068938227             0.00130427544           
       3.301797             0.00795089266             0.00159776485           
       3.304437             0.00552038556             0.00115344928           
       3.307078             0.00642295604             0.00137053478           
       3.309718             0.00654649285             0.00142817765           
       3.312359             0.00468110461             0.00120796739           
       3.314999             0.00602478858             0.00134928523           
       3.317639             0.00553270219             0.00123660411           
       3.320280             0.00499861696             0.00124969646           
       3.322920             0.00776081975             0.00158336912           
       3.325560             0.00677336599             0.00148021771           
       3.328201             0.00550679419             0.00120202801           
       3.330841             0.00432094857              0.0012958884           
       3.333482             0.00763532062             0.00162827964           
       3.336122             0.00656152654             0.00151014061           
       3.338762             0.00413075066             0.00138410695           
       3.341403             0.00631747952             0.00163559569           
       3.344043              0.0081128171             0.00177950175           
       3.346683             0.00650456099             0.00162671937           
       3.349324             0.00619692572             0.00178519314           
       3.351964             0.00396963972             0.00151090677           
       3.354605             0.00528678529             0.00199412404           
       3.357245             0.00302064778             0.00135976587           
       3.359885              0.0051064132             0.00141500392           
       3.362526             0.00671230676             0.00202877458           
       3.365166              0.0054793364             0.00172887149           
       3.367807             0.00800816116             0.00267489128           
       3.370447             0.00800136811             0.00221791798           
       3.373087             0.00485335776             0.00184719084           
       3.375728             0.00704698835             0.00251206931           
       3.378368             0.00398260074             0.00280274202           
       3.381008              0.0032741001             0.00189462757           
       3.383649             0.00488207444             0.00185594257           
       3.386289             0.00989253309             0.00312677502           
       3.388930           -2.64203639e-05                         0           
       3.391570             0.00978333358             0.00347930188           
       3.394210             0.00396346801             0.00280256908           
       3.396851             0.00483895024             0.00346392135           
       3.399491             0.00480222369             0.00345172135           
       3.402131            -2.6531296e-05                         0           
       3.404772           -2.65441013e-05                         0           
       3.407412                       nan                       nan           
       3.410053           -2.66094795e-05                         0           
       3.412693                       nan                       nan           
       3.415333               0.009033286             0.00949516309           
