################################################################################
# EDF_DataBlockID                     0.Image.Psd
# EDF_BinarySize                      2105344
# EDF_HeaderSize                      2560
# ByteOrder                           LowByteFirst
# DataType                            FloatValue
# Dim_1                               512
# Dim_2                               1028
# Image                               0
# HeaderID                            EH:000000:000000:000000
# Size                                2105344
# Center_1                            304.9000
# Center_2                            588.7000
# Comment                             Xenocs_Cell_Window - 20251028_20perc_iodine_1.23mg
# DDummy                              0.6
# Date                                2025-10-30T19:49:30
# Delta                               21.910000
# Dummy                               -1.5
# ExposureTime                        360
# Gamma                               15.360000
# Intensity1                          8.52537e-10
# PSize_1                             7.5e-05
# PSize_2                             7.5e-05
# Pressure                            0.0327368
# SampleDistance                      0.115750
# SampleEnvKind                       large
# SampleEnvPN                         ElectroChemical cell
# SampleEnvSN                         1141
# Thickness                           0
# Wavelength                          1.541891e-10
# Wavelength                          1.54189e-10
# aux                                 0
# aux_dial                            0.002375
# beamx                               588.434
# beamx_dial                          588.434
# beamz                               657.808
# beamz_dial                          657.808
# det0x                               0
# det0x_dial                          6.36945
# det0xvd                             0
# det0xvd_dial                        0
# det0y                               450.002
# det0y_dial                          481.635
# det0z                               0
# det0z_dial                          1.23302
# det0zvd                             0
# det0zvd_dial                        0
# mag                                 1.818
# mag_dial                            1.818
# om                                  0.2499
# om_dial                             -0.610199
# phi                                 -0.0120535
# phi_dial                            0
# ry                                  0.599993
# ry_dial                             0.599993
# s1bot                               0.8
# s1bot_dial                          -1.66094
# s1hl                                0.8
# s1hl_dial                           -0.608437
# s1hr                                0.8
# s1hr_dial                           0.970938
# s1top                               0.8
# s1top_dial                          -0.461562
# s2bot                               0.45
# s2bot_dial                          1.36109
# s2hl                                0.45
# s2hl_dial                           -0.83375
# s2hr                                0.45
# s2hr_dial                           -0.118594
# s2top                               0.45
# s2top_dial                          1.44734
# w2theta                             32
# w2theta_dial                        32
# waxsch                              19.2605
# waxsch_dial                         -32.7355
# waxsh                               137.085
# waxsh_dial                          -43.5338
# waxsth                              26.0607
# waxsth_dial                         -19.4086
# waxsz                               67.0407
# waxsz_dial                          -23.7954
# wind                                65.9854
# wind_dial                           66.0041
# wpsi                                124
# wpsi_dial                           124
# wstod                               115
# wstod_dial                          115
# x                                   0
# x_dial                              1.00969
# z                                   0
# z_dial                              13.3172
# CountCutoff                         6807993
# DetectorModel                       Dectris EIGER2 Si 500K, S/N E-01-0554
# ThresholdSetting                    4023.88989258
# Saturation                          0
# FlatField                           Corrected
# BackgroundReductionExtra            0.02
# BackgroundCorrectionConstant        0.0026712
# Detector                            0
# Monitor                             0
# Pil_Roi0                            0
# SumForIntensity1                    3.06913e+08
# TransmittedFlux                     852537
# det                                 0
# mon                                 0
# pilai0                              3.06913e+08
# pilai1                              774732
# pilct0                              5.30938e+08
# pilct1                              774732
# pilroi0                             0
# pilroi1                             0
# sec                                 1
# title                               20251028_20perc_iodine_1.23mg_1_00486.edf
# usaxs0                              0
# Operation                           Azimuthal average I(q)
# Error_model                         ErrorModel.poisson
# Geometrical_correction              True
# Transmission_correction             True
# Thickness_correction                False
# Binning mode                        Uniform
# Binning factor                      1.0
# Psi                                 0.0
# Omega                               0.2499
# MaskInvalidPixels                   True
# DetectorEdge                        3
# MaskFiles                           ['WAXS_corrected.edf']
################################################################################
    q(A⁻¹)                Intensity(a.u.)            Sigma_I(a.u.)            
       0.693100             0.00828577543             0.00607748687           
       0.695741             0.00557317839             0.00406739773           
       0.698381             0.00849186051             0.00615006141           
       0.701021             0.00884168003             0.00887151126           
       0.703662             0.00282578163             0.00289493604           
       0.706302              0.0051331096             0.00302076609           
       0.708942             0.00571949058             0.00411553745           
       0.711583             0.00440333117             0.00312697459           
       0.714223             0.00288883054             0.00292411622           
       0.716864             0.00372284051             0.00217190886           
       0.719504             0.00142612234             0.00145060987           
       0.722144             0.00757889856             0.00309686377           
       0.724785             0.00481582263             0.00196918129           
       0.727425             0.00439295208             0.00254430246           
       0.730065             0.00872766328             0.00253676778           
       0.732706             0.00927341804             0.00219583845           
       0.735346             0.00969213687             0.00292626968           
       0.737987             0.00829500987             0.00191297856           
       0.740627             0.00193988842              0.0013803096           
       0.743267             0.00660628803             0.00170611792           
       0.745908             0.00674353343             0.00187017727           
       0.748548             0.00786368292              0.0018615146           
       0.751189             0.00881103122             0.00265511508           
       0.753829             0.00473690442             0.00178954406           
       0.756469              0.0061142295             0.00163945424           
       0.759110             0.00731269669             0.00188946019           
       0.761750             0.00568882505              0.0014735705           
       0.764390             0.00748811744             0.00176950347           
       0.767031             0.00815893277             0.00159948781           
       0.769671             0.00683150806             0.00182573268           
       0.772312             0.00848090394             0.00154864302           
       0.774952             0.00928955637             0.00218870611           
       0.777592             0.00709095456             0.00139283447           
       0.780233             0.00554956092             0.00148662091           
       0.782873             0.00655130611             0.00154481865           
       0.785513             0.00707200354             0.00171588654           
       0.788154             0.00432868816             0.00112299895           
       0.790794             0.00535859426             0.00149377668           
       0.793435              0.0107630427             0.00190185756           
       0.796075             0.00683463264             0.00145993731           
       0.798715             0.00650759727             0.00168344796           
       0.801356             0.00670001638             0.00147015528           
       0.803996             0.00672146583             0.00150123953           
       0.806637              0.0082664021              0.0013249164           
       0.809277             0.00796728661             0.00140788366           
       0.811917             0.00631817081             0.00117204659           
       0.814558              0.0058135628             0.00116847718           
       0.817198             0.00661045307             0.00118374921           
       0.819838             0.00695578168             0.00122893603           
       0.822479             0.00809902604              0.0015571907           
       0.825119             0.00780553145             0.00130112902           
       0.827760             0.00688961331             0.00123825299           
       0.830400              0.0100010335              0.0014041374           
       0.833040             0.00625146451             0.00116308569           
       0.835681             0.00951763886             0.00163147539           
       0.838321             0.00691102494             0.00116686567           
       0.840961             0.00671591663             0.00125328047           
       0.843602             0.00625167861             0.00110887509           
       0.846242             0.00624358902             0.00110799214           
       0.848883             0.00720524978               0.001218066           
       0.851523             0.00644972728             0.00113812102           
       0.854163             0.00795615031             0.00134427596           
       0.856804             0.00624410849             0.00107077469           
       0.859444             0.00896492568              0.0012571198           
       0.862085             0.00767688081             0.00121246094           
       0.864725             0.00802463339             0.00126862132           
       0.867365             0.00724412627             0.00111770788           
       0.870006             0.00765994198             0.00109523151           
       0.872646             0.00843501197             0.00120520741           
       0.875286             0.00808779701              0.0011353691           
       0.877927             0.00663826336            0.000992557142           
       0.880567             0.00877963506             0.00118259158           
       0.883208             0.00670510408             0.00102373718           
       0.885848             0.00639346541             0.00103795162           
       0.888488             0.00814042955             0.00109851722           
       0.891129             0.00795556282              0.0011150667           
       0.893769             0.00717195596             0.00101322977           
       0.896410              0.0067031406            0.000913287392           
       0.899050             0.00722122515             0.00104245922           
       0.901690             0.00840262068             0.00122491162           
       0.904331             0.00658880035            0.000961626145           
       0.906971             0.00794814469             0.00112359645           
       0.909611             0.00853880845              0.0010601571           
       0.912252              0.0074261428             0.00102119671           
       0.914892             0.00837808081             0.00118531965           
       0.917533             0.00686511233             0.00101502442           
       0.920173             0.00721638758            0.000965536181           
       0.922813             0.00710247005             0.00100519231           
       0.925454             0.00726035179            0.000915153009           
       0.928094             0.00772929974             0.00100806176           
       0.930734              0.0060918454            0.000963496519           
       0.933375             0.00849686992             0.00112671658           
       0.936015             0.00639927508            0.000888052666           
       0.938656             0.00753443196              0.0010337194           
       0.941296              0.0074434694            0.000931162085           
       0.943936             0.00717378201            0.000896453808           
       0.946577             0.00618161856            0.000826654826           
       0.949217             0.00857551663            0.000895360269           
       0.951858             0.00809669715            0.000910721331           
       0.954498             0.00783436874             0.00103692642           
       0.957138             0.00786985147            0.000984567925           
       0.959779             0.00838433717             0.00100180492           
       0.962419             0.00766003046            0.000951186342           
       0.965059             0.00822072256             0.00103636578           
       0.967700             0.00753777805             0.00101639811           
       0.970340             0.00652649649            0.000836906486           
       0.972981             0.00771744972            0.000829159154           
       0.975621             0.00766902447            0.000879310677           
       0.978261             0.00801756765            0.000854274791           
       0.980902             0.00844080316             0.00104872774           
       0.983542             0.00756183237            0.000879032478           
       0.986182             0.00867639583             0.00092444566           
       0.988823             0.00874367787            0.000901112032           
       0.991463             0.00707959091            0.000865082937           
       0.994104             0.00793720813              0.0008935558           
       0.996744             0.00659645851            0.000830883201           
       0.999384             0.00694577074            0.000762508654           
       1.002025              0.0057328739            0.000773190223           
       1.004665             0.00880933646            0.000875909344           
       1.007306             0.00741151164            0.000799304559           
       1.009946             0.00789439936            0.000841315785           
       1.012586             0.00824559665            0.000837419812           
       1.015227             0.00735570443             0.00084971871           
       1.017867              0.0069779268            0.000795391398           
       1.020507             0.00886743365            0.000868514791           
       1.023148             0.00840140539            0.000912192853           
       1.025788             0.00757653281            0.000794287882           
       1.028429             0.00803797839            0.000857113454           
       1.031069             0.00736903794              0.0007722851           
       1.033709             0.00838250404            0.000875575128           
       1.036350             0.00707520392            0.000722467739           
       1.038990             0.00772649071            0.000768862077           
       1.041630              0.0085671566            0.000844430996           
       1.044271             0.00824519091             0.00077909102           
       1.046911             0.00743196049            0.000778039095           
       1.049552             0.00575650554            0.000719412028           
       1.052192              0.0083207773            0.000789789311           
       1.054832             0.00830941278            0.000796429468           
       1.057473             0.00779197856            0.000760273653           
       1.060113             0.00861915567            0.000779837562           
       1.062754              0.0093997921            0.000831474919           
       1.065394             0.00829574896            0.000825845898           
       1.068034             0.00768938725            0.000723424193           
       1.070675             0.00949905872            0.000838731417           
       1.073315             0.00893878808            0.000825282798           
       1.075955             0.00809123255            0.000741257513           
       1.078596             0.00959415208            0.000857861681           
       1.081236             0.00879481726            0.000786494632           
       1.083877              0.0100817603              0.0008345206           
       1.086517             0.00865283308            0.000829013053           
       1.089157             0.00924635199            0.000889206064           
       1.091798             0.00931249676            0.000782365053           
       1.094438             0.00737895236            0.000694176246           
       1.097078             0.00786423264            0.000687332208           
       1.099719              0.0090455433            0.000797340388           
       1.102359             0.00850609676            0.000724110629           
       1.105000             0.00871163557            0.000819421043           
       1.107640             0.00801811253            0.000751666324           
       1.110280             0.00948214249            0.000745828252           
       1.112921             0.00914203034            0.000786680941           
       1.115561             0.00925050068            0.000752096875           
       1.118202             0.00864876258            0.000727909155           
       1.120842             0.00831128224            0.000749962591           
       1.123482              0.0100020222            0.000819121835           
       1.126123              0.0100498762            0.000787552347           
       1.128763             0.00895380734            0.000748463188           
       1.131403             0.00974260267            0.000752305767           
       1.134044             0.00929813949            0.000756260343           
       1.136684             0.00838269694            0.000765584306           
       1.139325             0.00841433062            0.000706584855           
       1.141965             0.00906301585            0.000738163437           
       1.144605             0.00879106892            0.000693200787           
       1.147246              0.0104590021            0.000773810237           
       1.149886              0.0102899718            0.000764807212           
       1.152527             0.00794357102            0.000681746323           
       1.155167             0.00888693729            0.000685868784           
       1.157807             0.00870350375            0.000727744612           
       1.160448             0.00876907549            0.000713333264           
       1.163088             0.00954445399            0.000709859659           
       1.165728              0.0105313567            0.000765580161           
       1.168369             0.00855008673            0.000696189736           
       1.171009              0.0101796647            0.000737212167           
       1.173650             0.00966676786            0.000737249823           
       1.176290              0.0103712012            0.000746247401           
       1.178930              0.0100607416            0.000720360217           
       1.181571             0.00953736353            0.000715281228           
       1.184211             0.00954240956            0.000718007179           
       1.186851             0.00972112696             0.00070852843           
       1.189492             0.00908217577            0.000680240254           
       1.192132             0.00874803617            0.000660119143           
       1.194773             0.00895243348            0.000670704168           
       1.197413             0.00854245882             0.00062774258           
       1.200053              0.0103838801            0.000709687043           
       1.202694             0.00987785235            0.000658222452           
       1.205334             0.00971462711            0.000703472531           
       1.207975              0.0103832513            0.000694207857           
       1.210615             0.00924677484            0.000722703885           
       1.213255               0.010262896            0.000681796298           
       1.215896              0.0100054338             0.00068538749           
       1.218536             0.00996343113            0.000657644652           
       1.221176              0.0102636191            0.000725685765           
       1.223817             0.00943523198            0.000653144539           
       1.226457              0.0098666287            0.000681365048           
       1.229098              0.0110632831            0.000721466737           
       1.231738              0.0106369944            0.000710912196           
       1.234378             0.00887706216            0.000610249433           
       1.237019             0.00975095761            0.000659083432           
       1.239659              0.0101900209            0.000667889445           
       1.242299             0.00969611952            0.000643224981           
       1.244940              0.0102513885            0.000643239753           
       1.247580              0.0105260838            0.000671734103           
       1.250221              0.0107077321            0.000673324906           
       1.252861             0.00946639884            0.000602708714           
       1.255501              0.0106857696            0.000695298605           
       1.258142              0.0110912545            0.000665638606           
       1.260782              0.0105465033            0.000663130702           
       1.263423              0.0103189231            0.000630281191           
       1.266063              0.0101928736            0.000642062343           
       1.268703              0.0105128392            0.000646651152           
       1.271344             0.00993502211             0.00064993377           
       1.273984              0.0101811271            0.000635434867           
       1.276624             0.00991697948             0.00061535583           
       1.279265              0.0109954045             0.00065871132           
       1.281905             0.00997754267            0.000630266929           
       1.284546              0.0109711314            0.000638823724           
       1.287186              0.0106527817             0.00061759365           
       1.289826              0.0119722826            0.000690027914           
       1.292467              0.0101605036            0.000621674687           
       1.295107              0.0114773392            0.000654169815           
       1.297747              0.0109844245            0.000612396629           
       1.300388              0.0105758532            0.000655056314           
       1.303028              0.0109040568            0.000634985367           
       1.305669              0.0118881236            0.000678806632           
       1.308309              0.0106433807             0.00063596211           
       1.310949               0.010901347            0.000642976134           
       1.313590              0.0114260391            0.000637691108           
       1.316230              0.0094686489            0.000619480229           
       1.318871              0.0104444785            0.000637201544           
       1.321511              0.0121793172             0.00067533554           
       1.324151              0.0106746167            0.000613499672           
       1.326792              0.0112835891            0.000634656217           
       1.329432              0.0104615537            0.000606788591           
       1.332072              0.0114046918            0.000624108445           
       1.334713              0.0112471054            0.000639676099           
       1.337353               0.010890044             0.00060364582           
       1.339994              0.0121715354            0.000669701516           
       1.342634                0.01162468            0.000627609149           
       1.345274              0.0107633445            0.000624990331           
       1.347915              0.0106818378            0.000605425871           
       1.350555              0.0124319134             0.00066458005           
       1.353195              0.0113577563            0.000638340499           
       1.355836              0.0112575752            0.000625609299           
       1.358476              0.0109509619            0.000599230668           
       1.361117              0.0116056833             0.00061773039           
       1.363757               0.011085181            0.000622153516           
       1.366397              0.0115314709            0.000615351534           
       1.369038              0.0108097127            0.000601715211           
       1.371678              0.0126912487            0.000646234813           
       1.374319              0.0116041281            0.000612616357           
       1.376959              0.0116336873            0.000607227476           
       1.379599              0.0112435559            0.000639759362           
       1.382240              0.0110172367            0.000595195505           
       1.384880              0.0124853595            0.000671139748           
       1.387520              0.0115208832            0.000612288171           
       1.390161              0.0104373534            0.000553505509           
       1.392801              0.0115873479            0.000607639636           
       1.395442              0.0115927363            0.000616081799           
       1.398082              0.0107546651            0.000555688512           
       1.400722              0.0113275381            0.000597372535           
       1.403363              0.0109466215            0.000618144163           
       1.406003              0.0109716155            0.000579159966           
       1.408644              0.0116038157            0.000623942608           
       1.411284              0.0117996634            0.000595783307           
       1.413924              0.0107347915            0.000566157536           
       1.416565              0.0115176931            0.000584135928           
       1.419205               0.011499809            0.000608873719           
       1.421845              0.0105438426            0.000582674868           
       1.424486             0.00963438318            0.000535384807           
       1.427126              0.0113773326            0.000604378515           
       1.429767              0.0100966437             0.00053568665           
       1.432407              0.0103969063            0.000568883452           
       1.435047              0.0108876634            0.000546740105           
       1.437688              0.0116076446            0.000572968885           
       1.440328              0.0111265111            0.000572531341           
       1.442968              0.0115642194            0.000596761956           
       1.445609              0.0114526222            0.000575036212           
       1.448249               0.011457582            0.000589723398           
       1.450890                0.01087445            0.000570770617           
       1.453530              0.0121910341            0.000632256663           
       1.456170              0.0108264837            0.000578259655           
       1.458811              0.0112157376             0.00056279664           
       1.461451              0.0111445618             0.00056247969           
       1.464092              0.0105104718            0.000549814956           
       1.466732              0.0110451953            0.000558784068           
       1.469372              0.0113078833            0.000552157949           
       1.472013             0.00991242421             0.00055755897           
       1.474653              0.0106437052            0.000568847074           
       1.477293              0.0117255979            0.000609642115           
       1.479934              0.0118957648            0.000585931859           
       1.482574              0.0117429566            0.000563145334           
       1.485215              0.0120719654            0.000581614442           
       1.487855              0.0103594173            0.000545890401           
       1.490495              0.0111798104            0.000565005391           
       1.493136               0.011476538            0.000564607736           
       1.495776              0.0105877672            0.000539835655           
       1.498416              0.0106808839              0.0005599437           
       1.501057              0.0107188011            0.000548574508           
       1.503697              0.0115996022            0.000557919691           
       1.506338              0.0101170344            0.000530568178           
       1.508978             0.00967204939            0.000513667059           
       1.511618              0.0102971362            0.000564453681           
       1.514259              0.0106466807            0.000554125841           
       1.516899              0.0101802998            0.000527585311           
       1.519540              0.0113604608            0.000566314708           
       1.522180              0.0104380448            0.000547605549           
       1.524820              0.0104754303            0.000545507518           
       1.527461             0.00946675986            0.000521144395           
       1.530101              0.0107156441            0.000548910143           
       1.532741              0.0101715745            0.000531690001           
       1.535382              0.0111431436            0.000565462997           
       1.538022              0.0106371264            0.000520460524           
       1.540663              0.0108344838            0.000564956615           
       1.543303              0.0101501283            0.000507734052           
       1.545943              0.0104108506             0.00054425722           
       1.548584              0.0106067388            0.000559214906           
       1.551224              0.0108632042            0.000523260656           
       1.553864              0.0107726919            0.000550614365           
       1.556505              0.0093721573            0.000496128263           
       1.559145              0.0101444544            0.000522487944           
       1.561786             0.00943102098            0.000504168408           
       1.564426             0.00996040256            0.000502009371           
       1.567066              0.0109197214            0.000550758067           
       1.569707              0.0103766767            0.000527244451           
       1.572347             0.00977395082            0.000528640341           
       1.574988             0.00928991579            0.000490559363           
       1.577628             0.00928056028            0.000511274822           
       1.580268             0.00937854979            0.000497979189           
       1.582909             0.00931888157            0.000526156352           
       1.585549               0.011031244             0.00055584039           
       1.588189             0.00985870216            0.000514001184           
       1.590830              0.0102257566            0.000522825236           
       1.593470              0.0091819433            0.000515039659           
       1.596111             0.00888657813            0.000494684929           
       1.598751              0.0102190645            0.000514014918           
       1.601391             0.00920270145            0.000498546167           
       1.604032             0.00930749431            0.000511858013           
       1.606672             0.00916345748            0.000493455556           
       1.609312              0.0093760942            0.000521052142           
       1.611953             0.00956420706            0.000514971489           
       1.614593             0.00922991483            0.000496239684           
       1.617234             0.00941499319            0.000519421961           
       1.619874             0.00881293719            0.000500554843           
       1.622514               0.008865157            0.000495187131           
       1.625155             0.00858711877            0.000490239063           
       1.627795             0.00924619966            0.000496240594           
       1.630436             0.00829566257            0.000467587088           
       1.633076             0.00875996544            0.000486796093           
       1.635716             0.00991045267            0.000509720689           
       1.638357             0.00848339211            0.000472839242           
       1.640997             0.00890856049            0.000499221003           
       1.643637              0.0095261826            0.000502356099           
       1.646278              0.0089724299            0.000502855096           
       1.648918             0.00943819443            0.000517148648           
       1.651559             0.00942180578            0.000520709812           
       1.654199             0.00915297241            0.000499158647           
       1.656839              0.0084990886            0.000481166377           
       1.659480             0.00948359761            0.000527357917           
       1.662120             0.00860455693            0.000473105627           
       1.664761             0.00901519734            0.000503024478           
       1.667401             0.00832587316            0.000462037268           
       1.670041             0.00929546519            0.000495643836           
       1.672682             0.00832412486            0.000467105235           
       1.675322             0.00978526424            0.000503187657           
       1.677962             0.00919073228            0.000482282289           
       1.680603             0.00912070058            0.000481919761           
       1.683243             0.00890077817            0.000496694616           
       1.685884             0.00933833301            0.000512513686           
       1.688524             0.00960534085            0.000509741518           
       1.691164              0.0090952562            0.000496134752           
       1.693805             0.00881732252            0.000493861789           
       1.696445             0.00951311721            0.000515953337           
       1.699085             0.00852409184            0.000472031818           
       1.701726               0.009039711             0.00046827127           
       1.704366             0.00806077276             0.00046583468           
       1.707007              0.0083028424             0.00046223886           
       1.709647             0.00881184793             0.00048157462           
       1.712287              0.0084825585            0.000476603661           
       1.714928             0.00805377844            0.000468145961           
       1.717568             0.00862642389            0.000456404136           
       1.720209             0.00838601249            0.000471343149           
       1.722849             0.00874333643            0.000478805941           
       1.725489             0.00822310986            0.000464732989           
       1.728130             0.00884172751             0.00051212123           
       1.730770             0.00805733475            0.000464302098           
       1.733410              0.0086462502            0.000473410548           
       1.736051             0.00928301797            0.000493947785           
       1.738691              0.0088844153            0.000473431014           
       1.741332             0.00838414702            0.000473356837           
       1.743972             0.00874491033            0.000499227358           
       1.746612              0.0089535272            0.000485069895           
       1.749253             0.00830369959            0.000476360876           
       1.751893             0.00872650229            0.000484753348           
       1.754533             0.00886693714            0.000488181997           
       1.757174             0.00896229957            0.000486204042           
       1.759814             0.00889563031            0.000477049818           
       1.762455             0.00831640752             0.00046972696           
       1.765095             0.00882822205            0.000462971656           
       1.767735             0.00841676642            0.000465999967           
       1.770376             0.00917763294            0.000487890097           
       1.773016             0.00897684241            0.000479291418           
       1.775657             0.00822471543            0.000452172343           
       1.778297             0.00810303716            0.000444950422           
       1.780937             0.00937350712            0.000505122661           
       1.783578             0.00902381303            0.000483218518           
       1.786218             0.00844357779             0.00048780895           
       1.788858             0.00892587617            0.000476348962           
       1.791499             0.00900273299            0.000473022559           
       1.794139             0.00855515386            0.000457373184           
       1.796780             0.00978719086            0.000486840903           
       1.799420             0.00897422393            0.000463601445           
       1.802060             0.00910150236            0.000470648531           
       1.804701              0.0087226468            0.000442155612           
       1.807341              0.0090147066            0.000472323576           
       1.809981             0.00884473956            0.000469409524           
       1.812622             0.00860584014            0.000454690692           
       1.815262             0.00977026804            0.000494767839           
       1.817903             0.00880378393            0.000462700401           
       1.820543             0.00965787366            0.000492176702           
       1.823183             0.00879840452            0.000469508475           
       1.825824             0.00881554644             0.00044898612           
       1.828464             0.00829225698            0.000453982118           
       1.831105             0.00879778439            0.000454687066           
       1.833745              0.0086964818            0.000461716394           
       1.836385             0.00776989979            0.000448881532           
       1.839026             0.00875469289            0.000474974379           
       1.841666             0.00974890592            0.000499441873           
       1.844306             0.00933085245             0.00047528386           
       1.846947             0.00833838744            0.000453235337           
       1.849587             0.00979978132            0.000542569462           
       1.852228             0.00847438228            0.000456235049           
       1.854868             0.00909975721            0.000499411138           
       1.857508             0.00904404359            0.000492996804           
       1.860149             0.00899625023            0.000500625804           
       1.862789             0.00814759188            0.000459863013           
       1.865429             0.00907253882            0.000506541593           
       1.868070             0.00875766071            0.000491040652           
       1.870710             0.00855507114            0.000474138807           
       1.873351             0.00853190734            0.000479349978           
       1.875991             0.00819880256            0.000477568223           
       1.878631             0.00835934785            0.000472985715           
       1.881272             0.00893784616            0.000485801192           
       1.883912             0.00904108044            0.000508489134           
       1.886553             0.00900495374             0.00050179865           
       1.889193             0.00917425449            0.000505628377           
       1.891833             0.00846559343            0.000504426112           
       1.894474             0.00922302132            0.000521923232           
       1.897114             0.00859250372            0.000487485003           
       1.899754             0.00852557167            0.000487614355           
       1.902395             0.00811801421            0.000466513861           
       1.905035             0.00864677084            0.000509954363           
       1.907676             0.00886686745            0.000486712119           
       1.910316             0.00864526114            0.000493352053           
       1.912956             0.00825337358            0.000471435664           
       1.915597             0.00870756869            0.000486940158           
       1.918237             0.00861814654            0.000500301826           
       1.920878             0.00851434661            0.000495244107           
       1.923518             0.00896621858            0.000508431611           
       1.926158             0.00906622115             0.00050462474           
       1.928799             0.00866605007            0.000487651519           
       1.931439             0.00887319133            0.000506387739           
       1.934079             0.00860673902            0.000519910262           
       1.936720             0.00894866027            0.000491187293           
       1.939360             0.00809045741             0.00049826721           
       1.942001             0.00787046859            0.000450435709           
       1.944641             0.00857477435            0.000479419099           
       1.947281              0.0084186394            0.000470655636           
       1.949922             0.00835800081            0.000484391648           
       1.952562             0.00841891686             0.00050139244           
       1.955202             0.00850872405            0.000503445169           
       1.957843              0.0086407437            0.000494179134           
       1.960483             0.00830277021            0.000506458461           
       1.963124              0.0085260009            0.000502692737           
       1.965764             0.00909030659            0.000489489954           
       1.968404             0.00756050552            0.000442188094           
       1.971045             0.00825770635            0.000471162777           
       1.973685             0.00884992694             0.00051162962           
       1.976326             0.00844494941             0.00049291739           
       1.978966             0.00805232294            0.000485546562           
       1.981606             0.00850579777            0.000509438955           
       1.984247             0.00740490337            0.000472203955           
       1.986887             0.00861486288            0.000503222852           
       1.989527             0.00808316016            0.000482196785           
       1.992168             0.00896816906            0.000526998274           
       1.994808             0.00764583102            0.000484511409           
       1.997449             0.00756356329            0.000472001226           
       2.000089             0.00750973138            0.000468453889           
       2.002729             0.00798735964            0.000483411036           
       2.005370             0.00804108389            0.000479815244           
       2.008010             0.00769327072            0.000489806291           
       2.010650             0.00794165857            0.000501363901           
       2.013291             0.00730527308            0.000461355399           
       2.015931             0.00782569293            0.000474130504           
       2.018572             0.00757738918            0.000499017161           
       2.021212             0.00661433104            0.000457851721           
       2.023852             0.00705201404             0.00044744275           
       2.026493             0.00794929073            0.000496280824           
       2.029133             0.00740391493             0.00046931574           
       2.031774             0.00691441562            0.000475976375           
       2.034414             0.00705553012            0.000442410964           
       2.037054             0.00807920339            0.000485418218           
       2.039695             0.00732477916            0.000458708284           
       2.042335             0.00740719408              0.0004793729           
       2.044975             0.00796358198             0.00049102301           
       2.047616              0.0074397178            0.000473419008           
       2.050256             0.00797409352            0.000494764772           
       2.052897             0.00747901126            0.000487993193           
       2.055537             0.00742868379            0.000470037363           
       2.058177             0.00746549153            0.000461432249           
       2.060818             0.00816320197            0.000505469731           
       2.063458             0.00787281123            0.000517295762           
       2.066098             0.00810531875            0.000495136556           
       2.068739             0.00795135549            0.000498034315           
       2.071379             0.00791573243            0.000509877201           
       2.074020             0.00791663667            0.000498824639           
       2.076660              0.0073341943            0.000484005668           
       2.079300             0.00827937318            0.000526848545           
       2.081941             0.00741830081            0.000456616564           
       2.084581              0.0080075402            0.000500738818           
       2.087222             0.00779851872            0.000476570274           
       2.089862             0.00697230605            0.000490792411           
       2.092502             0.00762569632            0.000497545989           
       2.095143             0.00828121034            0.000535418471           
       2.097783             0.00811442069             0.00051312842           
       2.100423             0.00674840232            0.000450911176           
       2.103064             0.00668645391            0.000465728482           
       2.105704             0.00693404858            0.000471923705           
       2.108345             0.00749484095            0.000471370166           
       2.110985             0.00794956297            0.000518505283           
       2.113625             0.00705737924            0.000492806805           
       2.116266             0.00838968252            0.000544936685           
       2.118906               0.007654375            0.000485085122           
       2.121546             0.00794704825             0.00048483483           
       2.124187             0.00706193088            0.000479749086           
       2.126827             0.00726227437            0.000491936392           
       2.129468             0.00730644603            0.000494690574           
       2.132108             0.00755553524            0.000489431633           
       2.134748             0.00766508553            0.000491054477           
       2.137389             0.00787117865            0.000519133173           
       2.140029             0.00821854032            0.000474904105           
       2.142670             0.00755361126            0.000486575748           
       2.145310             0.00706473129            0.000458010764           
       2.147950             0.00751671633            0.000486264221           
       2.150591             0.00740968526            0.000477910728           
       2.153231             0.00755133521            0.000496614658           
       2.155871             0.00752902671            0.000479053593           
       2.158512             0.00650646778            0.000464676025           
       2.161152             0.00735250202             0.00047848424           
       2.163793             0.00885713293            0.000522801806           
       2.166433             0.00752275578            0.000494771723           
       2.169073             0.00719012844             0.00047294059           
       2.171714             0.00729328618            0.000472760451           
       2.174354             0.00739019026             0.00049726194           
       2.176995             0.00687341129            0.000477542814           
       2.179635             0.00697624878            0.000508387746           
       2.182275             0.00702271645            0.000481594646           
       2.184916             0.00736654533            0.000476408768           
       2.187556             0.00806608331            0.000493519521           
       2.190196             0.00778473537            0.000506647149           
       2.192837             0.00762559817            0.000498713662           
       2.195477             0.00767248536            0.000476923736           
       2.198118             0.00623038455            0.000440784495           
       2.200758             0.00785427159            0.000507742488           
       2.203398             0.00770740188            0.000506190555           
       2.206039             0.00783709697              0.0004830804           
       2.208679             0.00727395841            0.000476232067           
       2.211319             0.00680687905            0.000463344692           
       2.213960             0.00710358412            0.000479677252           
       2.216600              0.0075544163            0.000511719479           
       2.219241             0.00716029999            0.000476137319           
       2.221881             0.00763581727            0.000492704348           
       2.224521             0.00834776848            0.000521474727           
       2.227162             0.00713625993            0.000472497566           
       2.229802             0.00728874073            0.000492467061           
       2.232443             0.00809772261            0.000510890352           
       2.235083             0.00779535198            0.000516047069           
       2.237723             0.00701401376            0.000469748548           
       2.240364             0.00696820619            0.000479746858           
       2.243004             0.00777528057            0.000502723292           
       2.245644             0.00776965076            0.000507571409           
       2.248285             0.00739719453            0.000485334753           
       2.250925             0.00720311756            0.000481834959           
       2.253566             0.00737095139            0.000521085074           
       2.256206             0.00754357349             0.00051661104           
       2.258846             0.00698881029            0.000473024425           
       2.261487             0.00621728025            0.000468277177           
       2.264127             0.00704649693            0.000481470283           
       2.266767             0.00787172366            0.000522440833           
       2.269408             0.00795206042             0.00052725031           
       2.272048             0.00729891328            0.000502118224           
       2.274689             0.00766114083            0.000521205079           
       2.277329             0.00723482015            0.000476898368           
       2.279969             0.00756234922            0.000518994353           
       2.282610              0.0067322598            0.000476063224           
       2.285250             0.00727901052            0.000473798819           
       2.287891             0.00751065618            0.000516003553           
       2.290531             0.00733329062            0.000516728473           
       2.293171             0.00759811915            0.000512348264           
       2.295812             0.00668553033            0.000478664166           
       2.298452             0.00663134735            0.000498523008           
       2.301092             0.00666550941             0.00046438068           
       2.303733              0.0062988502            0.000469642405           
       2.306373             0.00726122355            0.000512186066           
       2.309014             0.00777084705            0.000519518723           
       2.311654             0.00684466587            0.000508809668           
       2.314294             0.00742503803            0.000488237777           
       2.316935             0.00777820957            0.000501778924           
       2.319575             0.00725685484            0.000507822772           
       2.322215             0.00749704969            0.000537924373           
       2.324856             0.00682893074            0.000472014271           
       2.327496             0.00644757469            0.000487683997           
       2.330137             0.00763373324            0.000507793095           
       2.332777             0.00670422182            0.000490677407           
       2.335417             0.00746319696             0.00050225353           
       2.338058             0.00695251401            0.000499246251           
       2.340698             0.00765036017            0.000519587235           
       2.343339             0.00700383584            0.000508087989           
       2.345979             0.00815315622            0.000518634593           
       2.348619             0.00790558012            0.000529367441           
       2.351260             0.00779914618              0.0005227285           
       2.353900             0.00700600034             0.00049386675           
       2.356540             0.00704447597            0.000494518027           
       2.359181              0.0070819642            0.000488880789           
       2.361821             0.00860107213            0.000520436261           
       2.364462             0.00693535605            0.000488770927           
       2.367102             0.00647378387            0.000485287962           
       2.369742             0.00733850721            0.000543844682           
       2.372383             0.00748396392            0.000497306503           
       2.375023             0.00738105398            0.000519170174           
       2.377663             0.00727132054            0.000492699114           
       2.380304             0.00700407845            0.000491623086           
       2.382944             0.00704911657            0.000469758521           
       2.385585             0.00735962886            0.000511921248           
       2.388225              0.0084189295            0.000544951804           
       2.390865             0.00702055831            0.000492528356           
       2.393506             0.00751314702            0.000499901693           
       2.396146             0.00723367095            0.000530367861           
       2.398787             0.00667358402            0.000469471576           
       2.401427             0.00731015734            0.000474268362           
       2.404067             0.00699673177            0.000474339338           
       2.406708             0.00656770259            0.000454055451           
       2.409348             0.00593330112            0.000457763464           
       2.411988              0.0069201119            0.000484370318           
       2.414629             0.00692365716            0.000499583392           
       2.417269             0.00714619843            0.000513474505           
       2.419910             0.00745202526            0.000525563385           
       2.422550             0.00756798841            0.000506723855           
       2.425190             0.00705246969            0.000515626668           
       2.427831             0.00742293957            0.000526022729           
       2.430471             0.00734453586            0.000498484633           
       2.433112             0.00793042616            0.000504394706           
       2.435752             0.00740426131            0.000515794766           
       2.438392             0.00682327696            0.000477916287           
       2.441033             0.00688898247            0.000508928034           
       2.443673             0.00650861604            0.000495058942           
       2.446313             0.00728204393            0.000524109433           
       2.448954             0.00734761045            0.000501266987           
       2.451594             0.00778626083            0.000554834391           
       2.454235             0.00706545198            0.000495895203           
       2.456875             0.00692242017            0.000513605165           
       2.459515             0.00754077111            0.000549930687           
       2.462156             0.00675438451            0.000491393071           
       2.464796             0.00871713056             0.00055104027           
       2.467436             0.00841256795            0.000559797199           
       2.470077             0.00762031537            0.000504984537           
       2.472717             0.00874467122            0.000543301068           
       2.475358             0.00801108447            0.000525435536           
       2.477998             0.00715695418            0.000488263098           
       2.480638             0.00706998983            0.000493910692           
       2.483279             0.00659191991            0.000498456806           
       2.485919              0.0073467456            0.000507135291           
       2.488560             0.00699706824            0.000493536416           
       2.491200             0.00602631575             0.00047164243           
       2.493840              0.0078971902            0.000571297923           
       2.496481             0.00856252192            0.000585146133           
       2.499121             0.00691901876            0.000511619008           
       2.501761             0.00671219345            0.000510590874           
       2.504402             0.00701396379            0.000514316848           
       2.507042             0.00754580897             0.00052950821           
       2.509683             0.00741922063            0.000517023345           
       2.512323             0.00667315718            0.000514978065           
       2.514963             0.00816667046            0.000562660817           
       2.517604             0.00780900672            0.000570919047           
       2.520244             0.00681842809            0.000500139193           
       2.522884             0.00757332524            0.000534636853           
       2.525525             0.00810664453            0.000559419648           
       2.528165              0.0074785102              0.0005289343           
       2.530806             0.00774227545            0.000547561791           
       2.533446             0.00706489941            0.000511895996           
       2.536086             0.00767952393            0.000528921583           
       2.538727             0.00774872905            0.000509701077           
       2.541367             0.00782945834            0.000517396214           
       2.544008             0.00747034239            0.000521945699           
       2.546648             0.00701893687            0.000514608421           
       2.549288             0.00734487021            0.000537147363           
       2.551929              0.0065441503            0.000498941383           
       2.554569             0.00751036847            0.000514952898           
       2.557209              0.0066165183            0.000487777657           
       2.559850               0.006175752            0.000472764051           
       2.562490             0.00668685202            0.000508444345           
       2.565131              0.0073989954            0.000554539892           
       2.567771             0.00737544477             0.00053380814           
       2.570411             0.00714270329            0.000519634258           
       2.573052             0.00673859551             0.00051107701           
       2.575692             0.00688967251            0.000513645014           
       2.578332             0.00648395351            0.000500352357           
       2.580973             0.00610484454            0.000480885137           
       2.583613             0.00685471449              0.0004974308           
       2.586254             0.00713620755             0.00050683633           
       2.588894             0.00703214819            0.000522473837           
       2.591534             0.00653461575            0.000521374335           
       2.594175             0.00648234276             0.00050948562           
       2.596815             0.00749732811            0.000551153262           
       2.599456             0.00586699124            0.000462349579           
       2.602096             0.00806084775            0.000546066725           
       2.604736             0.00705868947            0.000523112703           
       2.607377             0.00775809439            0.000533964234           
       2.610017             0.00584182988            0.000455241462           
       2.612657             0.00715011372            0.000535701542           
       2.615298             0.00685418284            0.000512075554           
       2.617938             0.00647976877            0.000532618188           
       2.620579             0.00692494431            0.000528580374           
       2.623219             0.00631243512            0.000503943488           
       2.625859             0.00638640574             0.00049283688           
       2.628500             0.00612666345            0.000479546758           
       2.631140             0.00622354065            0.000490770467           
       2.633780             0.00633245422            0.000494615793           
       2.636421             0.00729736945            0.000544021471           
       2.639061             0.00707407397            0.000504237305           
       2.641702             0.00676809235            0.000504629788           
       2.644342              0.0073297118            0.000527387437           
       2.646982             0.00689471674            0.000503851925           
       2.649623             0.00670494446            0.000520699239           
       2.652263             0.00780747992            0.000556243112           
       2.654904             0.00675571749            0.000517942612           
       2.657544             0.00625931892            0.000469583168           
       2.660184             0.00718632794            0.000532485374           
       2.662825             0.00696926173            0.000536547304           
       2.665465             0.00699057545            0.000519722518           
       2.668105             0.00694217744            0.000545907841           
       2.670746             0.00702263974            0.000507216532           
       2.673386             0.00835488172             0.00057015789           
       2.676027             0.00829839121            0.000559107455           
       2.678667              0.0100190982            0.000599447584           
       2.681307              0.0108785242            0.000613733157           
       2.683948              0.0145997449            0.000730515557           
       2.686588              0.0116149504            0.000640771168           
       2.689229             0.00912869347            0.000555090347           
       2.691869             0.00930275392            0.000592242077           
       2.694509             0.00881638319            0.000576869125           
       2.697150             0.00764194214             0.00052836028           
       2.699790             0.00677827242            0.000521671037           
       2.702430             0.00696369859            0.000505429373           
       2.705071             0.00692385464            0.000520769611           
       2.707711             0.00642262314            0.000486807159           
       2.710352             0.00770501841            0.000563389209           
       2.712992             0.00597997972            0.000505508334           
       2.715632             0.00716864571            0.000513513826           
       2.718273             0.00695235602            0.000524097992           
       2.720913             0.00632030369             0.00049828521           
       2.723553             0.00736834735            0.000541624425           
       2.726194             0.00713459524            0.000557123043           
       2.728834             0.00726348919            0.000562396758           
       2.731475             0.00829785635            0.000554770755           
       2.734115             0.00688956449            0.000521194803           
       2.736755             0.00769143552             0.00055522352           
       2.739396             0.00695400867            0.000524877812           
       2.742036             0.00742131164            0.000567474716           
       2.744677             0.00723609476            0.000543692627           
       2.747317             0.00724632154            0.000540197025           
       2.749957             0.00791491214            0.000568530275           
       2.752598             0.00762474952            0.000564067594           
       2.755238             0.00755007766            0.000571431451           
       2.757878              0.0063314758            0.000518712923           
       2.760519             0.00822312631            0.000584875676           
       2.763159             0.00761208333             0.00055710237           
       2.765800             0.00744069689            0.000524899112           
       2.768440              0.0078870238            0.000544393935           
       2.771080             0.00854446806            0.000571359263           
       2.773721             0.00751180324            0.000549540812           
       2.776361             0.00730637844            0.000549451673           
       2.779001             0.00676869601             0.00054767576           
       2.781642              0.0068418542            0.000546569676           
       2.784282             0.00720792499            0.000570226225           
       2.786923             0.00729450904            0.000578691663           
       2.789563             0.00748400905            0.000564541142           
       2.792203             0.00648660326            0.000502076999           
       2.794844             0.00711102027            0.000576144868           
       2.797484             0.00718643811            0.000546615977           
       2.800125             0.00652747923            0.000547781862           
       2.802765             0.00579806803            0.000507388017           
       2.805405             0.00709285441             0.00056308831           
       2.808046             0.00716613708            0.000575939551           
       2.810686             0.00647981024            0.000503241032           
       2.813326             0.00725011989            0.000552926833           
       2.815967              0.0080287773            0.000598405716           
       2.818607             0.00587464382            0.000488466689           
       2.821248             0.00734914828            0.000534997086           
       2.823888             0.00691940473            0.000538859118           
       2.826528             0.00729592762            0.000535868953           
       2.829169             0.00568808112            0.000495600825           
       2.831809             0.00612424506            0.000521246252           
       2.834449             0.00569820328            0.000505966323           
       2.837090             0.00653793291            0.000523454201           
       2.839730             0.00639896141            0.000515332576           
       2.842371             0.00736690818            0.000553734804           
       2.845011             0.00715467862            0.000550050154           
       2.847651             0.00691265012            0.000541330586           
       2.850292             0.00639518813            0.000525785235           
       2.852932               0.007381462            0.000577186263           
       2.855573             0.00542764344            0.000480103426           
       2.858213             0.00716638083            0.000579320038           
       2.860853             0.00756469387             0.00055367448           
       2.863494             0.00664036939            0.000537089335           
       2.866134             0.00684412901            0.000566737834           
       2.868774              0.0077497755            0.000592694123           
       2.871415             0.00724791431              0.0005821102           
       2.874055             0.00713321999             0.00055200485           
       2.876696             0.00671559717            0.000550089551           
       2.879336             0.00787231867            0.000574027659           
       2.881976             0.00743616157             0.00057543477           
       2.884617             0.00746042894            0.000567908036           
       2.887257             0.00689737953            0.000548875757           
       2.889897             0.00728958966            0.000552652398           
       2.892538              0.0081455605            0.000639992423           
       2.895178             0.00661738365            0.000521139065           
       2.897819             0.00716600875            0.000553209969           
       2.900459             0.00764510085            0.000560287952           
       2.903099             0.00796042106            0.000565873414           
       2.905740             0.00841660378            0.000596915669           
       2.908380             0.00692571154            0.000547625302           
       2.911021             0.00639952084             0.00053496969           
       2.913661             0.00594030326            0.000515263792           
       2.916301               0.006182562            0.000526166895           
       2.918942             0.00712940636            0.000540458193           
       2.921582             0.00708897658            0.000563869332           
       2.924222             0.00677802463            0.000534165513           
       2.926863             0.00736848194            0.000580123806           
       2.929503             0.00644506904            0.000548985022           
       2.932144              0.0071050184            0.000553315554           
       2.934784             0.00729916566            0.000551628468           
       2.937424             0.00590934433            0.000501436325           
       2.940065             0.00677203906            0.000512048659           
       2.942705             0.00764919233            0.000543518203           
       2.945346             0.00792016075             0.00058693805           
       2.947986             0.00618767229            0.000528983005           
       2.950626             0.00728864283            0.000570885824           
       2.953267             0.00561535136            0.000492992201           
       2.955907             0.00807018782            0.000613089637           
       2.958547             0.00734364771             0.00055212024           
       2.961188             0.00696830532            0.000561102093           
       2.963828             0.00655972624            0.000532527571           
       2.966469             0.00699340143            0.000539400002           
       2.969109             0.00651155766            0.000528197926           
       2.971749             0.00777734577            0.000573656853           
       2.974390              0.0066698795            0.000522046175           
       2.977030             0.00766047434            0.000571974413           
       2.979670             0.00840159784            0.000582646715           
       2.982311             0.00823901797             0.00059801256           
       2.984951             0.00671564248            0.000513495989           
       2.987592             0.00645647831            0.000513574809           
       2.990232              0.0074751475            0.000574704489           
       2.992872             0.00775161791            0.000551259049           
       2.995513             0.00795230277            0.000546249435           
       2.998153              0.0121717734            0.000687159505           
       3.000794              0.0139180128            0.000711729446           
       3.003434              0.0118361148            0.000657334063           
       3.006074              0.0407523081             0.00120261761           
       3.008715                  0.115794             0.00195687415           
       3.011355               0.204477546             0.00250764018           
       3.013995               0.110831088             0.00185119943           
       3.016636              0.0691898634             0.00143229155           
       3.019276               0.132615202             0.00194917743           
       3.021917               0.498772116             0.00363477049           
       3.024557                1.53373538             0.00626658747           
       3.027197                1.15192764             0.00529480117           
       3.029838               0.537186742             0.00366704888           
       3.032478               0.265544916             0.00258085978           
       3.035118               0.070422281             0.00134690897           
       3.037759              0.0880908297             0.00150448497           
       3.040399               0.120012964             0.00181140824           
       3.043040               0.497614797             0.00373370367           
       3.045680               0.392674086             0.00312056678           
       3.048320               0.096379912             0.00157963879           
       3.050961                0.10865035             0.00170673394           
       3.053601              0.0858904498             0.00146151628           
       3.056242              0.0647285023             0.00134895995           
       3.058882              0.0547948873             0.00133137629           
       3.061522              0.0436059207             0.00116526663           
       3.064163              0.0566096791             0.00131097495           
       3.066803               0.115033474             0.00196743647           
       3.069443               0.116253698             0.00206933127           
       3.072084              0.0416836119             0.00120656086           
       3.074724              0.0409499254             0.00133554184           
       3.077365              0.0795636051             0.00192708891           
       3.080005              0.0138272237             0.00080791561           
       3.082645              0.0112167391            0.000764429666           
       3.085286              0.0145895133            0.000878693903           
       3.087926              0.0103365333            0.000733912901           
       3.090566              0.0124783212            0.000790088396           
       3.093207              0.0103367178            0.000748297352           
       3.095847             0.00856180201            0.000652755649           
       3.098488             0.00770883892            0.000686794883           
       3.101128              0.0111040611            0.000829578574           
       3.103768             0.00977495947            0.000763704998           
       3.106409             0.00997026934            0.000820867389           
       3.109049             0.00857520547             0.00073055835           
       3.111690             0.00816117387            0.000700468722           
       3.114330             0.00913359186            0.000756789691           
       3.116970             0.00718640176            0.000676443544           
       3.119611               0.010146415            0.000855560795           
       3.122251              0.0158900335             0.00111996021           
       3.124891              0.0357324099             0.00169511023           
       3.127532              0.0246033144             0.00137604202           
       3.130172               0.015077695             0.00109582855           
       3.132813              0.0103753615            0.000894905672           
       3.135453             0.00765361376            0.000762283869           
       3.138093              0.0077411265            0.000830670215           
       3.140734             0.00727375031            0.000742862384           
       3.143374             0.00755289779             0.00080054235           
       3.146014             0.00677910201            0.000816480888           
       3.148655             0.00669874668             0.00075448285           
       3.151295             0.00597203766            0.000759155995           
       3.153936             0.00539907356            0.000697257104           
       3.156576             0.00587292772            0.000717319801           
       3.159216             0.00564105234            0.000706532908           
       3.161857             0.00541084037            0.000689149748           
       3.164497             0.00668276345            0.000804716522           
       3.167138             0.00805053697            0.000912599476           
       3.169778             0.00548153982             0.00074062313           
       3.172418             0.00625609732            0.000783172869           
       3.175059             0.00555664992            0.000654352676           
       3.177699              0.0055982949            0.000695511638           
       3.180339             0.00555268313            0.000742144898           
       3.182980             0.00507000303             0.00073319455           
       3.185620              0.0059484451            0.000808800816           
       3.188261             0.00660496183            0.000867474694           
       3.190901              0.0053841004            0.000720325905           
       3.193541             0.00703098527            0.000864935259           
       3.196182              0.0048463201            0.000748357403           
       3.198822             0.00599247292            0.000832437414           
       3.201463             0.00657288358            0.000856799163           
       3.204103             0.00484791946            0.000731355264           
       3.206743              0.0059696948             0.00081149527           
       3.209384             0.00604508679             0.00088227028           
       3.212024             0.00547626858            0.000782897281           
       3.214664             0.00663389779            0.000979854712           
       3.217305             0.00403343431             0.00072627061           
       3.219945             0.00663512939            0.000958760144           
       3.222586             0.00565990665            0.000843426645           
       3.225226             0.00495256856            0.000875234163           
       3.227866             0.00580522621            0.000866083986           
       3.230507             0.00429963008            0.000772646859           
       3.233147             0.00535540011            0.000869269099           
       3.235787             0.00545101824            0.000897494761           
       3.238428             0.00686694099             0.00108704404           
       3.241068             0.00614460982            0.000961495656           
       3.243709             0.00610230797            0.000989952482           
       3.246349             0.00534716078            0.000844753507           
       3.248989             0.00577300425             0.00103642367           
       3.251630             0.00534264338            0.000960126512           
       3.254270             0.00509213112            0.000837733592           
       3.256911             0.00524152917            0.000927372191           
       3.259551             0.00609225081              0.0010763759           
       3.262191             0.00512482471             0.00100839741           
       3.264832             0.00561052949             0.00110242274           
       3.267472             0.00647331705             0.00111086758           
       3.270112             0.00765193006             0.00133474011           
       3.272753             0.00448186068            0.000935007675           
       3.275393             0.00629677679             0.00113082037           
       3.278034             0.00627895058             0.00112985432           
       3.280674             0.00525748609             0.00112189779           
       3.283314             0.00515038447            0.000993101567           
       3.285955             0.00531545633             0.00104095368           
       3.288595             0.00607150338             0.00123772421           
       3.291235             0.00720934631             0.00138647873           
       3.293876             0.00520319324             0.00119480383           
       3.296516             0.00481947037             0.00110393287           
       3.299157             0.00714603415             0.00132734557           
       3.301797             0.00830096363             0.00163185427           
       3.304437             0.00626674458             0.00122842033           
       3.307078             0.00611938043             0.00133717581           
       3.309718             0.00433042959             0.00116106244           
       3.312359             0.00683409933             0.00145892808           
       3.314999             0.00724997108             0.00147949397           
       3.317639             0.00413812086             0.00106899537           
       3.320280              0.0062197899             0.00139341238           
       3.322920             0.00291010695            0.000969159033           
       3.325560             0.00613577289             0.00140821888           
       3.328201             0.00682372011             0.00133748207           
       3.330841             0.00384674744             0.00122218539           
       3.333482             0.00590083286             0.00143081739           
       3.336122             0.00554684661             0.00138787458           
       3.338762             0.00417101519             0.00139023509           
       3.341403             0.00591593462              0.0015820781           
       3.344043             0.00578816702             0.00150243366           
       3.346683              0.0048863771             0.00140931908           
       3.349324              0.0072104203             0.00192481748           
       3.351964             0.00744857455             0.00206876379           
       3.354605             0.00148413423              0.0010561002           
       3.357245             0.00724102477             0.00210439038           
       3.359885             0.00666939534             0.00161642327           
       3.362526             0.00181148442             0.00105348267           
       3.365166             0.00752106247             0.00202465265           
       3.367807             0.00621959142             0.00235631235           
       3.370447             0.00615203158             0.00194394885           
       3.373087             0.00627486736             0.00209944783           
       3.375728              0.0044505453             0.00199548586           
       3.378368             0.00385577089             0.00275656064           
       3.381008             0.00550839413             0.00245641974           
       3.383649             0.00778508004             0.00234264282           
       3.386289             0.00295384409             0.00170784661           
       3.388930              0.0049784933             0.00350709359           
       3.391570             0.00864935187             0.00327003697           
       3.394210             0.00396168741             0.00280072811           
       3.396851             0.00730971776             0.00425554266           
       3.399491             0.00713910395             0.00420676826           
       3.402131           -2.65083603e-05                         0           
       3.404772             0.00968670632             0.00980688469           
       3.407412                       nan                       nan           
       3.410053              0.0092902046             0.00961589737           
       3.412693                       nan                       nan           
       3.415333           -2.66372825e-05                         0           
