################################################################################
# EDF_DataBlockID                     0.Image.Psd
# EDF_BinarySize                      4366944
# EDF_HeaderSize                      2560
# ByteOrder                           LowByteFirst
# DataType                            FloatValue
# Dim_1                               1028
# Dim_2                               1062
# Image                               0
# HeaderID                            EH:000000:000000:000000
# Size                                4366944
# Center_1                            607.5200
# Center_2                            651.5500
# Comment                             Xenocs_Cell_Window - 20251028_20perc_iodine_1.23mg
# DDummy                              0.6
# Date                                2025-11-01T02:11:27
# Delta                               0
# Dummy                               -1.5
# ExposureTime                        360
# Gamma                               0
# Intensity1                          8.63102e-10
# PSize_1                             7.5e-05
# PSize_2                             7.5e-05
# Pressure                            0.0328112
# SampleDistance                      0.450002
# SampleEnvKind                       large
# SampleEnvPN                         ElectroChemical cell
# SampleEnvSN                         1141
# Thickness                           0
# Wavelength                          1.541891e-10
# Wavelength                          1.54189e-10
# aux                                 0
# aux_dial                            0.002375
# beamx                               588.434
# beamx_dial                          588.434
# beamz                               657.808
# beamz_dial                          657.808
# det0x                               0
# det0x_dial                          6.36945
# det0xvd                             0
# det0xvd_dial                        0
# det0y                               450.002
# det0y_dial                          481.635
# det0z                               0
# det0z_dial                          1.23302
# det0zvd                             0
# det0zvd_dial                        0
# mag                                 1.818
# mag_dial                            1.818
# om                                  0.2499
# om_dial                             -0.610199
# phi                                 -0.0120535
# phi_dial                            0
# ry                                  0.599993
# ry_dial                             0.599993
# s1bot                               0.8
# s1bot_dial                          -1.66094
# s1hl                                0.8
# s1hl_dial                           -0.608437
# s1hr                                0.8
# s1hr_dial                           0.970938
# s1top                               0.8
# s1top_dial                          -0.461562
# s2bot                               0.45
# s2bot_dial                          1.36109
# s2hl                                0.45
# s2hl_dial                           -0.83375
# s2hr                                0.45
# s2hr_dial                           -0.118594
# s2top                               0.45
# s2top_dial                          1.44734
# w2theta                             32
# w2theta_dial                        32
# waxsch                              19.2605
# waxsch_dial                         -32.7355
# waxsh                               137.085
# waxsh_dial                          -43.5338
# waxsth                              26.0607
# waxsth_dial                         -19.4086
# waxsz                               67.0407
# waxsz_dial                          -23.7954
# wind                                65.9854
# wind_dial                           66.0041
# wpsi                                124
# wpsi_dial                           124
# wstod                               115
# wstod_dial                          115
# x                                   0
# x_dial                              1.00969
# z                                   0
# z_dial                              13.3172
# CountCutoff                         15302352
# DetectorModel                       Dectris EIGER2 Si 1M, S/N E-02-0362
# ThresholdSetting                    4023.88989258
# Saturation                          0
# FlatField                           Corrected
# BackgroundReductionExtra            0.02
# BackgroundCorrectionConstant        0.0026712
# Detector                            0
# Monitor                             0
# Pil_Roi0                            0
# SumForIntensity1                    3.10717e+08
# TransmittedFlux                     863102
# det                                 0
# mon                                 0
# pilai0                              3.10717e+08
# pilai1                              790955
# pilct0                              5.36723e+08
# pilct1                              790955
# pilroi0                             0
# pilroi1                             0
# sec                                 1
# title                               20251028_20perc_iodine_1.23mg_0_00762.edf
# usaxs0                              0
# Operation                           Azimuthal average I(q)
# Error_model                         ErrorModel.poisson
# Geometrical_correction              True
# Transmission_correction             True
# Thickness_correction                False
# Binning mode                        Uniform
# Binning factor                      1.0
# Psi                                 0.0
# Omega                               0.2499
# MaskInvalidPixels                   True
# DetectorEdge                        3
# MaskFiles                           ['20251028_20perc_iodine_1.23mg_0_00012_mask.edf']
################################################################################
    q(A⁻¹)                Intensity(a.u.)            Sigma_I(a.u.)            
       0.000340                372364.871                119.920822           
       0.001019                360012.414                72.2078865           
       0.001698                350340.135                 50.368136           
       0.002377                 331196.16                43.8024722           
       0.003056                307342.455                35.6618039           
       0.003735                 253479.52                28.5621782           
       0.004415                204619.736                25.6621919           
       0.005094                152187.046                19.1663576           
       0.005773                99966.2452                14.3815001           
       0.006452                58024.6179                10.4981532           
       0.007131                32217.3414                7.57809474           
       0.007810                16289.2875                 5.3475041           
       0.008490                8259.55326                3.37528853           
       0.009169                 4024.8782                2.32862554           
       0.009848                1259.63814                1.25951039           
       0.010527                492.321212               0.787414467           
       0.011206                122.952802                0.37556217           
       0.011885                56.3527677               0.236231777           
       0.012564                25.3805729               0.162765805           
       0.013244                16.9341853               0.124295266           
       0.013923                12.3818084               0.107997608           
       0.014602                9.33841199              0.0869848336           
       0.015281                7.47549184              0.0792238205           
       0.015960                6.02446046              0.0706107629           
       0.016639                4.98107324              0.0606300476           
       0.017319                4.13879094              0.0544071487           
       0.017998                3.41269851              0.0472649875           
       0.018677                2.94231475              0.0454548573           
       0.019356                2.40402641               0.040597983           
       0.020035                2.12119488              0.0357781914           
       0.020714                1.78277682              0.0331473506           
       0.021394                 1.6246471              0.0299398559           
       0.022073                1.39217276              0.0288354087           
       0.022752                1.19072713              0.0255105132           
       0.023431                1.09518067              0.0237483396           
       0.024110               0.992939486              0.0235753672           
       0.024789               0.917062314                 0.0210415           
       0.025469               0.781400419              0.0200154871           
       0.026148               0.701608027              0.0178201581           
       0.026827               0.685440733              0.0178955106           
       0.027506               0.611566453              0.0171474282           
       0.028185               0.564066441              0.0157046626           
       0.028864               0.504495676              0.0147689123           
       0.029544               0.462386057              0.0137109616           
       0.030223               0.427011107              0.0133649853           
       0.030902                0.42176447              0.0134041761           
       0.031581               0.367640491              0.0118964895           
       0.032260                0.34981207              0.0118021779           
       0.032939                0.32198336              0.0109178387           
       0.033619               0.299789123              0.0106896665           
       0.034298               0.277342976              0.0100057579           
       0.034977               0.247663501             0.00926942138           
       0.035656               0.228638735              0.0091419969           
       0.036335               0.203841047              0.0083719689           
       0.037014               0.188287744             0.00807023771           
       0.037693               0.180718781             0.00760582049           
       0.038373               0.183940531             0.00774861848           
       0.039052               0.179837211             0.00769430165           
       0.039731               0.167864738             0.00726053045           
       0.040410               0.145662085             0.00671800508           
       0.041089               0.142314211             0.00653633714           
       0.041768               0.142224506             0.00656841521           
       0.042448               0.121679168             0.00602834963           
       0.043127               0.131490408             0.00611867167           
       0.043806               0.112973238             0.00571378752           
       0.044485               0.131344618             0.00603431063           
       0.045164               0.113048288             0.00570860257           
       0.045843               0.102112041             0.00520367086           
       0.046523              0.0958889142              0.0050600247           
       0.047202              0.0985124879             0.00516461922           
       0.047881              0.0994548733             0.00508919194           
       0.048560              0.0946783691              0.0050107385           
       0.049239              0.0884462952             0.00465017227           
       0.049918              0.0879541808             0.00472787017           
       0.050598              0.0907600522             0.00473063565           
       0.051277              0.0832529331             0.00451639184           
       0.051956              0.0803184215             0.00440822356           
       0.052635              0.0743598429             0.00415154189           
       0.053314               0.074122274             0.00426608946           
       0.053993              0.0773735268             0.00423910254           
       0.054673              0.0759393537             0.00410608241           
       0.055352              0.0778983505             0.00421979252           
       0.056031              0.0601718841              0.0036307923           
       0.056710              0.0650257042             0.00386688438           
       0.057389              0.0606652672             0.00360168603           
       0.058068              0.0658532557             0.00379121449           
       0.058748              0.0615380535             0.00371061196           
       0.059427              0.0685557167             0.00385016682           
       0.060106              0.0721996842             0.00398856311           
       0.060785              0.0543992606             0.00335841153           
       0.061464              0.0555949272             0.00347695391           
       0.062143              0.0561808738             0.00345972342           
       0.062822              0.0549956204             0.00338286529           
       0.063502              0.0543477316             0.00335687175           
       0.064181              0.0563997906             0.00338354804           
       0.064860              0.0537473339             0.00335333504           
       0.065539              0.0523767586             0.00327793367           
       0.066218              0.0485119962             0.00308713343           
       0.066897              0.0473351215              0.0030729982           
       0.067577              0.0528053494             0.00327689075           
       0.068256              0.0484630257             0.00321638173           
       0.068935              0.0474908903             0.00313247625           
       0.069614              0.0472392446             0.00315526648           
       0.070293              0.0468163513             0.00317007601           
       0.070972              0.0394288976             0.00288793006           
       0.071652              0.0483325945             0.00320328272           
       0.072331              0.0395781677             0.00284703694           
       0.073010              0.0403153494             0.00293908403           
       0.073689              0.0392446509             0.00288385841           
       0.074368              0.0407774056             0.00293428933           
       0.075047              0.0392623032             0.00284831336           
       0.075727              0.0357387251             0.00270071467           
       0.076406              0.0403961114             0.00292859169           
       0.077085              0.0370240967               0.002751301           
       0.077764              0.0400285892             0.00285073311           
       0.078443              0.0341545596             0.00264957584           
       0.079122              0.0343054578             0.00262991271           
       0.079802              0.0354547462             0.00270195889           
       0.080481               0.035040358             0.00259551477           
       0.081160              0.0302554358             0.00246128829           
       0.081839              0.0382289294             0.00272237351           
       0.082518              0.0303821971             0.00242899621           
       0.083197              0.0315881664             0.00243825135           
       0.083876              0.0331689458             0.00245699909           
       0.084556              0.0376936726             0.00269207219           
       0.085235              0.0314737619             0.00241242566           
       0.085914              0.0318992672              0.0024522709           
       0.086593              0.0359491917             0.00258653569           
       0.087272              0.0323789916               0.002420042           
       0.087951              0.0280429132              0.0023030529           
       0.088631              0.0296567786              0.0022877273           
       0.089310              0.0349363358             0.00253568761           
       0.089989               0.034147341             0.00247758368           
       0.090668              0.0317937165             0.00241706373           
       0.091347              0.0304604921             0.00237908892           
       0.092026              0.0252336856             0.00206974561           
       0.092706              0.0266185339             0.00220294163           
       0.093385              0.0328781851             0.00241070432           
       0.094064              0.0287701402             0.00228132099           
       0.094743              0.0319342296             0.00236687008           
       0.095422              0.0289463182              0.0022282956           
       0.096101              0.0303953906             0.00233041658           
       0.096781              0.0277566351             0.00219507706           
       0.097460              0.0312628652             0.00226604856           
       0.098139              0.0308092438             0.00223223918           
       0.098818              0.0305167179             0.00219425777           
       0.099497              0.0300205174             0.00218081375           
       0.100176               0.025303866             0.00194963128           
       0.100856              0.0287140416              0.0020755243           
       0.101535              0.0323142073             0.00219755122           
       0.102214              0.0265101482             0.00199044884           
       0.102893              0.0267894092             0.00197810728           
       0.103572              0.0274513332             0.00197281497           
       0.104251              0.0294092683             0.00204950117           
       0.104931              0.0247142109             0.00186169053           
       0.105610              0.0246604669             0.00186759793           
       0.106289               0.028588463             0.00197737922           
       0.106968              0.0231738991             0.00178558734           
       0.107647              0.0281375092              0.0019687245           
       0.108326              0.0262038776             0.00187445818           
       0.109005              0.0217590198             0.00169735055           
       0.109685              0.0216519873             0.00167417852           
       0.110364                0.02468961             0.00180806853           
       0.111043              0.0235453732             0.00175867337           
       0.111722              0.0209004649             0.00163670117           
       0.112401              0.0218183409             0.00167690441           
       0.113080              0.0240487806              0.0017403574           
       0.113760              0.0250227165              0.0018048999           
       0.114439                0.02684626             0.00184282883           
       0.115118              0.0215831671             0.00163988575           
       0.115797              0.0228793192             0.00170405017           
       0.116476              0.0218302354             0.00163961083           
       0.117155              0.0209126657             0.00161772601           
       0.117835              0.0226198613             0.00164901498           
       0.118514              0.0225615984             0.00166777159           
       0.119193              0.0218164259             0.00164001029           
       0.119872              0.0221484818             0.00163177798           
       0.120551              0.0224153091             0.00163064304           
       0.121230              0.0209373722             0.00156010935           
       0.121910              0.0219220479             0.00161180203           
       0.122589              0.0225443244             0.00163620246           
       0.123268              0.0227000335              0.0016100352           
       0.123947              0.0235539505             0.00165064507           
       0.124626              0.0216529618             0.00156328333           
       0.125305              0.0228809557             0.00161488694           
       0.125985              0.0245701828              0.0016604515           
       0.126664               0.022313186             0.00156727838           
       0.127343              0.0198374888             0.00149490565           
       0.128022              0.0207100716             0.00151571434           
       0.128701               0.019298208             0.00145551542           
       0.129380              0.0207723226             0.00149117003           
       0.130059              0.0223501212             0.00155035799           
       0.130739              0.0193767021             0.00145370195           
       0.131418              0.0200545339             0.00147476936           
       0.132097              0.0197325118             0.00144411986           
       0.132776              0.0167113884              0.0013229797           
       0.133455              0.0209468066             0.00149268059           
       0.134134              0.0202064824             0.00146139658           
       0.134814              0.0191289108             0.00140724524           
       0.135493              0.0197843422             0.00143694285           
       0.136172              0.0192793729               0.001407778           
       0.136851              0.0201693626             0.00144827924           
       0.137530               0.019390972             0.00138631954           
       0.138209              0.0188282899             0.00138209577           
       0.138889              0.0202596724             0.00143998869           
       0.139568              0.0193821621             0.00140784954           
       0.140247              0.0192485831              0.0014011512           
       0.140926              0.0177634968             0.00130752837           
       0.141605              0.0199321803             0.00142023444           
       0.142284              0.0193502441             0.00137616025           
       0.142964              0.0209514758             0.00143744425           
       0.143643              0.0203479891             0.00141480138           
       0.144322              0.0187198226             0.00132862193           
       0.145001              0.0194722503             0.00138287448           
       0.145680              0.0183884679             0.00131204651           
       0.146359              0.0182426175             0.00131161318           
       0.147039              0.0179670208             0.00131238448           
       0.147718              0.0157344145             0.00120787548           
       0.148397              0.0170709437             0.00127768086           
       0.149076              0.0175049144             0.00125368284           
       0.149755              0.0210528541             0.00139610379           
       0.150434              0.0167954136             0.00124748344           
       0.151114              0.0189357973             0.00131726285           
       0.151793               0.019463701             0.00133551072           
       0.152472              0.0170266465             0.00122704145           
       0.153151               0.016253136             0.00121043589           
       0.153830              0.0172517021             0.00123797939           
       0.154509              0.0203628673             0.00133937165           
       0.155188              0.0186068324              0.0012798448           
       0.155868              0.0174824922             0.00123174619           
       0.156547              0.0179687793             0.00125678106           
       0.157226              0.0199896435             0.00129319417           
       0.157905              0.0178800972             0.00123332861           
       0.158584               0.016370855             0.00117798521           
       0.159263              0.0174388508             0.00122027615           
       0.159943              0.0162558503             0.00117903805           
       0.160622              0.0187280624             0.00124109838           
       0.161301              0.0142111506             0.00109558154           
       0.161980              0.0164771213             0.00115964212           
       0.162659               0.015594771             0.00114066989           
       0.163338              0.0196089565             0.00126865476           
       0.164018              0.0196422835             0.00126306812           
       0.164697              0.0167656949             0.00118190496           
       0.165376              0.0177742626             0.00119034699           
       0.166055              0.0176027571             0.00119240259           
       0.166734              0.0156204699             0.00111822656           
       0.167413               0.014579616              0.0010810848           
       0.168093              0.0146242621             0.00109298077           
       0.168772              0.0164660433             0.00112584822           
       0.169451              0.0173252092             0.00117609427           
       0.170130              0.0180856588             0.00118585282           
       0.170809              0.0143962789             0.00107063375           
       0.171488              0.0166403904             0.00114056577           
       0.172168              0.0173688863             0.00115407024           
       0.172847              0.0148588258             0.00108144948           
       0.173526              0.0172268277             0.00114222526           
       0.174205              0.0182575025               0.001181314           
       0.174884              0.0176137743             0.00115425497           
       0.175563              0.0150090781             0.00107004706           
       0.176243              0.0165592131             0.00113519481           
       0.176922              0.0151174108              0.0010563832           
       0.177601              0.0173368606             0.00114370698           
       0.178280              0.0155480889             0.00107100846           
       0.178959              0.0148982915             0.00105682195           
       0.179638              0.0155555375             0.00107677178           
       0.180317              0.0164235595             0.00109834657           
       0.180997              0.0159327509              0.0010876822           
       0.181676              0.0182775809             0.00115253405           
       0.182355              0.0164722054              0.0011007047           
       0.183034              0.0167615555             0.00109251015           
       0.183713              0.0167035231              0.0011038993           
       0.184392              0.0154109698             0.00106000767           
       0.185072              0.0176921363             0.00112280994           
       0.185751              0.0152961359             0.00104691999           
       0.186430              0.0174182983             0.00110936117           
       0.187109              0.0169118984             0.00110528984           
       0.187788              0.0148361721             0.00103268747           
       0.188467              0.0153478603             0.00103791491           
       0.189147              0.0164350038             0.00108492242           
       0.189826              0.0141457045            0.000988729309           
       0.190505              0.0152428312             0.00104325101           
       0.191184              0.0176579949             0.00110667976           
       0.191863              0.0172224104             0.00109524732           
       0.192542              0.0169139164             0.00109562929           
       0.193222              0.0186009881             0.00112322362           
       0.193901                0.01639356             0.00106860522           
       0.194580              0.0158062262             0.00103093344           
       0.195259              0.0168843348             0.00107774962           
       0.195938              0.0157391711             0.00104304336           
       0.196617              0.0145949332            0.000990393162           
       0.197297              0.0162298634             0.00104865753           
       0.197976              0.0135535462            0.000943582799           
       0.198655                0.01580193             0.00102997483           
       0.199334              0.0154524619             0.00100953989           
       0.200013              0.0151012174            0.000997446832           
       0.200692              0.0165616875             0.00105084949           
       0.201371              0.0146093947            0.000975855433           
       0.202051              0.0147710265            0.000984290203           
       0.202730               0.014798341            0.000975359793           
       0.203409              0.0178591363             0.00107868381           
       0.204088               0.013856487            0.000949095408           
       0.204767               0.014822688            0.000976468354           
       0.205446              0.0160874326             0.00101926212           
       0.206126              0.0138242017            0.000932012443           
       0.206805              0.0148666038            0.000984231267           
       0.207484              0.0165775949             0.00102064203           
       0.208163              0.0162166072             0.00101553429           
       0.208842              0.0171415812             0.00104126572           
       0.209521              0.0151785109             0.00097168695           
       0.210201              0.0173813882             0.00105141353           
       0.210880              0.0159351578            0.000986966956           
       0.211559              0.0158564196            0.000999081826           
       0.212238              0.0146244749            0.000954603629           
       0.212917               0.016195971             0.00100085195           
       0.213596              0.0152723902            0.000977642826           
       0.214276              0.0147936711            0.000942152551           
       0.214955               0.015001556            0.000968700685           
       0.215634              0.0138621483            0.000924512856           
       0.216313              0.0146733064            0.000949180409           
       0.216992               0.014959884            0.000958164574           
       0.217671              0.0165641609             0.00100140323           
       0.218351              0.0157314228            0.000985451148           
       0.219030              0.0163093337            0.000987550484           
       0.219709              0.0154150803            0.000966083583           
       0.220388              0.0160957606            0.000985914543           
       0.221067              0.0140858769            0.000923038128           
       0.221746              0.0163503396            0.000993449958           
       0.222426              0.0149095384            0.000934491239           
       0.223105              0.0156852264            0.000971550093           
       0.223784              0.0162013607            0.000977611263           
       0.224463              0.0164655535            0.000993398482           
       0.225142              0.0150562509            0.000934904348           
       0.225821              0.0136636144            0.000894205626           
       0.226500              0.0149265873            0.000940562197           
       0.227180              0.0173121537            0.000997332275           
       0.227859              0.0154636635            0.000946813575           
       0.228538              0.0134288436            0.000873463148           
       0.229217               0.015307468            0.000939942068           
       0.229896              0.0158235133            0.000955194327           
       0.230575              0.0136890085            0.000874273979           
       0.231255               0.014071449            0.000899673482           
       0.231934              0.0165882903            0.000970150377           
       0.232613              0.0149993655            0.000925921202           
       0.233292              0.0158839553            0.000943627142           
       0.233971              0.0150804009            0.000919019692           
       0.234650              0.0140631857            0.000897922319           
       0.235330              0.0157865865            0.000943044036           
       0.236009              0.0143067331            0.000895820409           
       0.236688              0.0167868449            0.000966892633           
       0.237367              0.0145836224            0.000902519793           
       0.238046              0.0156391724            0.000941193037           
       0.238725              0.0148302386            0.000902388289           
       0.239405              0.0160597667            0.000944873633           
       0.240084              0.0133859408            0.000857145014           
       0.240763              0.0142151132            0.000891751255           
       0.241442              0.0139277978            0.000870255675           
       0.242121              0.0142553905            0.000882092641           
       0.242800              0.0126770134            0.000835765233           
       0.243480              0.0140215423            0.000874853742           
       0.244159              0.0145331345            0.000891101749           
       0.244838              0.0137936337            0.000853849609           
       0.245517              0.0144654454            0.000886973378           
       0.246196              0.0146434696            0.000892844926           
       0.246875              0.0139588091            0.000859570803           
       0.247554              0.0143685932            0.000880959917           
       0.248234              0.0150784582            0.000888774927           
       0.248913              0.0140929367            0.000868877374           
       0.249592              0.0141240883            0.000861571608           
       0.250271               0.013731089            0.000847033835           
       0.250950              0.0136751358            0.000850483638           
       0.251629              0.0137771795            0.000846395375           
       0.252309              0.0140953646            0.000857850911           
       0.252988              0.0125818539            0.000796525865           
       0.253667              0.0132042928            0.000825524476           
       0.254346              0.0134072513            0.000831673522           
       0.255025              0.0137541159            0.000840517872           
       0.255704              0.0120906946            0.000784445118           
       0.256384              0.0130199795            0.000811216971           
       0.257063              0.0132850388            0.000824104655           
       0.257742              0.0124405568            0.000791956343           
       0.258421              0.0133005291            0.000817295351           
       0.259100              0.0127798832            0.000802536316           
       0.259779               0.012393182            0.000789631309           
       0.260459              0.0124585545            0.000793265923           
       0.261138              0.0121120804            0.000766872535           
       0.261817              0.0123557472            0.000790182873           
       0.262496              0.0119644805            0.000769945214           
       0.263175              0.0124635882            0.000787528458           
       0.263854              0.0122006947            0.000775558553           
       0.264534              0.0106287229            0.000717691341           
       0.265213              0.0123158718            0.000784730172           
       0.265892              0.0130272372            0.000796735017           
       0.266571              0.0130779639            0.000796469343           
       0.267250              0.0130702121            0.000797574572           
       0.267929              0.0117660377            0.000755961282           
       0.268609              0.0118479846             0.00076274274           
       0.269288              0.0131252381            0.000789467477           
       0.269967              0.0139854945             0.00082370887           
       0.270646              0.0115029485             0.00074380309           
       0.271325              0.0133897904            0.000803831504           
       0.272004              0.0123495935             0.00076428184           
       0.272683              0.0123429143            0.000765019231           
       0.273363              0.0130274256             0.00079095883           
       0.274042              0.0124476705            0.000768597049           
       0.274721              0.0122291625            0.000761369492           
       0.275400               0.013264897            0.000787705749           
       0.276079              0.0116338601            0.000741878935           
       0.276758              0.0122390937            0.000770534489           
       0.277438              0.0107115889            0.000712757506           
       0.278117              0.0109305002            0.000733096242           
       0.278796              0.0126226907             0.00077980531           
       0.279475              0.0101743409            0.000711670652           
       0.280154              0.0116547192            0.000750731162           
       0.280833              0.0113136489            0.000744162803           
       0.281513              0.0125606023            0.000796402194           
       0.282192              0.0109792399            0.000731880562           
       0.282871              0.0120100138             0.00077081478           
       0.283550              0.0118013782            0.000768184955           
       0.284229              0.0109809102            0.000751884038           
       0.284908              0.0100739686             0.00072776106           
       0.285588              0.0101415126            0.000721646074           
       0.286267              0.0100968349            0.000731584078           
       0.286946               0.012215234            0.000799445835           
       0.287625              0.0110853633            0.000774542891           
       0.288304             0.00910397335            0.000692522514           
       0.288983              0.0109713037            0.000769861752           
       0.289663              0.0103361926            0.000751620076           
       0.290342              0.0102784047            0.000745526258           
       0.291021              0.0103278011            0.000751341701           
       0.291700              0.0103173804            0.000741152297           
       0.292379              0.0104207872            0.000761911453           
       0.293058              0.0107268675            0.000770099996           
       0.293738              0.0100617086            0.000739578333           
       0.294417             0.00986439633            0.000740802351           
       0.295096              0.0109313868            0.000771265594           
       0.295775              0.0104554531             0.00076580843           
       0.296454              0.0102824612            0.000749623618           
       0.297133              0.0106567139            0.000766754217           
       0.297812              0.0109342782            0.000780570867           
       0.298492             0.00979719175            0.000740297651           
       0.299171             0.00993488357            0.000744071272           
       0.299850              0.0111040194            0.000781263365           
       0.300529               0.011137483            0.000791253475           
       0.301208             0.00884250214            0.000706749007           
       0.301887             0.00930437701             0.00072411056           
       0.302567             0.00942482668             0.00072513247           
       0.303246              0.0105672672            0.000772837559           
       0.303925             0.00946187506            0.000740689558           
       0.304604             0.00961602066            0.000730575195           
       0.305283             0.00922033767            0.000725996361           
       0.305962              0.0100045147              0.0007516704           
       0.306642             0.00843069817            0.000699390716           
       0.307321             0.00855616506            0.000702325865           
       0.308000             0.00891963647            0.000708588519           
       0.308679             0.00718657885            0.000649809643           
       0.309358             0.00825809023            0.000687147583           
       0.310037             0.00919817016            0.000726821035           
       0.310717             0.00953936214            0.000739466314           
       0.311396             0.00907332072            0.000726013661           
       0.312075             0.00961433698            0.000756822547           
       0.312754             0.00961710759            0.000741788761           
       0.313433             0.00928870324             0.00073535376           
       0.314112              0.0089240801            0.000720610859           
       0.314792             0.00911284719            0.000733334648           
       0.315471             0.00933430916            0.000733013573           
       0.316150             0.00909558725            0.000730276229           
       0.316829              0.0077558961            0.000678806899           
       0.317508             0.00960840023            0.000747059065           
       0.318187             0.00784293498            0.000683849131           
       0.318866             0.00837639025            0.000697203023           
       0.319546             0.00851635484            0.000713541645           
       0.320225             0.00995431369            0.000771447903           
       0.320904             0.00826176493            0.000691942186           
       0.321583             0.00789923194            0.000691498853           
       0.322262             0.00777732899            0.000675743276           
       0.322941             0.00702878729            0.000650631951           
       0.323621             0.00681818319            0.000636899639           
       0.324300             0.00724084528            0.000656858101           
       0.324979             0.00820973824            0.000700690172           
       0.325658             0.00856490991            0.000716984784           
       0.326337             0.00780422664            0.000685298809           
       0.327016             0.00698738228            0.000644326995           
       0.327696             0.00921305956            0.000748091074           
       0.328375             0.00779934375            0.000682497833           
       0.329054             0.00710670433            0.000655021406           
       0.329733             0.00753017111            0.000676716757           
       0.330412             0.00763139626            0.000675668137           
       0.331091                0.00817015            0.000711793013           
       0.331771             0.00824624228            0.000696361993           
       0.332450              0.0068387078            0.000646465194           
       0.333129             0.00678887635            0.000642443555           
       0.333808             0.00797471626             0.00069721589           
       0.334487             0.00778986088            0.000692354899           
       0.335166             0.00780857636            0.000683041126           
       0.335846             0.00691112923            0.000653884569           
       0.336525             0.00725535339             0.00066335613           
       0.337204             0.00589779703            0.000599652219           
       0.337883             0.00743151247             0.00067401325           
       0.338562             0.00679281726            0.000647974887           
       0.339241             0.00680508405            0.000649774993           
       0.339921              0.0079711616            0.000691452287           
       0.340600             0.00763963519            0.000689775626           
       0.341279             0.00643955271            0.000626503849           
       0.341958             0.00626406477            0.000626625897           
       0.342637             0.00698421821            0.000652318989           
       0.343316             0.00586145274            0.000599320763           
       0.343995             0.00720638974            0.000675412628           
       0.344675             0.00669233782             0.00063891581           
       0.345354             0.00740481105            0.000676498749           
       0.346033             0.00711363247             0.00066133595           
       0.346712             0.00596758351             0.00060959026           
       0.347391             0.00650429502              0.0006403533           
       0.348070             0.00738808714            0.000672780983           
       0.348750             0.00579854026            0.000604640826           
       0.349429             0.00669269982            0.000641203135           
       0.350108             0.00571188822            0.000599486882           
       0.350787             0.00651868192            0.000629547019           
       0.351466             0.00567866111             0.00059840978           
       0.352145             0.00668897492            0.000650003554           
       0.352825              0.0068168009            0.000653212718           
       0.353504             0.00543200738            0.000582958962           
       0.354183             0.00609117296            0.000610204876           
       0.354862             0.00800488676            0.000715779379           
       0.355541             0.00579153942            0.000600860002           
       0.356220             0.00650778692            0.000638134924           
       0.356900             0.00644698286            0.000641179685           
       0.357579             0.00639792454            0.000630903388           
       0.358258             0.00537298785             0.00058616518           
       0.358937             0.00589920304             0.00060265135           
       0.359616             0.00625917357            0.000629434615           
       0.360295              0.0057596792            0.000604300453           
       0.360975               0.006657451            0.000646913784           
       0.361654             0.00494634599            0.000560490058           
       0.362333              0.0040111946            0.000502167515           
       0.363012             0.00593166369            0.000618517705           
       0.363691             0.00532469759            0.000574456918           
       0.364370             0.00544572703            0.000588155877           
       0.365050             0.00502518952            0.000561966679           
       0.365729             0.00474653382            0.000551371129           
       0.366408             0.00521753332            0.000579360523           
       0.367087             0.00454034973            0.000531788474           
       0.367766             0.00604335537            0.000626309873           
       0.368445             0.00437448651            0.000523400036           
       0.369124             0.00521183042            0.000575789452           
       0.369804             0.00626833798            0.000630448035           
       0.370483             0.00551143976            0.000593747362           
       0.371162             0.00504309651            0.000571252924           
       0.371841             0.00461608523            0.000537004293           
       0.372520              0.0042355864            0.000524706918           
       0.373199             0.00444409816            0.000531045729           
       0.373879             0.00507346323            0.000573973273           
       0.374558             0.00441180222             0.00052742822           
       0.375237             0.00424098266            0.000517964432           
       0.375916             0.00435572604            0.000534980821           
       0.376595              0.0044235754            0.000528594359           
       0.377274             0.00502530418            0.000572418508           
       0.377954             0.00473969878            0.000547181452           
       0.378633             0.00408932177            0.000514677925           
       0.379312              0.0050496158            0.000571780599           
       0.379991             0.00385351196            0.000496906802           
       0.380670             0.00453384048            0.000548515238           
       0.381349              0.0039412274            0.000504069454           
       0.382029             0.00385624144            0.000505749274           
       0.382708             0.00393395653            0.000499665089           
       0.383387             0.00466052551             0.00055617814           
       0.384066             0.00456169262             0.00054520051           
       0.384745             0.00426397485            0.000529181265           
       0.385424             0.00351209289            0.000481895297           
       0.386104             0.00401862242            0.000509779287           
       0.386783             0.00360190469            0.000493063981           
       0.387462             0.00474795757             0.00055201392           
       0.388141              0.0038548088            0.000505335306           
       0.388820             0.00320872442            0.000457713423           
       0.389499             0.00443894179              0.0005413837           
       0.390178             0.00494514523            0.000573694909           
       0.390858             0.00419588303            0.000524173048           
       0.391537             0.00462241639            0.000555788752           
       0.392216             0.00476170382            0.000557029865           
       0.392895              0.0043339966            0.000533214811           
       0.393574             0.00510510001            0.000577274268           
       0.394253              0.0032425201            0.000462137066           
       0.394933             0.00426474889            0.000536056838           
       0.395612             0.00489731354            0.000557751922           
       0.396291             0.00365229107            0.000491470751           
       0.396970             0.00461774461            0.000547728048           
       0.397649             0.00392048141            0.000506238068           
       0.398328             0.00460850469             0.00054645192           
       0.399008             0.00406428456             0.00051205796           
       0.399687             0.00396923716            0.000508002995           
       0.400366             0.00407064591            0.000512483798           
       0.401045             0.00385822892            0.000497989941           
       0.401724              0.0040733903            0.000512541346           
       0.402403             0.00420863158            0.000525040913           
       0.403083              0.0036306665            0.000480626724           
       0.403762             0.00301987699            0.000440499759           
       0.404441             0.00351741647            0.000478431987           
       0.405120             0.00368755956            0.000488260208           
       0.405799             0.00403740234            0.000508676888           
       0.406478             0.00429885901            0.000524902328           
       0.407158             0.00305818574            0.000441893886           
       0.407837             0.00362849891            0.000485585814           
       0.408516             0.00376238056            0.000490161517           
       0.409195             0.00287389505            0.000433253602           
       0.409874             0.00310535318            0.000456628505           
       0.410553             0.00365109315            0.000500454847           
       0.411233             0.00321497822            0.000467182196           
       0.411912             0.00371620878            0.000509398554           
       0.412591             0.00335284593            0.000487056416           
       0.413270             0.00323178575            0.000475910834           
       0.413949             0.00346871931            0.000498432733           
       0.414628             0.00439422963            0.000559993387           
       0.415307             0.00346523775            0.000502819668           
       0.415987             0.00391309118            0.000529922144           
       0.416666             0.00364723004            0.000508525587           
       0.417345              0.0030516802            0.000472926059           
       0.418024             0.00297995787            0.000467347431           
       0.418703             0.00347736285            0.000503919566           
       0.419382             0.00207472508            0.000387331713           
       0.420062             0.00229607844            0.000408612109           
       0.420741             0.00327000574             0.00049022517           
       0.421420             0.00287487076            0.000461396672           
       0.422099             0.00235173756            0.000417321741           
       0.422778              0.0035011827            0.000511952259           
       0.423457             0.00255369299            0.000439902595           
       0.424137             0.00262509913            0.000438741966           
       0.424816             0.00228626999            0.000418006442           
       0.425495              0.0021270444            0.000402806483           
       0.426174             0.00303429993            0.000481270751           
       0.426853             0.00291576661            0.000468911122           
       0.427532             0.00289576112            0.000471250604           
       0.428212              0.0037819813            0.000542110335           
       0.428891             0.00254895218            0.000444037772           
       0.429570             0.00310082604            0.000490088617           
       0.430249             0.00183092085            0.000374636416           
       0.430928             0.00216341242            0.000416139933           
       0.431607             0.00191361402            0.000384653636           
       0.432287             0.00211419587            0.000407271907           
       0.432966             0.00294956442            0.000485281962           
       0.433645             0.00174900044            0.000374079109           
       0.434324             0.00141828266            0.000334829779           
       0.435003             0.00238109375            0.000434582318           
       0.435682             0.00242232846            0.000441924122           
       0.436361             0.00209352712            0.000410288041           
       0.437041             0.00184817537            0.000384982672           
       0.437720             0.00186636041            0.000388738083           
       0.438399             0.00237904746            0.000441185538           
       0.439078             0.00166031933            0.000379253933           
       0.439757             0.00258378801            0.000470196069           
       0.440436             0.00307724646            0.000524699377           
       0.441116             0.00207313119            0.000437710472           
       0.441795              0.0022598855            0.000457551184           
       0.442474             0.00395375201            0.000606890718           
       0.443153             0.00310239308            0.000550135584           
       0.443832              0.0033133388            0.000569489433           
       0.444511             0.00191358003             0.00043083878           
       0.445191             0.00202460021            0.000453939654           
       0.445870             0.00262484545            0.000516882957           
       0.446549             0.00248892076            0.000508629534           
       0.447228             0.00305724086            0.000560531315           
       0.447907             0.00168619616            0.000421278535           
       0.448586             0.00200548664             0.00047049068           
       0.449266             0.00217162717            0.000485088015           
       0.449945              0.0023581933            0.000503434039           
       0.450624             0.00214076526            0.000487281555           
       0.451303             0.00228787931            0.000510276396           
       0.451982             0.00350892862            0.000628033908           
       0.452661             0.00246866956            0.000536591519           
       0.453341             0.00132020206            0.000393778339           
       0.454020             0.00449925392            0.000728053322           
       0.454699             0.00220263846            0.000514059107           
       0.455378             0.00220452252              0.0005145549           
       0.456057             0.00142721648            0.000421381257           
       0.456736             0.00177150624            0.000467999341           
       0.457416             0.00190097369            0.000484813029           
       0.458095              0.0024578132            0.000559243241           
       0.458774              0.0013792895            0.000424478746           
       0.459453             0.00100529912            0.000364217442           
       0.460132             0.00156795666             0.00044503924           
       0.460811             0.00158107165            0.000463570134           
       0.461490              0.0010123991            0.000367177411           
       0.462170              0.0021484344            0.000543232983           
       0.462849             0.00175532466            0.000494209976           
       0.463528             0.00230755463            0.000565328008           
       0.464207             0.00169588423            0.000493711964           
       0.464886             0.00152335523            0.000464281322           
       0.465565             0.00125427624            0.000425914066           
       0.466245             0.00157265188            0.000478395693           
       0.466924             0.00105723706            0.000401510309           
       0.467603             0.00215717293            0.000561360879           
       0.468282             0.00120810646            0.000430061468           
       0.468961            0.000142630059             0.00014873978           
       0.469640             0.00139203725            0.000466526297           
       0.470320             0.00218609795            0.000585040022           
       0.470999             0.00222093906            0.000595245513           
       0.471678            0.000979201595            0.000399041805           
       0.472357             0.00116518076            0.000436505511           
       0.473036            0.000512877323            0.000291428837           
       0.473715            0.000846751064            0.000377387794           
       0.474395             0.00105671319            0.000427415972           
       0.475074             0.00123353098            0.000461806311           
       0.475753             0.00137604304            0.000483545301           
       0.476432            0.000603851542            0.000331983233           
       0.477111            0.000218516866            0.000197292088           
       0.477790             0.00093096388            0.000409400012           
       0.478470            0.000595546321            0.000331775885           
       0.479149             0.00098442842            0.000430971015           
       0.479828            0.000601943536            0.000336209746           
       0.480507            0.000443864395            0.000291034804           
       0.481186            0.000284901347            0.000238423098           
       0.481865             0.00123804453            0.000490860004           
       0.482545            0.000283744447            0.000237752351           
       0.483224            0.000673712329            0.000368855135           
       0.483903            9.57760532e-05            0.000141265015           
       0.484582             0.00139524895            0.000547945835           
       0.485261             0.00108770468            0.000471544127           
       0.485940            0.000554053417            0.000350121031           
       0.486619            0.000542362394            0.000342596821           
       0.487299           -9.41813666e-05                         0           
       0.487978            0.000114510957            0.000158300917           
       0.488657            0.000388756768            0.000303710844           
       0.489336            0.000139731568             0.00017889023           
       0.490015           -0.000316302239                         0           
       0.490694           -7.09494997e-05                         0           
       0.491374            0.000154506235            0.000192456995           
       0.492053           -6.35441986e-05                         0           
       0.492732           -7.67389218e-05                         0           
       0.493411           -0.000316398248                         0           
       0.494090           -6.23494254e-05                         0           
       0.494769           -4.90809811e-05                         0           
       0.495449           -5.75970591e-05                         0           
       0.496128            0.000218264473            0.000241061871           
       0.496807           -0.000316494988                         0           
       0.497486           -0.000316514411                         0           
       0.498165           -0.000316534114                         0           
       0.498844           -0.000316553519                         0           
       0.499524           -0.000316573016                         0           
       0.500203           -0.000316592822                         0           
       0.500882           -1.81214776e-05                         0           
       0.501561             0.00027355742            0.000285434662           
       0.502240           -0.000316651453                         0           
       0.502919           -0.000316671103                         0           
       0.503599           -0.000316690832                         0           
       0.504278           -0.000316710838                         0           
       0.504957           -0.000316730608                         0           
       0.505636           -0.000316750252                         0           
       0.506315            -0.00031677022                         0           
       0.506994            -0.00031678983                         0           
       0.507673            2.59972564e-05            9.45366115e-05           
       0.508353             0.00033685718             0.00033268163           
       0.509032           -0.000316849283                         0           
       0.509711            2.66119464e-05            9.51069823e-05           
       0.510390           -0.000316889407                         0           
       0.511069           -0.000316909559                         0           
       0.511748            -0.00031692963                         0           
       0.512428           -0.000316949844                         0           
       0.513107            0.000436541034            0.000405520633           
       0.513786           -0.000316989712                         0           
       0.514465           -0.000317010017                         0           
       0.515144            9.67685622e-05            0.000200392429           
       0.515823           -0.000317050416                         0           
       0.516503           -0.000317070712                         0           
       0.517182            0.000104206757            0.000209070845           
       0.517861            0.000103949238             0.00020956083           
       0.518540            0.000571926727            0.000504290888           
       0.519219           -0.000317151849                         0           
       0.519898            0.000141735784            0.000255898421           
       0.520578           -0.000317192863                         0           
       0.521257           -0.000317213166                         0           
       0.521936           -0.000317233517                         0           
       0.522615            0.000145252229            0.000263215917           
       0.523294            0.000152451277             0.00026966863           
       0.523973           -0.000317295169                         0           
       0.524653           -0.000317315408                         0           
       0.525332           -0.000317335941                         0           
       0.526011            0.000704114215            0.000600479642           
       0.526690           -0.000317377707                         0           
       0.527369            0.000733172919             0.00062086638           
       0.528048            0.000687845681            0.000587265848           
       0.528728           -0.000317440049                         0           
       0.529407           -0.000317460766                         0           
       0.530086           -0.000317481377                         0           
       0.530765           -0.000317502016                         0           
       0.531444           -0.000317522878                         0           
       0.532123           -0.000317544109                         0           
       0.532802           -0.000317565167                         0           
       0.533482           -0.000317586153                         0           
       0.534161           -0.000317607173                         0           
       0.534840           -0.000317628013                         0           
       0.535519           -0.000317649238                         0           
       0.536198           -0.000317670244                         0           
       0.536877            -0.00031769096                         0           
       0.537557            0.000257901519            0.000384024476           
       0.538236           -0.000317733296                         0           
       0.538915           -0.000317754551                         0           
       0.539594           -0.000317775777                         0           
       0.540273           -0.000317797335                         0           
       0.540952           -0.000317818653                         0           
       0.541632           -0.000317839581                         0           
       0.542311           -0.000317860701                         0           
       0.542990             0.00180920228             0.00113544245           
       0.543669           -0.000317903593                         0           
       0.544348            0.000409212665            0.000548310076           
       0.545027           -0.000317946566                         0           
       0.545707           -0.000317968094                         0           
       0.546386           -0.000317989683                         0           
       0.547065           -0.000318011012                         0           
       0.547744           -0.000318032439                         0           
       0.548423           -0.000318054101                         0           
       0.549102           -0.000318075786                         0           
       0.549782           -0.000318097361                         0           
       0.550461           -0.000318119192                         0           
       0.551140           -0.000318141155                         0           
       0.551819           -0.000318162858                         0           
       0.552498           -0.000318184747                         0           
       0.553177            -0.00031820626                         0           
       0.553856             0.00147288434             0.00114861474           
       0.554536           -0.000318249512                         0           
       0.555215            0.000630299961            0.000768984254           
       0.555894           -0.000318293443                         0           
       0.556573           -0.000318315513                         0           
       0.557252           -0.000318337565                         0           
       0.557931           -0.000318359516                         0           
       0.558611           -0.000318381981                         0           
       0.559290           -0.000318403875                         0           
       0.559969            -0.00031842523                         0           
       0.560648           -0.000318447151                         0           
       0.561327           -0.000318469561                         0           
       0.562006            0.000612242657             0.00075815132           
       0.562686           -0.000318514185                         0           
       0.563365           -0.000318536585                         0           
       0.564044           -0.000318558873                         0           
       0.564723           -0.000318581112                         0           
       0.565402           -0.000318602935                         0           
       0.566081           -0.000318624904                         0           
       0.566761             0.00193137758             0.00147428838           
       0.567440           -0.000318669767                         0           
       0.568119           -0.000318692245                         0           
       0.568798           -0.000318715038                         0           
       0.569477           -0.000318737686                         0           
       0.570156           -0.000318760443                         0           
       0.570836           -0.000318783115                         0           
       0.571515           -0.000318805307                         0           
       0.572194           -0.000318828143                         0           
       0.572873             0.00119225617             0.00134218245           
       0.573552           -0.000318872638                         0           
       0.574231            -0.00031889527                         0           
       0.574911           -0.000318918472                         0           
       0.575590           -0.000318941228                         0           
       0.576269             0.00150401323             0.00166221316           
       0.576948           -0.000318987036                         0           
       0.577627           -0.000319009453                         0           
       0.578306           -0.000319032186                         0           
       0.578985             0.00162549086             0.00178404989           
       0.579665           -0.000319077909                         0           
       0.580344           -0.000319101049                         0           
       0.581023           -0.000319124164                         0           
       0.581702           -0.000319147066                         0           
       0.582381           -0.000319169759                         0           
       0.583060            -0.00031919313                         0           
       0.583740           -0.000319216133                         0           
       0.584419           -0.000319239213                         0           
       0.585098           -0.000319262265                         0           
       0.585777           -0.000319285497                         0           
       0.586456           -0.000319309107                         0           
       0.587135           -0.000319332089                         0           
       0.587815           -0.000319354823                         0           
       0.588494           -0.000319378265                         0           
       0.589173           -0.000319402246                         0           
       0.589852           -0.000319424952                         0           
       0.590531           -0.000319448515                         0           
       0.591210           -0.000319471533                         0           
       0.591890           -0.000319494996                         0           
       0.592569           -0.000319517675                         0           
       0.593248           -0.000319542469                         0           
       0.593927           -0.000319566043                         0           
       0.594606           -0.000319590101                         0           
       0.595285           -0.000319612726                         0           
       0.595965           -0.000319633839                         0           
       0.596644           -0.000319655564                         0           
