################################################################################
# EDF_DataBlockID                     0.Image.Psd
# EDF_BinarySize                      2105344
# EDF_HeaderSize                      2560
# ByteOrder                           LowByteFirst
# DataType                            FloatValue
# Dim_1                               512
# Dim_2                               1028
# Image                               0
# HeaderID                            EH:000000:000000:000000
# Size                                2105344
# Center_1                            304.9000
# Center_2                            588.7000
# Comment                             Xenocs_Cell_Window - 20251028_20perc_iodine_1.23mg
# DDummy                              0.6
# Date                                2025-10-29T01:43:29
# Delta                               21.910000
# Dummy                               -1.5
# ExposureTime                        360
# Gamma                               15.360000
# Intensity1                          8.50274e-10
# PSize_1                             7.5e-05
# PSize_2                             7.5e-05
# Pressure                            0.0337029
# SampleDistance                      0.115750
# SampleEnvKind                       large
# SampleEnvPN                         ElectroChemical cell
# SampleEnvSN                         1141
# Thickness                           0
# Wavelength                          1.541891e-10
# Wavelength                          1.54189e-10
# aux                                 0
# aux_dial                            0.002375
# beamx                               588.434
# beamx_dial                          588.434
# beamz                               657.808
# beamz_dial                          657.808
# det0x                               0
# det0x_dial                          6.36945
# det0xvd                             0
# det0xvd_dial                        0
# det0y                               450.002
# det0y_dial                          481.635
# det0z                               0
# det0z_dial                          1.23302
# det0zvd                             0
# det0zvd_dial                        0
# mag                                 1.818
# mag_dial                            1.818
# om                                  0.2499
# om_dial                             -0.610199
# phi                                 -0.0120535
# phi_dial                            0
# ry                                  0.599993
# ry_dial                             0.599993
# s1bot                               0.8
# s1bot_dial                          -1.66094
# s1hl                                0.8
# s1hl_dial                           -0.608437
# s1hr                                0.8
# s1hr_dial                           0.970938
# s1top                               0.8
# s1top_dial                          -0.461562
# s2bot                               0.45
# s2bot_dial                          1.36109
# s2hl                                0.45
# s2hl_dial                           -0.83375
# s2hr                                0.45
# s2hr_dial                           -0.118594
# s2top                               0.45
# s2top_dial                          1.44734
# w2theta                             32
# w2theta_dial                        32
# waxsch                              19.2605
# waxsch_dial                         -32.7355
# waxsh                               137.085
# waxsh_dial                          -43.5338
# waxsth                              26.0607
# waxsth_dial                         -19.4086
# waxsz                               67.0407
# waxsz_dial                          -23.7954
# wind                                65.9854
# wind_dial                           66.0041
# wpsi                                124
# wpsi_dial                           124
# wstod                               115
# wstod_dial                          115
# x                                   0
# x_dial                              1.00969
# z                                   0
# z_dial                              13.3172
# CountCutoff                         6807993
# DetectorModel                       Dectris EIGER2 Si 500K, S/N E-01-0554
# ThresholdSetting                    4023.88989258
# Saturation                          0
# FlatField                           Corrected
# BackgroundReductionExtra            0.02
# BackgroundCorrectionConstant        0.0026712
# Detector                            0
# Monitor                             0
# Pil_Roi0                            0
# SumForIntensity1                    3.06099e+08
# TransmittedFlux                     850274
# det                                 0
# mon                                 0
# pilai0                              3.06099e+08
# pilai1                              774344
# pilct0                              5.30268e+08
# pilct1                              774344
# pilroi0                             0
# pilroi1                             0
# sec                                 1
# title                               20251028_20perc_iodine_1.23mg_1_00103.edf
# usaxs0                              0
# Operation                           Azimuthal average I(q)
# Error_model                         ErrorModel.poisson
# Geometrical_correction              True
# Transmission_correction             True
# Thickness_correction                False
# Binning mode                        Uniform
# Binning factor                      1.0
# Psi                                 0.0
# Omega                               0.2499
# MaskInvalidPixels                   True
# DetectorEdge                        3
# MaskFiles                           ['WAXS_corrected.edf']
################################################################################
    q(A⁻¹)                Intensity(a.u.)            Sigma_I(a.u.)            
       0.693100              0.0124810233             0.00746895282           
       0.695741             0.00282976265             0.00290213321           
       0.698381             0.00429515761             0.00437970387           
       0.701021           -2.38408194e-05                         0           
       0.703662             0.00286982126             0.00292128728           
       0.706302             0.00693766109             0.00351649932           
       0.708942             0.00852039707             0.00502984926           
       0.711583             0.00218692753              0.0022066225           
       0.714223             0.00877885125             0.00510422265           
       0.716864             0.00124731402             0.00125883686           
       0.719504              0.0133650733              0.0044466718           
       0.722144             0.00754481514             0.00309400153           
       0.724785             0.00721139778             0.00241288905           
       0.727425             0.00146434775             0.00147092248           
       0.730065             0.00431971945             0.00178704983           
       0.732706             0.00934809211              0.0022075936           
       0.735346             0.00705902654             0.00250065716           
       0.737987             0.00482501782              0.0014609262           
       0.740627             0.00878231676             0.00294082953           
       0.743267             0.00571350375             0.00158876155           
       0.745908             0.00416322627              0.0014714015           
       0.748548             0.00976889754             0.00207755914           
       0.751189              0.0112881273              0.0030092488           
       0.753829              0.0081976555              0.0023573121           
       0.756469             0.00614219191             0.00164538408           
       0.759110             0.00636153566             0.00176464406           
       0.761750             0.00614504204             0.00153355455           
       0.764390             0.00457049304             0.00138427951           
       0.767031             0.00497822041               0.001251061           
       0.769671             0.00836057368             0.00202243282           
       0.772312             0.00678495323               0.001387014           
       0.774952              0.0113700699             0.00242464801           
       0.777592             0.00683622314             0.00136940667           
       0.780233             0.00993450955             0.00199168802           
       0.782873             0.00475644699             0.00131805052           
       0.785513             0.00585548649             0.00156342118           
       0.788154             0.00661516265             0.00139010829           
       0.790794             0.00710260892             0.00172205238           
       0.793435             0.00540232087             0.00134920459           
       0.796075             0.00750287805              0.0015316789           
       0.798715             0.00651008877             0.00168600938           
       0.801356             0.00731678493             0.00153837633           
       0.803996             0.00503920797             0.00130159629           
       0.806637             0.00828054111             0.00132781246           
       0.809277             0.00548773738             0.00116999869           
       0.811917             0.00829446959             0.00134468535           
       0.814558             0.00631441155              0.0012193901           
       0.817198             0.00594821523             0.00112438384           
       0.819838             0.00673400286             0.00121079361           
       0.822479             0.00631766622             0.00137714894           
       0.825119             0.00433744753            0.000971210594           
       0.827760             0.00647737044              0.0012022326           
       0.830400             0.00725354081             0.00119740031           
       0.833040              0.0091028529             0.00140535731           
       0.835681              0.0109630511             0.00175331038           
       0.838321             0.00829589223             0.00128014261           
       0.840961             0.00443888425             0.00102025728           
       0.843602             0.00807444779             0.00126187951           
       0.846242             0.00922224481             0.00134838843           
       0.848883             0.00724627159             0.00122315296           
       0.851523             0.00806009366             0.00127398696           
       0.854163             0.00613334519             0.00118185124           
       0.856804             0.00844356733             0.00124681791           
       0.859444              0.0080965567             0.00119627402           
       0.862085             0.00597352879             0.00107094707           
       0.864725             0.00683928366             0.00117274039           
       0.867365             0.00709014197             0.00110723534           
       0.870006             0.00468456968            0.000857640356           
       0.872646             0.00672370733              0.0010774584           
       0.875286             0.00955799009             0.00123589736           
       0.877927             0.00711682176             0.00102907847           
       0.880567             0.00688660519             0.00104876048           
       0.883208             0.00825936264             0.00113772198           
       0.885848             0.00623913604             0.00102671131           
       0.888488             0.00591665524            0.000937774696           
       0.891129             0.00812540429             0.00112840513           
       0.893769             0.00659937985            0.000973235328           
       0.896410              0.0079768691             0.00099761208           
       0.899050             0.00816557883             0.00111000335           
       0.901690             0.00571388308             0.00101144022           
       0.904331             0.00857608082              0.0010985623           
       0.906971             0.00621211206             0.00099465916           
       0.909611             0.00658763055             0.00093242386           
       0.912252              0.0081766708             0.00107298384           
       0.914892              0.0080608645             0.00116420964           
       0.917533             0.00705342787             0.00103021994           
       0.920173             0.00840408563             0.00104335243           
       0.922813             0.00710768168             0.00100689829           
       0.925454             0.00683290799            0.000888985822           
       0.928094             0.00722889143            0.000976180405           
       0.930734             0.00579065956            0.000940625825           
       0.933375             0.00612584696            0.000957955734           
       0.936015             0.00729399465            0.000949365011           
       0.938656              0.0081448519             0.00107620789           
       0.941296             0.00830746411             0.00098502893           
       0.943936             0.00908209911             0.00101000638           
       0.946577              0.0070713556            0.000885322724           
       0.949217             0.00749375829            0.000838097763           
       0.951858             0.00698070531            0.000846756194           
       0.954498             0.00744409108             0.00101211286           
       0.957138             0.00875932363             0.00104009946           
       0.959779             0.00744323574            0.000945163293           
       0.962419             0.00684787775             0.00090054522           
       0.965059             0.00694170915            0.000953604833           
       0.967700             0.00903903828             0.00111450099           
       0.970340             0.00740166849            0.000892439662           
       0.972981             0.00703565371            0.000792739305           
       0.975621             0.00749159201            0.000870234932           
       0.978261             0.00875712669            0.000893993291           
       0.980902             0.00533763943            0.000835069566           
       0.983542             0.00727298411            0.000863226743           
       0.986182             0.00742725179            0.000856451849           
       0.988823             0.00838410862            0.000883562613           
       0.991463             0.00825844744             0.00093557808           
       0.994104             0.00765588898            0.000878744816           
       0.996744             0.00914320365            0.000979514628           
       0.999384             0.00822559513            0.000830893551           
       1.002025             0.00712201858            0.000862936579           
       1.004665              0.0085791948            0.000865541695           
       1.007306             0.00794896061            0.000828879184           
       1.009946             0.00737294361            0.000814136294           
       1.012586             0.00794097806            0.000822898659           
       1.015227             0.00699594715            0.000829780978           
       1.017867             0.00818682661            0.000862685801           
       1.020507             0.00863341771            0.000858117563           
       1.023148             0.00883465534            0.000936661499           
       1.025788             0.00776180416            0.000805009845           
       1.028429              0.0088926238             0.00090272823           
       1.031069              0.0082007323            0.000815785057           
       1.033709              0.0086971148            0.000893040799           
       1.036350             0.00820774634            0.000779180561           
       1.038990             0.00774763895            0.000770937467           
       1.041630             0.00732895078            0.000782066863           
       1.044271             0.00847756809            0.000791044022           
       1.046911             0.00955390642            0.000883318618           
       1.049552             0.00794946288             0.00084653378           
       1.052192             0.00745161864            0.000748396558           
       1.054832             0.00878017352            0.000819767831           
       1.057473             0.00841851954            0.000791299875           
       1.060113              0.0065110279            0.000678693569           
       1.062754             0.00809740014            0.000772751753           
       1.065394             0.00708041736            0.000763972653           
       1.068034             0.00791258512            0.000734824331           
       1.070675             0.00818751684            0.000779715013           
       1.073315             0.00840365761            0.000801262496           
       1.075955             0.00877672459            0.000773045702           
       1.078596             0.00878251179            0.000821865045           
       1.081236             0.00931035836            0.000810294181           
       1.083877             0.00893736355            0.000786775375           
       1.086517             0.00844739075            0.000820201702           
       1.089157              0.0097850285            0.000915957706           
       1.091798             0.00862401603            0.000753890589           
       1.094438             0.00796840161              0.0007223292           
       1.097078             0.00856262137            0.000718156437           
       1.099719             0.00817613219            0.000759062533           
       1.102359             0.00976503058            0.000776879632           
       1.105000              0.0074145005             0.00075696427           
       1.107640             0.00820146571            0.000761223041           
       1.110280             0.00876048822            0.000717838778           
       1.112921             0.00834495995            0.000752604129           
       1.115561             0.00909241298            0.000746634252           
       1.118202             0.00978737288            0.000775372563           
       1.120842              0.0100373995            0.000825264872           
       1.123482             0.00948261226             0.00079863026           
       1.126123             0.00952561329            0.000767755109           
       1.128763             0.00884164754            0.000744749706           
       1.131403             0.00802777027            0.000683803835           
       1.134044             0.00764593239             0.00068669786           
       1.136684              0.0108093121             0.00087051716           
       1.139325             0.00974784917            0.000761528405           
       1.141965             0.00999737117            0.000776311888           
       1.144605              0.0102404453            0.000749160368           
       1.147246             0.00882511519            0.000711748738           
       1.149886             0.00832433401            0.000688805806           
       1.152527             0.00849655139            0.000706014183           
       1.155167              0.0091860898            0.000698244448           
       1.157807             0.00812464091            0.000704062469           
       1.160448             0.00821521119             0.00069135659           
       1.163088             0.00957741975            0.000712030146           
       1.165728              0.0087590147            0.000699122543           
       1.168369             0.00885964467             0.00070962299           
       1.171009             0.00968217318            0.000719928471           
       1.173650             0.00951477313            0.000732403514           
       1.176290              0.0089191795             0.00069295961           
       1.178930             0.00858917603              0.0006664808           
       1.181571             0.00961908098            0.000719294299           
       1.184211             0.00892291703            0.000695232965           
       1.186851              0.0096875399            0.000708243984           
       1.189492             0.00885580658              0.0006726027           
       1.192132             0.00963371449            0.000693651127           
       1.194773             0.00952645742            0.000692792756           
       1.197413             0.00953274101            0.000664012426           
       1.200053             0.00925607927            0.000670930823           
       1.202694               0.010336642            0.000674230405           
       1.205334             0.00984522104            0.000709126933           
       1.207975             0.00918573806            0.000653818249           
       1.210615             0.00990099209             0.00074882748           
       1.213255             0.00958307785            0.000659704355           
       1.215896             0.00935946324            0.000663774941           
       1.218536             0.00949680636            0.000642913865           
       1.221176              0.0107555344            0.000743860515           
       1.223817             0.00935544428            0.000651241976           
       1.226457             0.00943231453            0.000667085906           
       1.229098             0.00961774316            0.000673578253           
       1.231738               0.010278226            0.000699749743           
       1.234378              0.0104141261            0.000661852692           
       1.237019              0.0105824984            0.000687524273           
       1.239659              0.0107143384            0.000685767489           
       1.242299              0.0107666299            0.000678704897           
       1.244940             0.00965389445            0.000625043109           
       1.247580             0.00991868062            0.000652932232           
       1.250221             0.00936215603            0.000630436045           
       1.252861               0.010382908            0.000632050447           
       1.255501             0.00996274033            0.000672256528           
       1.258142               0.010404793            0.000645568093           
       1.260782              0.0109150172            0.000675513866           
       1.263423              0.0102265297            0.000628287571           
       1.266063               0.010757897            0.000660495311           
       1.268703              0.0107471758            0.000654688015           
       1.271344              0.0108957874            0.000681539708           
       1.273984              0.0103757668            0.000642333219           
       1.276624             0.00994451616            0.000617029048           
       1.279265              0.0106358083            0.000648712015           
       1.281905              0.0117533848            0.000684969714           
       1.284546              0.0108472366            0.000636051167           
       1.287186             0.00974838861            0.000591581922           
       1.289826             0.00944945996            0.000613845171           
       1.292467              0.0103280439            0.000627612773           
       1.295107              0.0113511274            0.000651428206           
       1.297747              0.0108185101            0.000608562283           
       1.300388              0.0096219611            0.000625647764           
       1.303028              0.0103114493            0.000618310596           
       1.305669               0.010566766            0.000640822327           
       1.308309              0.0106307213            0.000636429025           
       1.310949              0.0114752107            0.000660560004           
       1.313590               0.010697196            0.000617838054           
       1.316230              0.0106321238            0.000657310583           
       1.318871              0.0114106932            0.000666909068           
       1.321511              0.0111841723            0.000648018236           
       1.324151              0.0106586484            0.000613855891           
       1.326792              0.0110868441            0.000629935446           
       1.329432              0.0110833901            0.000625392675           
       1.332072              0.0102650773            0.000592893327           
       1.334713              0.0111072847            0.000636532909           
       1.337353              0.0101478078            0.000583486303           
       1.339994              0.0106095276            0.000626085709           
       1.342634              0.0103550391            0.000593132612           
       1.345274              0.0122438856            0.000667477267           
       1.347915              0.0107593154            0.000608425593           
       1.350555              0.0104064116             0.00060884393           
       1.353195              0.0113583116            0.000639205032           
       1.355836              0.0109350032             0.00061740109           
       1.358476              0.0105439963            0.000588772731           
       1.361117              0.0111723287            0.000606893701           
       1.363757              0.0123727545            0.000658167651           
       1.366397              0.0115579118            0.000616875882           
       1.369038              0.0119503182            0.000633506124           
       1.371678              0.0110377618             0.00060347023           
       1.374319              0.0112128236             0.00060299956           
       1.376959              0.0110405837            0.000592332971           
       1.379599               0.011488568            0.000647552415           
       1.382240               0.011342168            0.000604711891           
       1.384880              0.0111266878            0.000634413703           
       1.387520              0.0108019308            0.000593664182           
       1.390161              0.0110195408            0.000569489435           
       1.392801              0.0105641313            0.000580962547           
       1.395442              0.0122846029            0.000635042993           
       1.398082              0.0126584874            0.000603672023           
       1.400722              0.0119058826            0.000613247028           
       1.403363              0.0112384622            0.000627162863           
       1.406003              0.0109767126            0.000580064863           
       1.408644              0.0109900835            0.000608025647           
       1.411284              0.0106471049            0.000566691186           
       1.413924              0.0102860347            0.000554934401           
       1.416565              0.0110633515             0.00057326007           
       1.419205             0.00983934865            0.000563952152           
       1.421845              0.0103861111            0.000579069218           
       1.424486              0.0112994023            0.000580575879           
       1.427126              0.0110629186            0.000596761528           
       1.429767              0.0112353882            0.000565839836           
       1.432407              0.0106163931             0.00057562136           
       1.435047              0.0107207339            0.000543254102           
       1.437688              0.0114623432            0.000570128641           
       1.440328              0.0105981877             0.00055951629           
       1.442968              0.0107287829             0.00057556631           
       1.445609              0.0114198936            0.000574977597           
       1.448249              0.0110169566            0.000579041726           
       1.450890              0.0115104269            0.000588004758           
       1.453530             0.00982257359            0.000568280765           
       1.456170              0.0115435344            0.000597896137           
       1.458811              0.0106492154            0.000549127952           
       1.461451             0.00988525992            0.000530452575           
       1.464092              0.0108432581             0.00055919401           
       1.466732             0.00969841773             0.00052430612           
       1.469372               0.010747067            0.000539007511           
       1.472013               0.010804575             0.00058288366           
       1.474653              0.0107002517            0.000571114618           
       1.477293               0.010952091            0.000589974379           
       1.479934              0.0101165178            0.000541057748           
       1.482574              0.0106960476            0.000538171376           
       1.485215              0.0110891799            0.000558178462           
       1.487855              0.0105573848            0.000551814536           
       1.490495              0.0115539226            0.000575144893           
       1.493136              0.0114077861            0.000563662611           
       1.495776              0.0109682186            0.000550179735           
       1.498416              0.0109744247            0.000568340776           
       1.501057              0.0111976575            0.000561439899           
       1.503697              0.0114366409            0.000554723485           
       1.506338              0.0104560194            0.000540100953           
       1.508978             0.00970061381             0.00051510912           
       1.511618              0.0100094641            0.000557253318           
       1.514259              0.0105529363            0.000552414559           
       1.516899              0.0110254289             0.00054977796           
       1.519540             0.00980174806            0.000526730908           
       1.522180             0.00986447959            0.000533055612           
       1.524820              0.0106135183            0.000549821426           
       1.527461              0.0111674882             0.00056677712           
       1.530101              0.0096936152            0.000522771824           
       1.532741              0.0103119031             0.00053605701           
       1.535382              0.0101367538            0.000540041265           
       1.538022              0.0102633064            0.000511913346           
       1.540663              0.0106869409             0.00056184285           
       1.543303              0.0110652685            0.000530833928           
       1.545943             0.00941979297            0.000518392774           
       1.548584              0.0111026942            0.000572900447           
       1.551224              0.0107109789            0.000520272488           
       1.553864              0.0100898105            0.000533585588           
       1.556505              0.0105006511             0.00052584708           
       1.559145              0.0102798874            0.000526663564           
       1.561786               0.010180914            0.000524525765           
       1.564426             0.00938364612            0.000487906224           
       1.567066              0.0101651586            0.000532095195           
       1.569707             0.00917955525            0.000496559007           
       1.572347              0.0101982294            0.000540710477           
       1.574988              0.0102789966              0.0005166997           
       1.577628              0.0103252722             0.00054000183           
       1.580268              0.0105532413            0.000528948576           
       1.582909               0.010117749            0.000548974335           
       1.585549             0.00920947479            0.000508548591           
       1.588189              0.0100128051            0.000518691697           
       1.590830             0.00941799282            0.000502417968           
       1.593470             0.00887216579            0.000506950273           
       1.596111             0.00968485001            0.000517112476           
       1.598751              0.0094063516            0.000493807776           
       1.601391             0.00954877069            0.000508508967           
       1.604032             0.00882344123            0.000499033021           
       1.606672              0.0101501969            0.000520035222           
       1.609312             0.00843096933             0.00049475037           
       1.611953             0.00874505642            0.000493079761           
       1.614593              0.0093145641            0.000499172994           
       1.617234             0.00945427848             0.00052119671           
       1.619874             0.00878211758            0.000500343339           
       1.622514              0.0086467789            0.000489700424           
       1.625155             0.00953528529            0.000517282984           
       1.627795             0.00906961156            0.000492132636           
       1.630436             0.00905536648            0.000489178268           
       1.633076             0.00932427425            0.000502898773           
       1.635716             0.00905202307             0.00048779294           
       1.638357             0.00900621728            0.000487839679           
       1.640997             0.00870596244             0.00049416803           
       1.643637             0.00865581424            0.000479494203           
       1.646278             0.00816960746            0.000480469232           
       1.648918             0.00895139471            0.000504305211           
       1.651559             0.00852541466            0.000495979369           
       1.654199             0.00918094709            0.000500585693           
       1.656839             0.00871475142            0.000487880841           
       1.659480             0.00897903351            0.000513819847           
       1.662120             0.00931128633            0.000492805863           
       1.664761             0.00859043644            0.000491684235           
       1.667401             0.00892321074            0.000478960674           
       1.670041             0.00911403227            0.000491435578           
       1.672682             0.00888607454            0.000483256369           
       1.675322             0.00838250576             0.00046634551           
       1.677962             0.00808935556            0.000453064868           
       1.680603             0.00847304353            0.000465111977           
       1.683243             0.00856320054            0.000487832455           
       1.685884             0.00816994529            0.000480018009           
       1.688524             0.00938675464            0.000504578242           
       1.691164             0.00903085077            0.000495032465           
       1.693805             0.00916441608            0.000504157961           
       1.696445             0.00807475094            0.000475982229           
       1.699085             0.00832318034            0.000467056085           
       1.701726             0.00892505306            0.000465910837           
       1.704366             0.00872370447            0.000485256229           
       1.707007             0.00890052561            0.000479223439           
       1.709647             0.00891504237            0.000485030409           
       1.712287             0.00894479966            0.000490068084           
       1.714928             0.00862698345            0.000485163469           
       1.717568             0.00934770921            0.000475733724           
       1.720209             0.00821202693            0.000467048302           
       1.722849             0.00913219624            0.000489988313           
       1.725489             0.00879799641            0.000481342838           
       1.728130             0.00773263981            0.000479562567           
       1.730770             0.00949401233             0.00050466944           
       1.733410             0.00823326212             0.00046258034           
       1.736051             0.00847776305            0.000472665879           
       1.738691             0.00875718951            0.000470654073           
       1.741332             0.00873332262            0.000483755741           
       1.743972             0.00854878003            0.000494253708           
       1.746612             0.00956657309            0.000502068077           
       1.749253             0.00875863797            0.000489886788           
       1.751893             0.00789974488            0.000461832419           
       1.754533             0.00835808202             0.00047459748           
       1.757174             0.00839770633            0.000471266259           
       1.759814             0.00864003461            0.000470771628           
       1.762455             0.00871688128            0.000481543295           
       1.765095             0.00897312296            0.000467376377           
       1.767735              0.0086956836            0.000474288158           
       1.770376             0.00993077487            0.000508189161           
       1.773016             0.00889441701            0.000477720375           
       1.775657             0.00839818512            0.000457523542           
       1.778297             0.00851641623            0.000456765523           
       1.780937             0.00859955874            0.000484463484           
       1.783578             0.00834476802            0.000465299758           
       1.786218             0.00872218968            0.000496451059           
       1.788858             0.00841356773            0.000463091768           
       1.791499             0.00940278349            0.000484060957           
       1.794139             0.00859247171            0.000458979206           
       1.796780              0.0095849571            0.000482425533           
       1.799420              0.0094502958             0.00047637197           
       1.802060             0.00948494113             0.00048109922           
       1.804701             0.00948846129            0.000461770369           
       1.807341              0.0101610876            0.000502124129           
       1.809981             0.00873578318            0.000467129683           
       1.812622             0.00963781238            0.000481821116           
       1.815262             0.00886183729            0.000471831876           
       1.817903              0.0087281015            0.000461319965           
       1.820543             0.00866133767            0.000466713051           
       1.823183             0.00871713538            0.000467956558           
       1.825824             0.00969346726            0.000471438492           
       1.828464             0.00851074565            0.000460535746           
       1.831105             0.00873474729            0.000453657697           
       1.833745             0.00859936598            0.000459741686           
       1.836385              0.0085476218            0.000471437198           
       1.839026             0.00953257997            0.000496286113           
       1.841666             0.00876607952            0.000474227661           
       1.844306             0.00959433697              0.0004825886           
       1.846947             0.00893732894            0.000469854908           
       1.849587             0.00942373749            0.000532765278           
       1.852228             0.00898168417            0.000470317002           
       1.854868             0.00848491676            0.000482885631           
       1.857508             0.00923295647            0.000498781506           
       1.860149             0.00815281453            0.000477214265           
       1.862789             0.00853371592            0.000471259487           
       1.865429             0.00813313323            0.000480238314           
       1.868070             0.00783743802            0.000465144209           
       1.870710             0.00782226065            0.000453980292           
       1.873351             0.00892592269            0.000490945604           
       1.875991             0.00890049611             0.00049824676           
       1.878631              0.0088385984            0.000487001944           
       1.881272             0.00949020661             0.00050125318           
       1.883912             0.00893961017            0.000506300049           
       1.886553             0.00911020317            0.000505393841           
       1.889193             0.00858031545            0.000489637694           
       1.891833              0.0092267993            0.000527316744           
       1.894474             0.00875786226            0.000509267834           
       1.897114             0.00874055613            0.000492320701           
       1.899754             0.00808210925            0.000475394612           
       1.902395             0.00902874177            0.000492640863           
       1.905035             0.00794343749            0.000489424546           
       1.907676             0.00951236308            0.000504787312           
       1.910316             0.00894396684            0.000502470004           
       1.912956             0.00968922026            0.000511479539           
       1.915597             0.00905412168            0.000497195821           
       1.918237              0.0104561948            0.000551809474           
       1.920878             0.00938387333            0.000520609262           
       1.923518             0.00815969699            0.000485670884           
       1.926158             0.00844744302            0.000487747653           
       1.928799             0.00841060483            0.000481049499           
       1.931439             0.00934857512            0.000520466928           
       1.934079             0.00827718634            0.000510537453           
       1.936720             0.00890389465            0.000490608748           
       1.939360             0.00885786828            0.000522056549           
       1.942001             0.00859056384            0.000471216535           
       1.944641             0.00800271533            0.000463766991           
       1.947281             0.00960340704            0.000503352404           
       1.949922               0.007958372            0.000473298064           
       1.952562             0.00798820132            0.000489047834           
       1.955202             0.00958058483            0.000534925298           
       1.957843             0.00882985332            0.000500221962           
       1.960483             0.00834411045            0.000508392942           
       1.963124             0.00853989366            0.000503771186           
       1.965764             0.00874587535            0.000480765536           
       1.968404             0.00854772507            0.000470797413           
       1.971045             0.00844013889            0.000476972369           
       1.973685             0.00738569902            0.000468013961           
       1.976326             0.00751951647            0.000465744506           
       1.978966             0.00872340981              0.0005060467           
       1.981606              0.0101956218            0.000558494181           
       1.984247             0.00878770567            0.000515092044           
       1.986887             0.00839835854            0.000497520001           
       1.989527             0.00916936527             0.00051425737           
       1.992168             0.00818542062            0.000504144425           
       1.994808              0.0088656224            0.000522424389           
       1.997449             0.00802708226            0.000486895689           
       2.000089              0.0078622843            0.000479961263           
       2.002729              0.0076771968            0.000474562532           
       2.005370             0.00829211835            0.000487895328           
       2.008010             0.00784310822            0.000495210819           
       2.010650             0.00811959023            0.000507623454           
       2.013291             0.00876445064            0.000506007436           
       2.015931             0.00790765964            0.000477240892           
       2.018572             0.00778855991            0.000506595626           
       2.021212             0.00850636722            0.000519913531           
       2.023852             0.00844716364            0.000490358281           
       2.026493              0.0082645323            0.000506698495           
       2.029133             0.00795918831            0.000487243404           
       2.031774             0.00654212044             0.00046360071           
       2.034414             0.00814538585            0.000475985865           
       2.037054             0.00827359526            0.000491876536           
       2.039695             0.00804041861            0.000481233459           
       2.042335             0.00845733412            0.000512909248           
       2.044975             0.00809121671            0.000495600462           
       2.047616             0.00734072485            0.000470884181           
       2.050256             0.00756009564            0.000482390693           
       2.052897              0.0078129874            0.000499433191           
       2.055537             0.00810357352            0.000491577393           
       2.058177             0.00711859169            0.000451183232           
       2.060818             0.00755747257            0.000487001548           
       2.063458             0.00762712727            0.000509837372           
       2.066098             0.00752028211            0.000477566855           
       2.068739             0.00837536404            0.000511820523           
       2.071379             0.00707539673            0.000482694785           
       2.074020             0.00721002751            0.000476675872           
       2.076660             0.00749086238            0.000489798352           
       2.079300             0.00752338496             0.00050288753           
       2.081941             0.00757264988            0.000461955934           
       2.084581             0.00746186875            0.000484019287           
       2.087222             0.00759177774            0.000470836151           
       2.089862               0.006883351            0.000488300022           
       2.092502             0.00769176022            0.000500361071           
       2.095143              0.0084688286            0.000542169749           
       2.097783             0.00799772106            0.000510102679           
       2.100423             0.00724377659            0.000467789219           
       2.103064             0.00758294397            0.000496627727           
       2.105704             0.00717413667            0.000480662614           
       2.108345             0.00734898034             0.00046738158           
       2.110985              0.0063764396            0.000464994539           
       2.113625             0.00814928856            0.000530263806           
       2.116266             0.00745427956            0.000514343539           
       2.118906             0.00721238854            0.000471497955           
       2.121546             0.00811781791            0.000490667969           
       2.124187             0.00737886306            0.000491048421           
       2.126827             0.00781733837            0.000511068659           
       2.129468             0.00830494767            0.000528112155           
       2.132108             0.00852979534            0.000520721958           
       2.134748             0.00775220003            0.000494493772           
       2.137389             0.00704131863            0.000491657947           
       2.140029             0.00797108712            0.000468321962           
       2.142670             0.00678290275            0.000461698121           
       2.145310             0.00722534366            0.000463803779           
       2.147950             0.00645942156            0.000451369509           
       2.150591             0.00761744542            0.000485208883           
       2.153231             0.00695099657            0.000477098845           
       2.155871             0.00726517626            0.000471210468           
       2.158512             0.00744434137            0.000497700334           
       2.161152             0.00850239464            0.000515226105           
       2.163793             0.00774160386            0.000489421607           
       2.166433             0.00665438112            0.000465958667           
       2.169073             0.00699303358            0.000467033722           
       2.171714             0.00719426793            0.000470164661           
       2.174354             0.00775172363            0.000509957189           
       2.176995             0.00695470196            0.000480997233           
       2.179635             0.00834338552            0.000556714354           
       2.182275             0.00803247177            0.000515740048           
       2.184916             0.00755510447            0.000483109101           
       2.187556             0.00766477306            0.000481725685           
       2.190196             0.00783934956            0.000509097378           
       2.192837             0.00752063391            0.000495928081           
       2.195477             0.00739406172            0.000468812958           
       2.198118             0.00759947673            0.000487458779           
       2.200758             0.00651322611            0.000462983801           
       2.203398             0.00793955185            0.000514440556           
       2.206039             0.00779725712            0.000482491763           
       2.208679             0.00797387307            0.000499281019           
       2.211319             0.00622536788            0.000443700435           
       2.213960             0.00682459278            0.000470788558           
       2.216600             0.00778897264            0.000520293919           
       2.219241             0.00794386321            0.000502180287           
       2.221881             0.00780590552             0.00049882412           
       2.224521             0.00773755389            0.000502721061           
       2.227162             0.00703370381            0.000469713943           
       2.229802             0.00740932114            0.000497184196           
       2.232443             0.00785906931            0.000503974986           
       2.235083             0.00670212852              0.0004791318           
       2.237723             0.00753632587            0.000487572433           
       2.240364              0.0075198952             0.00049903925           
       2.243004             0.00737047702            0.000490112681           
       2.245644             0.00780007596            0.000509240559           
       2.248285             0.00764416959            0.000494026444           
       2.250925             0.00718644255            0.000481916952           
       2.253566             0.00679631118            0.000501026453           
       2.256206             0.00778036233            0.000525354189           
       2.258846             0.00709733048            0.000477316694           
       2.261487             0.00703804942            0.000498891488           
       2.264127             0.00720727174            0.000487579537           
       2.266767             0.00779110604            0.000520449888           
       2.269408              0.0080463357            0.000531071811           
       2.272048             0.00786861323            0.000522039242           
       2.274689             0.00793464355            0.000531132401           
       2.277329             0.00648642016            0.000452159515           
       2.279969             0.00747876586            0.000516804641           
       2.282610              0.0063732195            0.000463810746           
       2.285250             0.00701539858            0.000465758881           
       2.287891             0.00753317178            0.000517463659           
       2.290531             0.00770311391             0.00053030201           
       2.293171             0.00853152597            0.000543629163           
       2.295812             0.00618516029            0.000461015612           
       2.298452             0.00744152291            0.000528801159           
       2.301092             0.00713467535            0.000481084924           
       2.303733             0.00670975609            0.000485363595           
       2.306373             0.00709951471            0.000507124223           
       2.309014              0.0066809656            0.000482351696           
       2.311654             0.00698132867             0.00051454746           
       2.314294             0.00719293745            0.000481185297           
       2.316935             0.00707867526             0.00047932023           
       2.319575             0.00748309143            0.000516363633           
       2.322215             0.00754548233            0.000540376806           
       2.324856             0.00641722996            0.000458173266           
       2.327496             0.00780679384            0.000537345774           
       2.330137             0.00759115959            0.000507048533           
       2.332777             0.00752446618            0.000520519362           
       2.335417             0.00782499947            0.000514967562           
       2.338058             0.00718471583            0.000508189682           
       2.340698             0.00796312324            0.000530806728           
       2.343339             0.00647115577            0.000489033989           
       2.345979             0.00758160807            0.000500790904           
       2.348619             0.00721438217            0.000506368983           
       2.351260              0.0077251896            0.000520936024           
       2.353900             0.00698714594            0.000493857651           
       2.356540              0.0071323137            0.000498253282           
       2.359181             0.00724541707            0.000495147934           
       2.361821             0.00695193932            0.000468512743           
       2.364462             0.00719610584            0.000498536458           
       2.367102             0.00667910436            0.000493579034           
       2.369742             0.00635102148            0.000506605596           
       2.372383             0.00689373505            0.000477928312           
       2.375023             0.00743656634            0.000521811854           
       2.377663             0.00719790814            0.000490857526           
       2.380304             0.00741045907            0.000506356621           
       2.382944             0.00722900194            0.000476347247           
       2.385585             0.00796918796            0.000533407849           
       2.388225             0.00746793537            0.000513933707           
       2.390865             0.00738861958             0.00050594608           
       2.393506             0.00656433727            0.000467892707           
       2.396146             0.00721933803            0.000530546779           
       2.398787             0.00670983351             0.00047137091           
       2.401427             0.00684811315            0.000459645936           
       2.404067             0.00749010256            0.000491431037           
       2.406708             0.00632099193            0.000446038084           
       2.409348             0.00745982983            0.000513966202           
       2.411988             0.00696245407            0.000486496033           
       2.414629             0.00777382192            0.000530071772           
       2.417269             0.00721146763            0.000516500025           
       2.419910             0.00751187002            0.000528371207           
       2.422550             0.00677074838            0.000479928594           
       2.425190              0.0074205614            0.000529615037           
       2.427831             0.00728986331            0.000521979455           
       2.430471             0.00682893557            0.000481308214           
       2.433112              0.0064328234            0.000454883558           
       2.435752             0.00753736847            0.000521102437           
       2.438392             0.00700408054            0.000484850743           
       2.441033             0.00708036027             0.00051663483           
       2.443673             0.00812160852            0.000553746224           
       2.446313             0.00680441661            0.000507303602           
       2.448954             0.00715577762            0.000495337979           
       2.451594             0.00705018694            0.000528659917           
       2.454235             0.00638538531            0.000472052885           
       2.456875               0.006746398            0.000507707469           
       2.459515             0.00783615295            0.000561343498           
       2.462156             0.00810121607            0.000538875469           
       2.464796             0.00773798364            0.000519861475           
       2.467436             0.00771989059            0.000536968945           
       2.470077              0.0073980385            0.000498226782           
       2.472717              0.0080144218            0.000520813319           
       2.475358             0.00779432117            0.000518967431           
       2.477998              0.0078754004             0.00051286525           
       2.480638             0.00800376467            0.000526215161           
       2.483279             0.00805731822            0.000551815628           
       2.485919             0.00785116176             0.00052495305           
       2.488560             0.00736732819            0.000507099666           
       2.491200             0.00704057205            0.000510467467           
       2.493840             0.00700070225            0.000538609883           
       2.496481             0.00751988349             0.00054909339           
       2.499121             0.00690027616            0.000511605048           
       2.501761             0.00755074139            0.000542266509           
       2.504402             0.00683778863            0.000508491849           
       2.507042             0.00637710766            0.000487426164           
       2.509683             0.00783676745            0.000532079661           
       2.512323             0.00785100317            0.000559323155           
       2.514963             0.00727172939            0.000531643098           
       2.517604             0.00744567328            0.000558220511           
       2.520244             0.00714205138            0.000512551384           
       2.522884             0.00714585406            0.000520019737           
       2.525525               0.010828324            0.000647403345           
       2.528165             0.00794522509            0.000545914283           
       2.530806             0.00623952161            0.000492211369           
       2.533446             0.00719856812            0.000517403032           
       2.536086             0.00638804873            0.000483042584           
       2.538727             0.00783713303            0.000513282067           
       2.541367             0.00605656109            0.000455667031           
       2.544008             0.00789217937            0.000537193453           
       2.546648               0.007454645            0.000531045671           
       2.549288             0.00676565365            0.000516218345           
       2.551929             0.00724406104            0.000525643276           
       2.554569             0.00621819711            0.000469187351           
       2.557209             0.00753266071            0.000521144929           
       2.559850             0.00688441363            0.000499816016           
       2.562490             0.00720662103             0.00052853722           
       2.565131             0.00703765428            0.000541548737           
       2.567771             0.00685619131            0.000515358824           
       2.570411              0.0074997153            0.000533170396           
       2.573052             0.00741471268            0.000536816657           
       2.575692             0.00632722595            0.000492887299           
       2.578332             0.00607084743            0.000484794664           
       2.580973             0.00733644049            0.000527866277           
       2.583613             0.00745100632             0.00051930514           
       2.586254             0.00780248086            0.000530673653           
       2.588894             0.00649302795            0.000502714423           
       2.591534             0.00688701745            0.000535960004           
       2.594175             0.00746196764            0.000547355876           
       2.596815             0.00718347364            0.000540211149           
       2.599456             0.00679030506            0.000498063319           
       2.602096             0.00671230067            0.000498962864           
       2.604736             0.00652323807            0.000503549316           
       2.607377             0.00685212278            0.000502486474           
       2.610017             0.00618744777             0.00046913766           
       2.612657             0.00639646848            0.000507357077           
       2.615298              0.0068296224            0.000511837045           
       2.617938              0.0066690861            0.000541061422           
       2.620579             0.00650238203            0.000512880634           
       2.623219             0.00608586727            0.000495475039           
       2.625859             0.00708651258            0.000519838446           
       2.628500             0.00726209177            0.000522789651           
       2.631140             0.00748515304            0.000538935964           
       2.633780             0.00732468723            0.000532664386           
       2.636421             0.00706290384            0.000535922128           
       2.639061             0.00709190053            0.000505543652           
       2.641702             0.00735235469            0.000526659763           
       2.644342             0.00585247841            0.000471881998           
       2.646982             0.00667830356            0.000496540817           
       2.649623              0.0070457926            0.000534479986           
       2.652263              0.0080612154            0.000565961175           
       2.654904             0.00710011419            0.000531686628           
       2.657544             0.00648533051            0.000478621504           
       2.660184             0.00715391375            0.000531989653           
       2.662825             0.00670291957            0.000526894666           
       2.665465             0.00727874665            0.000531031815           
       2.668105             0.00661964806            0.000533784669           
       2.670746             0.00766871274            0.000530739742           
       2.673386              0.0116732076            0.000674834472           
       2.676027              0.0131247098            0.000704077317           
       2.678667             0.00965639102             0.00058927971           
       2.681307             0.00850215045            0.000543295563           
       2.683948              0.0111102841            0.000638111523           
       2.686588             0.00916533589            0.000569961662           
       2.689229              0.0102077339            0.000587761591           
       2.691869              0.0100335902            0.000615883885           
       2.694509             0.00808946588            0.000553310815           
       2.697150             0.00809803343            0.000544622074           
       2.699790              0.0070049708            0.000531028156           
       2.702430             0.00736096572            0.000520337423           
       2.705071             0.00697915293            0.000523540386           
       2.707711             0.00618441009            0.000478329367           
       2.710352             0.00722210601            0.000546173698           
       2.712992             0.00719016086            0.000555040835           
       2.715632              0.0072223457            0.000516119048           
       2.718273             0.00693436219            0.000524115403           
       2.720913             0.00628892723            0.000497707834           
       2.723553              0.0067913844            0.000520678351           
       2.726194             0.00750727476            0.000572248649           
       2.728834             0.00776689547            0.000582332542           
       2.731475             0.00819912637            0.000552193845           
       2.734115             0.00817573543            0.000568518727           
       2.736755             0.00767428763            0.000555341793           
       2.739396             0.00709872418            0.000531016382           
       2.742036             0.00634675633            0.000525483716           
       2.744677             0.00715729407             0.00054144322           
       2.747317             0.00790504611            0.000564966582           
       2.749957             0.00772432505            0.000562390514           
       2.752598             0.00745448251            0.000558475696           
       2.755238             0.00710060667            0.000554898215           
       2.757878             0.00771242686            0.000573254259           
       2.760519             0.00858580912            0.000598429319           
       2.763159             0.00751034679            0.000554102874           
       2.765800             0.00680154028            0.000502515934           
       2.768440             0.00824172724            0.000557240906           
       2.771080             0.00832741793            0.000564805746           
       2.773721             0.00668046579            0.000518929536           
       2.776361             0.00707546665            0.000541418549           
       2.779001              0.0069099824            0.000554098091           
       2.781642                0.00629798            0.000525093247           
       2.784282             0.00649789398            0.000542132617           
       2.786923             0.00773567311            0.000596726625           
       2.789563             0.00690122821            0.000542836208           
       2.792203             0.00646027325            0.000501723301           
       2.794844              0.0070616896            0.000574906502           
       2.797484             0.00648882982            0.000520098782           
       2.800125             0.00728431247             0.00057943717           
       2.802765             0.00765256074            0.000583685781           
       2.805405             0.00752056962            0.000580588628           
       2.808046             0.00643692954            0.000546576423           
       2.810686             0.00582968454             0.00047796335           
       2.813326              0.0065250841            0.000525249077           
       2.815967             0.00624117185            0.000528300798           
       2.818607             0.00687860206             0.00052926289           
       2.821248              0.0066216416            0.000508502293           
       2.823888             0.00726684612            0.000552956566           
       2.826528             0.00654071553            0.000508051966           
       2.829169             0.00730387186            0.000562345043           
       2.831809             0.00663096335            0.000543102932           
       2.834449             0.00679291067            0.000553168909           
       2.837090              0.0069605349            0.000540825221           
       2.839730             0.00607166658             0.00050264802           
       2.842371             0.00650562087            0.000521051603           
       2.845011             0.00766622931            0.000570131841           
       2.847651             0.00774598202            0.000573793585           
       2.850292             0.00658252067            0.000534139884           
       2.852932             0.00691174437            0.000559262622           
       2.855573             0.00608134867            0.000508869324           
       2.858213             0.00671438325            0.000561498811           
       2.860853             0.00750290632            0.000552141966           
       2.863494             0.00685761925            0.000546530322           
       2.866134             0.00760890151            0.000598358221           
       2.868774             0.00741155222            0.000580387186           
       2.871415             0.00660554457             0.00055645515           
       2.874055             0.00698173291            0.000546838229           
       2.876696             0.00614629826            0.000526956859           
       2.879336             0.00773910122            0.000569906904           
       2.881976             0.00709383729            0.000562781058           
       2.884617             0.00700199724            0.000550914561           
       2.887257             0.00678597853            0.000545149221           
       2.889897             0.00734805831            0.000555602234           
       2.892538             0.00711117348             0.00059877292           
       2.895178             0.00613039696            0.000502263871           
       2.897819             0.00774264699            0.000575802079           
       2.900459             0.00766404994            0.000561727914           
       2.903099             0.00777585674            0.000560018745           
       2.905740              0.0063538633            0.000519326686           
       2.908380             0.00698895443            0.000550851554           
       2.911021              0.0072536336            0.000570309261           
       2.913661             0.00738206439            0.000575163608           
       2.916301             0.00696236933            0.000559107061           
       2.918942             0.00701743169            0.000536910238           
       2.921582             0.00674345781             0.00055068747           
       2.924222             0.00654581487            0.000525633822           
       2.926863             0.00692589825            0.000563179578           
       2.929503             0.00796782732            0.000611214762           
       2.932144             0.00760203632            0.000573102646           
       2.934784             0.00632282251            0.000514094224           
       2.937424             0.00705151537            0.000548484729           
       2.940065             0.00608542499            0.000486042371           
       2.942705             0.00681834707             0.00051383422           
       2.945346             0.00681015496            0.000544980461           
       2.947986             0.00739106044            0.000578906749           
       2.950626             0.00712036052            0.000565007334           
       2.953267             0.00694177574            0.000548863106           
       2.955907             0.00691344455             0.00056820698           
       2.958547             0.00695074337            0.000537861608           
       2.961188             0.00720315908            0.000571237849           
       2.963828             0.00720380911            0.000558801427           
       2.966469             0.00742683253              0.0005566032           
       2.969109             0.00657225377            0.000531359656           
       2.971749              0.0064007121            0.000521108069           
       2.974390             0.00713491191            0.000540656465           
       2.977030              0.0073279517            0.000560166635           
       2.979670              0.0082589792            0.000578448517           
       2.982311             0.00969869515            0.000649690331           
       2.984951             0.00697908138            0.000524166875           
       2.987592             0.00679575406            0.000527596445           
       2.990232             0.00659662734            0.000540596027           
       2.992872             0.00817880159            0.000566998041           
       2.995513              0.0103866429            0.000625114132           
       2.998153              0.0130973223            0.000713754822           
       3.000794              0.0107142804            0.000625295049           
       3.003434             0.00985272329            0.000600532984           
       3.006074              0.0209573326            0.000863568171           
       3.008715              0.0734983523             0.00156111838           
       3.011355               0.251610313             0.00278537578           
       3.013995               0.194372902             0.00245480748           
       3.016636               0.107223221             0.00178538461           
       3.019276               0.137907404             0.00199033271           
       3.021917               0.510821223             0.00368330383           
       3.024557                1.19123441             0.00553008329           
       3.027197                1.08374576               0.005142543           
       3.029838               0.677924465              0.0041249803           
       3.032478               0.268507899              0.0025986699           
       3.035118              0.0729684874             0.00137286565           
       3.037759              0.0695078146             0.00133818602           
       3.040399              0.0955857664             0.00161873606           
       3.043040               0.325934691             0.00302576828           
       3.045680               0.381443124             0.00307970717           
       3.048320               0.125389982             0.00180415196           
       3.050961               0.151023915             0.00201488512           
       3.053601               0.118018897             0.00171547409           
       3.056242               0.112307426             0.00177923242           
       3.058882               0.136937407             0.00210750696           
       3.061522               0.113928567               0.001886019           
       3.064163               0.131631362             0.00200173186           
       3.066803               0.181460128              0.0024743229           
       3.069443              0.0919021251             0.00184232641           
       3.072084              0.0493691725             0.00131483621           
       3.074724              0.0352086591             0.00124003189           
       3.077365              0.0273268709             0.00113088032           
       3.080005              0.0102046964            0.000694985457           
       3.082645              0.0162208305            0.000920487584           
       3.085286              0.0149919227            0.000891914133           
       3.087926              0.0115482133            0.000776768553           
       3.090566              0.0112313488            0.000750569183           
       3.093207              0.0139972515            0.000871929618           
       3.095847              0.0090287596            0.000671211304           
       3.098488             0.00827480192            0.000712506018           
       3.101128             0.00951881923            0.000769104432           
       3.103768             0.00867141973            0.000720261868           
       3.106409              0.0108811788            0.000858686629           
       3.109049               0.010361044             0.00080410279           
       3.111690             0.00716010149            0.000656975524           
       3.114330             0.00860398159            0.000735497688           
       3.116970             0.00792603279            0.000711346027           
       3.119611              0.0108944597            0.000887717089           
       3.122251              0.0152274463             0.00109781938           
       3.124891              0.0327543148               0.001625093           
       3.127532              0.0253827425             0.00139952715           
       3.130172              0.0202577143             0.00127188406           
       3.132813             0.00778120718            0.000776026049           
       3.135453               0.007975239            0.000779170463           
       3.138093             0.00695420684            0.000788365348           
       3.140734              0.0080795587            0.000783971297           
       3.143374              0.0068836159            0.000765267009           
       3.146014             0.00808311521            0.000892743078           
       3.148655             0.00671929865            0.000756644249           
       3.151295               0.006282846            0.000779695689           
       3.153936             0.00541166415            0.000698997966           
       3.156576             0.00595638303            0.000723359132           
       3.159216             0.00665836143            0.000768622657           
       3.161857             0.00570167957            0.000708369433           
       3.164497             0.00668278958             0.00080578826           
       3.167138             0.00891283394            0.000961507922           
       3.169778             0.00579557865             0.00076255567           
       3.172418             0.00737003534            0.000851173002           
       3.175059             0.00610309393            0.000686684999           
       3.177699             0.00613663817            0.000729153463           
       3.180339             0.00586074281            0.000763467864           
       3.182980             0.00605417323            0.000802268442           
       3.185620             0.00803929485            0.000941512302           
       3.188261             0.00604519499            0.000831005664           
       3.190901             0.00472501283            0.000675695651           
       3.193541             0.00542353948            0.000760666131           
       3.196182             0.00555258307            0.000802098514           
       3.198822             0.00473074535            0.000740611593           
       3.201463             0.00773052824            0.000930428099           
       3.204103             0.00563670741            0.000789660852           
       3.206743             0.00698472499            0.000878945107           
       3.209384             0.00554810537            0.000846349805           
       3.212024             0.00594427812            0.000816750002           
       3.214664             0.00621990624            0.000950049831           
       3.217305             0.00507820189            0.000816005575           
       3.219945              0.0062584515            0.000932386309           
       3.222586             0.00578396916            0.000853754166           
       3.225226              0.0051176626            0.000890885739           
       3.227866             0.00556547051            0.000849138528           
       3.230507             0.00626466835            0.000933881362           
       3.233147             0.00567822608            0.000896276044           
       3.235787             0.00546718869            0.000900020299           
       3.238428             0.00466259287            0.000896925553           
       3.241068             0.00676811224             0.00101044136           
       3.243709             0.00612195228            0.000992863228           
       3.246349             0.00574714838            0.000876943787           
       3.248989              0.0048461681            0.000950851703           
       3.251630             0.00517197294            0.000945922725           
       3.254270             0.00679078917             0.00096870922           
       3.256911             0.00474490063            0.000883518799           
       3.259551             0.00532605672             0.00100775541           
       3.262191             0.00517297612             0.00101447096           
       3.264832             0.00627607608             0.00116752854           
       3.267472             0.00456190316            0.000933789647           
       3.270112             0.00556861905             0.00114015038           
       3.272753             0.00743179164             0.00120561858           
       3.275393             0.00588601717             0.00109476879           
       3.278034             0.00588673599             0.00109545203           
       3.280674             0.00479586454             0.00107293855           
       3.283314              0.0077021492             0.00121606552           
       3.285955             0.00513466745              0.0010244587           
       3.288595              0.0058421727             0.00121573838           
       3.291235             0.00666068325             0.00133444852           
       3.293876             0.00524138907             0.00120077599           
       3.296516             0.00531140851             0.00116044625           
       3.299157             0.00841555985             0.00144234826           
       3.301797             0.00513559686             0.00128525632           
       3.304437             0.00503408811             0.00110246186           
       3.307078             0.00437082481             0.00113160186           
       3.309718             0.00527296058             0.00128290505           
       3.312359             0.00499306395             0.00124868809           
       3.314999             0.00453193837             0.00117128944           
       3.317639              0.0052747952             0.00120852102           
       3.320280             0.00688439374             0.00146791811           
       3.322920             0.00939923476             0.00174407031           
       3.325560             0.00447639018              0.0012044164           
       3.328201             0.00709849397             0.00136595893           
       3.330841             0.00508751625             0.00140740901           
       3.333482             0.00726557357             0.00158978968           
       3.336122             0.00764065898             0.00163105918           
       3.338762             0.00321040271             0.00122130542           
       3.341403             0.00550136181             0.00152766633           
       3.344043             0.00546007292             0.00146117141           
       3.346683             0.00405547874             0.00128562431           
       3.349324             0.00567245312             0.00170951096           
       3.351964             0.00747524487             0.00207522027           
       3.354605             0.00527933875             0.00199450655           
       3.357245             0.00788971137              0.0021995509           
       3.359885             0.00472329267             0.00136210774           
       3.362526             0.00674370822             0.00203533851           
       3.365166                0.01029715             0.00237217441           
       3.367807             0.00794150385             0.00266612481           
       3.370447             0.00490693726             0.00173843308           
       3.373087             0.00485748883             0.00184963437           
       3.375728             0.00629289131             0.00237598845           
       3.378368             0.00606724514             0.00346246092           
       3.381008             0.00977205099             0.00327612231           
       3.383649             0.00977123099             0.00262800595           
       3.386289              0.0078817349             0.00279346451           
       3.388930             0.00241133776             0.00244401904           
       3.391570             0.00864998551             0.00327450561           
       3.394210              0.0119942698             0.00487972023           
       3.396851             0.00245499598             0.00246948963           
       3.399491             0.00735925012             0.00427681718           
       3.402131             0.00977965027             0.00697528658           
       3.404772              0.0194515658              0.0139154564           
       3.407412                       nan                       nan           
       3.410053             0.00931493044             0.00964149003           
       3.412693                       nan                       nan           
       3.415333           -2.67081775e-05                         0           
