################################################################################
# EDF_DataBlockID                     0.Image.Psd
# EDF_BinarySize                      4366944
# EDF_HeaderSize                      2560
# ByteOrder                           LowByteFirst
# DataType                            FloatValue
# Dim_1                               1028
# Dim_2                               1062
# Image                               0
# HeaderID                            EH:000000:000000:000000
# Size                                4366944
# Center_1                            607.5200
# Center_2                            651.5500
# Comment                             Xenocs_Cell_Window - 20251028_20perc_iodine_1.23mg
# DDummy                              0.6
# Date                                2025-10-30T13:59:37
# Delta                               0
# Dummy                               -1.5
# ExposureTime                        360
# Gamma                               0
# Intensity1                          8.50525e-10
# PSize_1                             7.5e-05
# PSize_2                             7.5e-05
# Pressure                            0.0326328
# SampleDistance                      0.450002
# SampleEnvKind                       large
# SampleEnvPN                         ElectroChemical cell
# SampleEnvSN                         1141
# Thickness                           0
# Wavelength                          1.541891e-10
# Wavelength                          1.54189e-10
# aux                                 0
# aux_dial                            0.002375
# beamx                               588.434
# beamx_dial                          588.434
# beamz                               657.808
# beamz_dial                          657.808
# det0x                               0
# det0x_dial                          6.36945
# det0xvd                             0
# det0xvd_dial                        0
# det0y                               450.002
# det0y_dial                          481.635
# det0z                               0
# det0z_dial                          1.23302
# det0zvd                             0
# det0zvd_dial                        0
# mag                                 1.818
# mag_dial                            1.818
# om                                  0.2499
# om_dial                             -0.610199
# phi                                 -0.0120535
# phi_dial                            0
# ry                                  0.599993
# ry_dial                             0.599993
# s1bot                               0.8
# s1bot_dial                          -1.66094
# s1hl                                0.8
# s1hl_dial                           -0.608437
# s1hr                                0.8
# s1hr_dial                           0.970938
# s1top                               0.8
# s1top_dial                          -0.461562
# s2bot                               0.45
# s2bot_dial                          1.36109
# s2hl                                0.45
# s2hl_dial                           -0.83375
# s2hr                                0.45
# s2hr_dial                           -0.118594
# s2top                               0.45
# s2top_dial                          1.44734
# w2theta                             32
# w2theta_dial                        32
# waxsch                              19.2605
# waxsch_dial                         -32.7355
# waxsh                               137.085
# waxsh_dial                          -43.5338
# waxsth                              26.0607
# waxsth_dial                         -19.4086
# waxsz                               67.0407
# waxsz_dial                          -23.7954
# wind                                65.9854
# wind_dial                           66.0041
# wpsi                                124
# wpsi_dial                           124
# wstod                               115
# wstod_dial                          115
# x                                   0
# x_dial                              1.00969
# z                                   0
# z_dial                              13.3172
# CountCutoff                         15302352
# DetectorModel                       Dectris EIGER2 Si 1M, S/N E-02-0362
# ThresholdSetting                    4023.88989258
# Saturation                          0
# FlatField                           Corrected
# BackgroundReductionExtra            0.02
# BackgroundCorrectionConstant        0.0026712
# Detector                            0
# Monitor                             0
# Pil_Roi0                            0
# SumForIntensity1                    3.06189e+08
# TransmittedFlux                     850525
# det                                 0
# mon                                 0
# pilai0                              3.06189e+08
# pilai1                              777616
# pilct0                              5.29913e+08
# pilct1                              777616
# pilroi0                             0
# pilroi1                             0
# sec                                 1
# title                               20251028_20perc_iodine_1.23mg_0_00433.edf
# usaxs0                              0
# Operation                           Azimuthal average I(q)
# Error_model                         ErrorModel.poisson
# Geometrical_correction              True
# Transmission_correction             True
# Thickness_correction                False
# Binning mode                        Uniform
# Binning factor                      1.0
# Psi                                 0.0
# Omega                               0.2499
# MaskInvalidPixels                   True
# DetectorEdge                        3
# MaskFiles                           ['20251028_20perc_iodine_1.23mg_0_00012_mask.edf']
################################################################################
    q(A⁻¹)                Intensity(a.u.)            Sigma_I(a.u.)            
       0.000340                371277.249                120.627669           
       0.001019                358239.134                72.5604435           
       0.001698                349313.677                50.6647901           
       0.002377                330816.883                 44.099872           
       0.003056                308262.271                35.9782253           
       0.003735                253670.985                28.7834471           
       0.004415                204995.541                25.8749617           
       0.005094                153101.757                19.3654837           
       0.005773                101051.453                14.5658656           
       0.006452                58849.7767                 10.650419           
       0.007131                32268.7233                7.64000411           
       0.007810                16181.1758                5.36899055           
       0.008490                 8080.0554                3.36300345           
       0.009169                3894.23874                2.30739576           
       0.009848                1188.37279                1.23237456           
       0.010527                457.894379               0.764978609           
       0.011206                115.172533               0.366163123           
       0.011885                53.4305017               0.231719636           
       0.012564                24.9196998               0.162469328           
       0.013244                16.8584213               0.124930479           
       0.013923                12.4831142               0.109237333           
       0.014602                9.60161749              0.0888519047           
       0.015281                7.47993462              0.0798311373           
       0.015960                6.18528123              0.0720740737           
       0.016639                5.01899957              0.0613087617           
       0.017319                4.18917736              0.0551405528           
       0.017998                3.48335051              0.0481035019           
       0.018677                2.86786662              0.0452066921           
       0.019356                2.53809944              0.0420219959           
       0.020035                2.15293574              0.0363104099           
       0.020714                1.78568066              0.0334187152           
       0.021394                1.60781051              0.0300037223           
       0.022073                1.41370189              0.0292715678           
       0.022752                1.22712321              0.0260882336           
       0.023431                1.14912942              0.0245054317           
       0.024110               0.984650566              0.0236497014           
       0.024789               0.949453867              0.0215675953           
       0.025469               0.814940246              0.0205911094           
       0.026148               0.740519417              0.0184425098           
       0.026827               0.681863508              0.0179802358           
       0.027506                0.63556485              0.0176094025           
       0.028185               0.571566045              0.0159251749           
       0.028864               0.514995527              0.0150317324           
       0.029544                0.46801597              0.0138957953           
       0.030223                0.43555804              0.0135975116           
       0.030902               0.395961242              0.0130833509           
       0.031581               0.368540474               0.011998785           
       0.032260               0.363192388              0.0121143649           
       0.032939               0.327423816              0.0110907933           
       0.033619               0.294648251              0.0106756831           
       0.034298                0.26517717              0.0098559159           
       0.034977               0.253727885             0.00945133681           
       0.035656               0.233924207             0.00931518034           
       0.036335               0.216891442              0.0086994243           
       0.037014               0.212221535             0.00863092906           
       0.037693               0.184150111             0.00773424524           
       0.038373               0.165195619             0.00739728485           
       0.039052               0.167190701             0.00747348227           
       0.039731               0.160116508             0.00714322264           
       0.040410               0.147541131             0.00681100408           
       0.041089               0.145706198             0.00666249417           
       0.041768               0.146486785             0.00671521815           
       0.042448                0.13832071             0.00647472671           
       0.043127                0.11734629             0.00582280593           
       0.043806               0.129946464             0.00617313891           
       0.044485               0.131902441             0.00609165722           
       0.045164               0.105004672             0.00554229509           
       0.045843               0.105466551             0.00532741134           
       0.046523              0.0969969687             0.00512666615           
       0.047202               0.108937026             0.00547101544           
       0.047881              0.0987640153             0.00510884451           
       0.048560              0.0971371964             0.00511277471           
       0.049239              0.0946952532             0.00484708732           
       0.049918              0.0916046397             0.00486052916           
       0.050598              0.0845258754             0.00459890555           
       0.051277              0.0879970628             0.00467749628           
       0.051956              0.0910448875             0.00472793319           
       0.052635              0.0745023331              0.0041861294           
       0.053314              0.0841401997             0.00457872837           
       0.053993              0.0732189177             0.00415409953           
       0.054673              0.0774626736             0.00417761077           
       0.055352              0.0687530434             0.00399356218           
       0.056031              0.0696932483              0.0039362935           
       0.056710               0.068779484             0.00400622772           
       0.057389              0.0682880141             0.00384942228           
       0.058068              0.0659646688             0.00382237193           
       0.058748               0.074950908             0.00412524391           
       0.059427              0.0611427573             0.00366283823           
       0.060106              0.0627455331             0.00374565476           
       0.060785              0.0586793886             0.00351372464           
       0.061464              0.0623075712             0.00370799622           
       0.062143              0.0576729253             0.00353118642           
       0.062822              0.0621009998             0.00362124131           
       0.063502              0.0654610144             0.00371127319           
       0.064181                0.05229057             0.00328195641           
       0.064860              0.0513736578             0.00330260207           
       0.065539               0.051198655             0.00326473284           
       0.066218              0.0499652854             0.00315611293           
       0.066897               0.051067162             0.00321535507           
       0.067577              0.0507787106             0.00323706452           
       0.068256              0.0492339899             0.00326574567           
       0.068935              0.0486119842             0.00319258027           
       0.069614              0.0472596612             0.00317919666           
       0.070293              0.0392051175             0.00292233361           
       0.070972              0.0434394514             0.00305357815           
       0.071652              0.0446506304              0.0031015339           
       0.072331              0.0479977441             0.00315837136           
       0.073010              0.0407336984              0.0029760569           
       0.073689              0.0451894958             0.00311738159           
       0.074368               0.037933923             0.00285098241           
       0.075047                0.03970858             0.00288555648           
       0.075727              0.0408562946             0.00290888253           
       0.076406              0.0401041879             0.00293948622           
       0.077085              0.0363657709              0.0027468174           
       0.077764              0.0425249578              0.0029599262           
       0.078443              0.0401014572             0.00289214197           
       0.079122              0.0331914537             0.00260591581           
       0.079802              0.0315794856             0.00256880769           
       0.080481              0.0360903506             0.00265351964           
       0.081160              0.0360072928             0.00270485217           
       0.081839              0.0356261532             0.00264742477           
       0.082518              0.0384376763             0.00275222117           
       0.083197              0.0375967266              0.0026796545           
       0.083876              0.0325163076             0.00245062744           
       0.084556              0.0343736859              0.0025897214           
       0.085235              0.0330156211              0.0024890113           
       0.085914              0.0323735666             0.00248863317           
       0.086593              0.0368256809             0.00263716209           
       0.087272              0.0361439708              0.0025757084           
       0.087951              0.0334272543             0.00253297102           
       0.088631              0.0318496719             0.00238826365           
       0.089310              0.0330386472             0.00248402361           
       0.089989              0.0348397863             0.00252101336           
       0.090668               0.032459614             0.00246023531           
       0.091347              0.0332064181             0.00250230793           
       0.092026              0.0288032935              0.0022275898           
       0.092706              0.0305212168             0.00237628959           
       0.093385              0.0286892132             0.00226848999           
       0.094064              0.0277417407             0.00225667896           
       0.094743              0.0320555042             0.00238882879           
       0.095422              0.0288644821             0.00224153509           
       0.096101              0.0299471037             0.00233020769           
       0.096781              0.0312143602             0.00234493658           
       0.097460              0.0287282573             0.00218825024           
       0.098139              0.0253275151              0.0020388441           
       0.098818              0.0272885405             0.00209024121           
       0.099497               0.028403148             0.00213688056           
       0.100176              0.0267542104              0.0020194943           
       0.100856              0.0259549488             0.00198782555           
       0.101535              0.0285647245             0.00208134844           
       0.102214              0.0287016743             0.00208634477           
       0.102893              0.0270166841             0.00200111394           
       0.103572              0.0239786412             0.00185739571           
       0.104251              0.0272622722             0.00198780878           
       0.104931               0.025628657             0.00190978536           
       0.105610               0.026545949             0.00195195312           
       0.106289              0.0241786262             0.00183188368           
       0.106968              0.0247380651             0.00185845447           
       0.107647              0.0221394746             0.00175919222           
       0.108326               0.023851106             0.00180150203           
       0.109005              0.0262461561             0.00187789911           
       0.109685                0.02460738             0.00179793129           
       0.110364              0.0234780934               0.001776138           
       0.111043               0.023851954             0.00178312546           
       0.111722              0.0206992563              0.0016408025           
       0.112401              0.0229228993             0.00173148901           
       0.113080              0.0213419454             0.00165156791           
       0.113760              0.0236516076             0.00176768039           
       0.114439              0.0239142582             0.00175210076           
       0.115118              0.0225268553              0.0016876944           
       0.115797              0.0241220464             0.00176260672           
       0.116476              0.0205289378             0.00160170425           
       0.117155              0.0237851201             0.00173796276           
       0.117835              0.0224420252             0.00165461964           
       0.118514              0.0206668016             0.00160796205           
       0.119193              0.0175278726             0.00148083577           
       0.119872              0.0220744714             0.00164104981           
       0.120551              0.0225894641             0.00164902416           
       0.121230              0.0198187491             0.00152904263           
       0.121910              0.0209317823             0.00158657922           
       0.122589              0.0211038767             0.00159472965           
       0.123268              0.0199365693             0.00151996944           
       0.123947              0.0205531134             0.00155327427           
       0.124626              0.0222214352             0.00159533765           
       0.125305              0.0193161738             0.00149469683           
       0.125985              0.0219749149             0.00158187849           
       0.126664               0.023636666             0.00162497236           
       0.127343               0.018817044             0.00146667421           
       0.128022              0.0198794132              0.0014959458           
       0.128701              0.0225963174             0.00158658985           
       0.129380              0.0218720818             0.00154140661           
       0.130059              0.0192959426             0.00145115088           
       0.130739               0.017820757             0.00140438452           
       0.131418              0.0208021381             0.00151307107           
       0.132097              0.0201580819             0.00147036169           
       0.132776              0.0217819932             0.00152153954           
       0.133455              0.0200496039             0.00147112099           
       0.134134              0.0208989209             0.00149717366           
       0.134814              0.0190006902             0.00141285266           
       0.135493              0.0178522185             0.00137503041           
       0.136172              0.0206377747             0.00146725864           
       0.136851              0.0249969139             0.00162419039           
       0.137530              0.0193786997             0.00139608992           
       0.138209              0.0201732538             0.00144114671           
       0.138889              0.0196065979             0.00142702477           
       0.139568              0.0184478968             0.00138361761           
       0.140247              0.0198247787             0.00143244289           
       0.140926              0.0188777542             0.00135784305           
       0.141605              0.0192917232             0.00140752354           
       0.142284              0.0181415125             0.00134230142           
       0.142964              0.0195763897             0.00139970824           
       0.143643              0.0194535121             0.00139354583           
       0.144322              0.0174525875             0.00129231381           
       0.145001              0.0200872164             0.00141488809           
       0.145680              0.0206499138             0.00140062895           
       0.146359              0.0183202234             0.00132408266           
       0.147039              0.0177605918             0.00131443552           
       0.147718              0.0199963194              0.0013717009           
       0.148397              0.0164733929             0.00126436561           
       0.149076              0.0189659179             0.00131456523           
       0.149755              0.0178127516             0.00129364538           
       0.150434               0.018185745             0.00130765297           
       0.151114              0.0176987211             0.00128288907           
       0.151793              0.0177910473             0.00128624276           
       0.152472              0.0179387555              0.0012687567           
       0.153151              0.0178670405             0.00127845968           
       0.153830              0.0197861392             0.00133556641           
       0.154509              0.0175659333             0.00125315494           
       0.155188              0.0200424774             0.00133808686           
       0.155868               0.018431263             0.00127404458           
       0.156547              0.0172479651             0.00124038582           
       0.157226              0.0165649852              0.0011858896           
       0.157905              0.0169997614             0.00121144249           
       0.158584              0.0158548213             0.00116781043           
       0.159263              0.0189942913             0.00128291611           
       0.159943               0.017825323             0.00124373885           
       0.160622              0.0166167733             0.00117766197           
       0.161301              0.0175070962             0.00122496777           
       0.161980               0.018213959             0.00122821107           
       0.162659              0.0169310656             0.00119729217           
       0.163338              0.0201444117              0.0012953318           
       0.164018              0.0183016164             0.00122818285           
       0.164697              0.0160792667             0.00116598353           
       0.165376              0.0165851239             0.00115830962           
       0.166055              0.0184299445              0.0012290855           
       0.166734              0.0187654616             0.00123466717           
       0.167413              0.0155270431             0.00112387657           
       0.168093              0.0164114777             0.00116637151           
       0.168772              0.0159982366             0.00111791503           
       0.169451              0.0151473971             0.00110779504           
       0.170130              0.0182857077             0.00120117707           
       0.170809              0.0166241224             0.00115897132           
       0.171488              0.0156177373             0.00111310249           
       0.172168              0.0151617164              0.0010861954           
       0.172847               0.016036333             0.00113175922           
       0.173526               0.014658843             0.00106141806           
       0.174205               0.016881399             0.00114429079           
       0.174884              0.0165537771              0.0011272276           
       0.175563              0.0166061812             0.00113383086           
       0.176243              0.0149092125             0.00108508915           
       0.176922              0.0163698384             0.00110736933           
       0.177601              0.0165387746             0.00112530106           
       0.178280              0.0143460967             0.00103635558           
       0.178959              0.0156565074             0.00109136131           
       0.179638              0.0137539728             0.00101995909           
       0.180317              0.0172020753             0.00113235785           
       0.180997              0.0159631884             0.00109674074           
       0.181676              0.0151687882              0.0010576875           
       0.182355              0.0158173072             0.00108654756           
       0.183034              0.0158689985             0.00107085484           
       0.183713              0.0167018551             0.00111197569           
       0.184392              0.0169061583             0.00111841763           
       0.185072              0.0163041814             0.00108580823           
       0.185751                 0.0196791             0.00119622469           
       0.186430              0.0186685806             0.00115694647           
       0.187109              0.0147773655             0.00104079699           
       0.187788               0.017333293             0.00112443935           
       0.188467              0.0145667528             0.00101860717           
       0.189147              0.0148753479             0.00103976421           
       0.189826              0.0142442711             0.00099947688           
       0.190505              0.0158301728             0.00107099228           
       0.191184              0.0158782123             0.00105715726           
       0.191863              0.0150835479             0.00103253434           
       0.192542              0.0171016625             0.00110980897           
       0.193222              0.0161551631             0.00105448744           
       0.193901              0.0162732564             0.00107252002           
       0.194580              0.0142819261            0.000987182483           
       0.195259              0.0171041024             0.00109273176           
       0.195938              0.0158751841             0.00105525724           
       0.196617              0.0166574704             0.00106585621           
       0.197297              0.0147398102             0.00100672236           
       0.197976              0.0143502519            0.000978072005           
       0.198655              0.0158157189             0.00103801477           
       0.199334              0.0165235786             0.00105163303           
       0.200013              0.0165250376             0.00105109634           
       0.200692              0.0163911803             0.00105312726           
       0.201371              0.0156319692             0.00101686602           
       0.202051              0.0156759128             0.00102146094           
       0.202730              0.0167593885             0.00104562254           
       0.203409              0.0160727338             0.00103085203           
       0.204088              0.0143743618            0.000973789547           
       0.204767              0.0153471467             0.00100091231           
       0.205446              0.0137656153            0.000949790561           
       0.206126               0.015101009            0.000981278272           
       0.206805              0.0147637061            0.000988044467           
       0.207484              0.0147241011            0.000968979529           
       0.208163              0.0123309319            0.000892072313           
       0.208842              0.0157420489             0.00100520417           
       0.209521              0.0157105532            0.000995852564           
       0.210201              0.0155501673             0.00100181236           
       0.210880              0.0147541896            0.000956686463           
       0.211559              0.0158434896             0.00100603117           
       0.212238              0.0144651139             0.00095638199           
       0.212917              0.0159369532             0.00100013014           
       0.213596              0.0131363617            0.000913380595           
       0.214276              0.0147100647            0.000946407252           
       0.214955              0.0145346656            0.000960531244           
       0.215634              0.0145081705            0.000952777581           
       0.216313              0.0145091922            0.000950810369           
       0.216992              0.0154196689            0.000979943507           
       0.217671               0.016018948            0.000992039089           
       0.218351              0.0152162226            0.000976319681           
       0.219030              0.0146590186            0.000943150858           
       0.219709              0.0158914991             0.00098812471           
       0.220388              0.0163074065            0.000999685722           
       0.221067              0.0146544178            0.000948417375           
       0.221746              0.0155437627            0.000975771672           
       0.222426              0.0135319927              0.0008968329           
       0.223105              0.0148843753            0.000953394471           
       0.223784              0.0145937946             0.00093467814           
       0.224463              0.0164018831            0.000998779685           
       0.225142              0.0145801268            0.000926780587           
       0.225821              0.0152332837            0.000951127819           
       0.226500              0.0150695641            0.000952017917           
       0.227180              0.0152465314            0.000942838635           
       0.227859              0.0146792066            0.000929281072           
       0.228538              0.0162203429            0.000967036385           
       0.229217              0.0159556548            0.000966705619           
       0.229896              0.0143667323            0.000916867959           
       0.230575              0.0149784665            0.000921261138           
       0.231255              0.0133401916            0.000882437717           
       0.231934              0.0164184891            0.000972282251           
       0.232613              0.0153321123            0.000943031287           
       0.233292               0.014981936            0.000923193174           
       0.233971              0.0147901137            0.000916835984           
       0.234650              0.0145659729             0.00092056441           
       0.235330              0.0129462511             0.00086029498           
       0.236009              0.0149889225            0.000923684044           
       0.236688              0.0137614338            0.000881887271           
       0.237367              0.0131182528            0.000862282452           
       0.238046              0.0145523288            0.000914588194           
       0.238725              0.0138172199            0.000877439609           
       0.239405              0.0143943658            0.000901130939           
       0.240084              0.0139980571            0.000882980786           
       0.240763              0.0154440454            0.000936346569           
       0.241442              0.0144617016            0.000893311356           
       0.242121              0.0141143848            0.000884184986           
       0.242800              0.0157640279            0.000938851584           
       0.243480              0.0135683577            0.000866939363           
       0.244159              0.0121955398            0.000822310211           
       0.244838              0.0135017145            0.000850989143           
       0.245517              0.0166626432            0.000958968069           
       0.246196               0.013307431            0.000857410251           
       0.246875              0.0126768588            0.000825184035           
       0.247554              0.0146199766            0.000895178994           
       0.248234              0.0139690396            0.000861755613           
       0.248913               0.014139063            0.000876709215           
       0.249592              0.0137984084            0.000857853612           
       0.250271              0.0140047726            0.000861735168           
       0.250950              0.0127752042            0.000828078644           
       0.251629              0.0129232372             0.00082578369           
       0.252309              0.0130315496            0.000830919995           
       0.252988              0.0139573007            0.000845114981           
       0.253667              0.0152329679            0.000893207095           
       0.254346              0.0144455129            0.000869634985           
       0.255025              0.0136320658            0.000842944478           
       0.255704                0.01340486            0.000832061829           
       0.256384              0.0149082514            0.000874445506           
       0.257063                0.01406084            0.000854071257           
       0.257742              0.0126225667            0.000803605107           
       0.258421              0.0135195924            0.000830068412           
       0.259100              0.0132660082            0.000823680722           
       0.259779              0.0152977006            0.000883758376           
       0.260459              0.0142303348            0.000854043612           
       0.261138              0.0122466834            0.000776802431           
       0.261817              0.0131483891            0.000821139414           
       0.262496              0.0122010664            0.000783248039           
       0.263175              0.0146027389            0.000858715673           
       0.263854              0.0138193232            0.000831482701           
       0.264534              0.0129452893            0.000797885485           
       0.265213              0.0122509729            0.000788425354           
       0.265892              0.0127284637            0.000793347134           
       0.266571              0.0119876723            0.000768163995           
       0.267250              0.0118820412            0.000766060428           
       0.267929              0.0124262131            0.000782602721           
       0.268609              0.0129621011            0.000803676116           
       0.269288              0.0120949583            0.000763431992           
       0.269967              0.0119803995            0.000767994303           
       0.270646              0.0101209161            0.000702830861           
       0.271325              0.0116721575            0.000756033819           
       0.272004              0.0121474256            0.000763584057           
       0.272683              0.0115463234            0.000745371657           
       0.273363              0.0121386661            0.000769126154           
       0.274042              0.0114302055            0.000741940725           
       0.274721              0.0131390837            0.000795000078           
       0.275400              0.0112890036            0.000732027503           
       0.276079               0.011494877            0.000742866553           
       0.276758              0.0121089682            0.000772073314           
       0.277438              0.0114124471            0.000741125507           
       0.278117               0.013088767            0.000808123737           
       0.278796              0.0121195142            0.000769733422           
       0.279475              0.0112296619            0.000753176525           
       0.280154              0.0133532838            0.000809496723           
       0.280833              0.0123250308            0.000782434759           
       0.281513              0.0128423987             0.00081121843           
       0.282192              0.0108020436            0.000731298291           
       0.282871              0.0110928942            0.000746256687           
       0.283550              0.0113715627            0.000759621113           
       0.284229              0.0110445235            0.000759613554           
       0.284908              0.0105963129             0.00075188847           
       0.285588             0.00972675019            0.000711941463           
       0.286267             0.00961635781            0.000719224452           
       0.286946             0.00986249088            0.000723634019           
       0.287625                0.01053118            0.000760495318           
       0.288304              0.0120646591            0.000803088589           
       0.288983             0.00953257256            0.000722896638           
       0.289663              0.0103699335            0.000758391716           
       0.290342              0.0110835858            0.000779879943           
       0.291021              0.0104260978            0.000760469812           
       0.291700             0.00983693064            0.000729021038           
       0.292379             0.00962750257            0.000737731928           
       0.293058              0.0105992714             0.00077114525           
       0.293738              0.0103653561            0.000756184804           
       0.294417              0.0104363734            0.000767590198           
       0.295096              0.0104314795            0.000758973828           
       0.295775             0.00997709009            0.000753595299           
       0.296454             0.00920377661              0.0007144392           
       0.297133              0.0105310467            0.000767834832           
       0.297812             0.00996267535            0.000750572741           
       0.298492             0.00983266285             0.00074709987           
       0.299171             0.00991430707            0.000748775884           
       0.299850              0.0105020764            0.000765389428           
       0.300529             0.00987601277            0.000750585974           
       0.301208             0.00946744932            0.000736684673           
       0.301887              0.0101394937            0.000761477169           
       0.302567             0.00848622175            0.000693147041           
       0.303246             0.00844192472              0.0006958492           
       0.303925              0.0089568767            0.000725961243           
       0.304604             0.00873812381            0.000701558426           
       0.305283             0.00842154038            0.000698947118           
       0.305962             0.00930600855            0.000730295591           
       0.306642             0.00932652705            0.000741029656           
       0.307321             0.00933078318            0.000738831927           
       0.308000             0.00904864837            0.000718952022           
       0.308679             0.00836009566            0.000706021941           
       0.309358             0.00780696198            0.000673036726           
       0.310037              0.0098068442            0.000756012412           
       0.310717               0.010085282            0.000765932097           
       0.311396              0.0104544631            0.000785054936           
       0.312075             0.00843419688            0.000714074918           
       0.312754             0.00950945833             0.00074305921           
       0.313433             0.00799421729             0.00068721759           
       0.314112             0.00912615207            0.000734091917           
       0.314792             0.00900410901            0.000734316104           
       0.315471             0.00836863403            0.000699174747           
       0.316150              0.0106776542            0.000797071421           
       0.316829             0.00888342592            0.000731826309           
       0.317508             0.00915712916            0.000734677242           
       0.318187             0.00946854689            0.000756920345           
       0.318866             0.00891341867            0.000724503492           
       0.319546             0.00894813367            0.000736794207           
       0.320225                0.00852648            0.000719239201           
       0.320904             0.00695610197            0.000639593265           
       0.321583             0.00882365143            0.000736225274           
       0.322262             0.00902239335            0.000733187236           
       0.322941             0.00706619248            0.000657166532           
       0.323621             0.00661359635            0.000631892255           
       0.324300              0.0090947464            0.000741582961           
       0.324979             0.00852343218            0.000719210709           
       0.325658             0.00778260501            0.000688491454           
       0.326337             0.00663215912            0.000636399792           
       0.327016             0.00787370951            0.000689011211           
       0.327696             0.00738464475            0.000674690907           
       0.328375             0.00761537718            0.000679368607           
       0.329054             0.00733179901            0.000670215032           
       0.329733             0.00756026041            0.000683062441           
       0.330412             0.00756561594            0.000677705643           
       0.331091             0.00678759221            0.000653557942           
       0.331771             0.00796738542            0.000689528858           
       0.332450             0.00699667839            0.000658705968           
       0.333129             0.00676510309            0.000646042005           
       0.333808              0.0074651637            0.000679542845           
       0.334487             0.00789895656            0.000702322046           
       0.335166             0.00773067089            0.000684631748           
       0.335846             0.00732170987            0.000677985427           
       0.336525             0.00661620983            0.000638130667           
       0.337204             0.00641025177            0.000629766561           
       0.337883             0.00755463018            0.000684579599           
       0.338562             0.00670998351            0.000648756101           
       0.339241             0.00760964874            0.000692175259           
       0.339921             0.00794164019             0.00069525486           
       0.340600             0.00744417105            0.000685910143           
       0.341279             0.00635775041            0.000627097616           
       0.341958             0.00672980525            0.000654288048           
       0.342637             0.00678459897            0.000647665452           
       0.343316             0.00781376036            0.000697066566           
       0.343995             0.00642849633            0.000642617462           
       0.344675             0.00683829093            0.000650602928           
       0.345354             0.00601130849            0.000614019318           
       0.346033             0.00592293571            0.000607900427           
       0.346712             0.00542052949            0.000585257708           
       0.347391             0.00633272172            0.000636505642           
       0.348070             0.00559540539            0.000589808464           
       0.348750             0.00723134419             0.00068019771           
       0.349429             0.00553808102            0.000587573413           
       0.350108             0.00631270355             0.00063487036           
       0.350787             0.00784435472            0.000695687834           
       0.351466             0.00460417139            0.000542798911           
       0.352145             0.00679617775            0.000660018078           
       0.352825             0.00589958173             0.00061215649           
       0.353504             0.00628212973            0.000631536968           
       0.354183             0.00662331771            0.000640988919           
       0.354862             0.00668964231            0.000659159559           
       0.355541             0.00725506099            0.000677461064           
       0.356220             0.00538390535            0.000584698633           
       0.356900             0.00562358757            0.000603247801           
       0.357579             0.00573464588            0.000601705699           
       0.358258             0.00578157223             0.00061252326           
       0.358937             0.00617856179            0.000621299034           
       0.359616             0.00590275998            0.000615753951           
       0.360295             0.00469669795            0.000549715025           
       0.360975             0.00536456967             0.00058498857           
       0.361654             0.00594254758            0.000618870129           
       0.362333             0.00502378053            0.000566127951           
       0.363012             0.00510557128            0.000578060863           
       0.363691             0.00666137445             0.00064726099           
       0.364370             0.00497325199             0.00056620312           
       0.365050             0.00496664145            0.000562798935           
       0.365729             0.00720767449            0.000684448591           
       0.366408             0.00659691243            0.000656257323           
       0.367087             0.00535240262            0.000581642556           
       0.367766             0.00415995995            0.000523458535           
       0.368445             0.00432200996            0.000524083647           
       0.369124             0.00619254206            0.000632252519           
       0.369804             0.00398939756            0.000506657261           
       0.370483             0.00474184626            0.000554792286           
       0.371162             0.00493638474            0.000569340157           
       0.371841             0.00569897216            0.000601072191           
       0.372520             0.00594288404            0.000626103549           
       0.373199             0.00605667829            0.000624517872           
       0.373879             0.00488563959            0.000567397796           
       0.374558             0.00402844193            0.000507704974           
       0.375237             0.00558527932            0.000598792921           
       0.375916             0.00541163914            0.000600703094           
       0.376595             0.00442966766             0.00053285482           
       0.377274             0.00464017677             0.00055409888           
       0.377954             0.00442262987            0.000532456108           
       0.378633             0.00454592477            0.000546648979           
       0.379312             0.00518900411            0.000583888302           
       0.379991             0.00422477777            0.000524126405           
       0.380670             0.00512316448            0.000587370659           
       0.381349             0.00426341966            0.000528130434           
       0.382029             0.00478838478            0.000567721314           
       0.382708             0.00488134177            0.000560688123           
       0.383387             0.00445868403            0.000548008555           
       0.384066             0.00443533544            0.000541556783           
       0.384745             0.00507516855            0.000581580582           
       0.385424             0.00437453151             0.00054178002           
       0.386104             0.00328485344            0.000464289757           
       0.386783             0.00453747896             0.00055748348           
       0.387462             0.00507685573             0.00057501814           
       0.388141             0.00478503054            0.000567163269           
       0.388820             0.00371890271            0.000496389249           
       0.389499             0.00450062685            0.000549148086           
       0.390178             0.00434661352            0.000541819341           
       0.390858             0.00465047508            0.000555903209           
       0.391537             0.00516982026            0.000592107365           
       0.392216             0.00543338376            0.000599404502           
       0.392895             0.00354024686            0.000485469795           
       0.393574             0.00404511804            0.000517646392           
       0.394253             0.00508625584            0.000583063808           
       0.394933             0.00500274804            0.000584865418           
       0.395612             0.00423955325            0.000522768833           
       0.396291             0.00417411633            0.000529279143           
       0.396970             0.00383060156            0.000502540463           
       0.397649             0.00445747754            0.000543772452           
       0.398328             0.00447667296            0.000542546721           
       0.399008             0.00399718858            0.000511554496           
       0.399687             0.00403541389            0.000515993595           
       0.400366             0.00321435038            0.000458756894           
       0.401045             0.00437435141            0.000534159466           
       0.401724             0.00419382129            0.000523893937           
       0.402403             0.00452850641            0.000548640299           
       0.403083             0.00438791335            0.000532269128           
       0.403762             0.00482611677            0.000560967217           
       0.404441             0.00430624095            0.000533267351           
       0.405120               0.004667384            0.000553357877           
       0.405799             0.00409867869            0.000516298005           
       0.406478             0.00312163289            0.000450588737           
       0.407158             0.00426829566            0.000525897166           
       0.407837             0.00389087313            0.000506539767           
       0.408516             0.00327205698            0.000460474727           
       0.409195             0.00375963346            0.000499191295           
       0.409874             0.00394784889            0.000518651094           
       0.410553             0.00349088937            0.000492956963           
       0.411233             0.00345922595            0.000488173557           
       0.411912             0.00285867274            0.000450067233           
       0.412591             0.00368388136            0.000514295598           
       0.413270             0.00322663818             0.00047903469           
       0.413949             0.00337715158            0.000495432821           
       0.414628             0.00292594233            0.000460322205           
       0.415307             0.00367338702            0.000521514757           
       0.415987             0.00295501873            0.000463895033           
       0.416666             0.00356072943            0.000506160485           
       0.417345              0.0027969915            0.000456096593           
       0.418024             0.00405188979            0.000548973183           
       0.418703             0.00352464205            0.000511071008           
       0.419382             0.00253655706            0.000431432259           
       0.420062             0.00344589699            0.000504262344           
       0.420741             0.00339799174              0.0005034079           
       0.421420             0.00267961288            0.000448733862           
       0.422099             0.00305880926            0.000479446663           
       0.422778             0.00323810717            0.000495969769           
       0.423457             0.00381320299            0.000541507735           
       0.424137             0.00183628251            0.000369652452           
       0.424816             0.00207300449            0.000400965363           
       0.425495              0.0028460003            0.000469367662           
       0.426174             0.00268823536            0.000456332478           
       0.426853             0.00280572361            0.000463365951           
       0.427532             0.00177670193            0.000371847923           
       0.428212              0.0021168373            0.000408563211           
       0.428891             0.00328795149            0.000508029921           
       0.429570             0.00298039728            0.000484016887           
       0.430249             0.00254787696            0.000445196714           
       0.430928             0.00291570534             0.00048666383           
       0.431607             0.00211199812            0.000407077364           
       0.432287             0.00230339396            0.000428236298           
       0.432966             0.00242787147            0.000443522413           
       0.433645             0.00275074639            0.000472586478           
       0.434324              0.0020086142            0.000401401013           
       0.435003             0.00168980379             0.00036879877           
       0.435682             0.00229772192            0.000433578207           
       0.436361             0.00188470365            0.000392155777           
       0.437041             0.00212417444            0.000415769094           
       0.437720             0.00231497064            0.000436133649           
       0.438399             0.00241849138            0.000448104707           
       0.439078             0.00197526609            0.000416710655           
       0.439757             0.00158901836            0.000371451855           
       0.440436             0.00167559679            0.000390033301           
       0.441116             0.00435575287            0.000639135117           
       0.441795             0.00184194527            0.000416123599           
       0.442474              0.0040096495            0.000615667895           
       0.443153             0.00185292682            0.000428290044           
       0.443832             0.00314524821            0.000558943266           
       0.444511             0.00135570907            0.000365310574           
       0.445191             0.00216043643            0.000472374831           
       0.445870             0.00184349446            0.000436363867           
       0.446549               0.001892022            0.000446731576           
       0.447228             0.00207062415            0.000464700575           
       0.447907             0.00234574752            0.000500545356           
       0.448586             0.00213421423            0.000488931101           
       0.449266             0.00241294988            0.000515097667           
       0.449945             0.00315085215              0.0005862116           
       0.450624             0.00230467688            0.000509316786           
       0.451303             0.00210428252            0.000492979054           
       0.451982             0.00253619695            0.000537866917           
       0.452661              0.0022725454            0.000518628199           
       0.453341             0.00241978906            0.000537041557           
       0.454020             0.00375863853            0.000670340929           
       0.454699             0.00174416914            0.000460811455           
       0.455378              0.0025971467            0.000562613579           
       0.456057             0.00220369772            0.000527465209           
       0.456736             0.00168058241             0.00045918884           
       0.457416             0.00118378779            0.000385399083           
       0.458095             0.00225793561            0.000539969966           
       0.458774             0.00127268348            0.000410748472           
       0.459453             0.00168614522            0.000475168998           
       0.460132             0.00197809744            0.000503550045           
       0.460811             0.00161215541            0.000471553143           
       0.461490             0.00129634431            0.000418550422           
       0.462170             0.00119255895            0.000407711095           
       0.462849             0.00191881559            0.000520519399           
       0.463528             0.00178421973            0.000500767569           
       0.464207             0.00142721287              0.0004562548           
       0.464886             0.00154855376            0.000471553836           
       0.465565            0.000851484824            0.000353509721           
       0.466245             0.00100761245            0.000385749385           
       0.466924             0.00136863108            0.000460194293           
       0.467603            0.000561490873            0.000288508447           
       0.468282             0.00246875153            0.000619304363           
       0.468961             0.00267012927            0.000648298874           
       0.469640             0.00141063698            0.000473092271           
       0.470320            0.000790449441            0.000354385004           
       0.470999             0.00128210214            0.000455592579           
       0.471678             0.00249490812            0.000641648434           
       0.472357            0.000833828308            0.000371979422           
       0.473036             0.00186259633             0.00055946467           
       0.473715             0.00121557598            0.000455500175           
       0.474395             0.00125340102            0.000468926445           
       0.475074            0.000711551735            0.000353325997           
       0.475753            0.000690930316            0.000345164245           
       0.476432            0.000792724486             0.00038317725           
       0.477111            0.000925820657            0.000409089318           
       0.477790               3.60682e-05            8.11766622e-05           
       0.478470            0.000241765409            0.000212947058           
       0.479149            0.000623187855            0.000345424391           
       0.479828             0.00101779313            0.000440402421           
       0.480507             0.00100962244            0.000442167473           
       0.481186            0.000479588707            0.000311618382           
       0.481865            0.000274938675            0.000233020941           
       0.482545             0.00106240981            0.000463441254           
       0.483224           -0.000320786622                         0           
       0.483903            0.000715500241            0.000388954288           
       0.484582            0.000540852751            0.000343667782           
       0.485261           -0.000113210345                         0           
       0.485940            0.000351333251            0.000280859764           
       0.486619             0.00011132228            0.000156356921           
       0.487299            0.000336331596            0.000276107826           
       0.487978             0.00076390172            0.000411875702           
       0.488657              0.0008751065             0.00045902812           
       0.489336           -9.46463179e-05                         0           
       0.490015           -8.50032554e-05                         0           
       0.490694           -9.08847855e-05                         0           
       0.491374           -0.000321018305                         0           
       0.492053           -0.000321037855                         0           
       0.492732            -0.00032105727                         0           
       0.493411           -6.11555037e-05                         0           
       0.494090           -0.000321096731                         0           
       0.494769           -7.05802851e-05                         0           
       0.495449            0.000205596078            0.000233330042           
       0.496128           -5.29925395e-05                         0           
       0.496807           -0.000321175106                         0           
       0.497486            -5.1811023e-05                         0           
       0.498165            0.000825188903            0.000484914348           
       0.498844            0.000251709466            0.000268143089           
       0.499524           -0.000321254288                         0           
       0.500203           -0.000321274387                         0           
       0.500882           -2.24249662e-05                         0           
       0.501561           -0.000321313856                         0           
       0.502240           -2.89960443e-05                         0           
       0.502919           -0.000321353825                         0           
       0.503599           -1.85209177e-05                         0           
       0.504278           -3.16942408e-06                         0           
       0.504957           -0.000321414211                         0           
       0.505636           -0.000321434145                         0           
       0.506315           -0.000321454408                         0           
       0.506994            0.000372024705            0.000356138121           
       0.507673            0.000377467872            0.000362880632           
       0.508353           -0.000321514447                         0           
       0.509032            5.02521041e-05            0.000135593806           
       0.509711            -0.00032155484                         0           
       0.510390           -0.000321575357                         0           
       0.511069           -0.000321595808                         0           
       0.511748           -0.000321616175                         0           
       0.512428           -0.000321636688                         0           
       0.513107           -0.000321656885                         0           
       0.513786           -0.000321677145                         0           
       0.514465           -0.000321697751                         0           
       0.515144            0.000103889006             0.00020916378           
       0.515823           -0.000321738748                         0           
       0.516503            0.000526825651            0.000471871122           
       0.517182            0.000536839741            0.000478030253           
       0.517861           -0.000321800481                         0           
       0.518540            -0.00032182114                         0           
       0.519219            0.000110788882            0.000220317846           
       0.519898           -0.000321862428                         0           
       0.520578           -0.000321883301                         0           
       0.521257           -0.000321903904                         0           
       0.521936           -0.000321924556                         0           
       0.522615             0.00111829337            0.000735726064           
       0.523294           -0.000321966433                         0           
       0.523973            0.000161462564            0.000281277121           
       0.524653            0.000196954442            0.000320595034           
       0.525332           -0.000322028495                         0           
       0.526011              0.0002027029            0.000324559431           
       0.526690           -0.000322070878                         0           
       0.527369           -0.000322091875                         0           
       0.528048           -0.000322113021                         0           
       0.528728           -0.000322134142                         0           
       0.529407           -0.000322155166                         0           
       0.530086           -0.000322176081                         0           
       0.530765           -0.000322197025                         0           
       0.531444            0.000188831653             0.00031401705           
       0.532123           -0.000322239741                         0           
       0.532802            0.000235466316            0.000358524631           
       0.533482           -0.000322282407                         0           
       0.534161            0.000262281472            0.000387277298           
       0.534840           -0.000322324885                         0           
       0.535519           -0.000322346425                         0           
       0.536198            0.000250101506            0.000385596171           
       0.536877            0.000319890381            0.000454377195           
       0.537557           -0.000322410148                         0           
       0.538236             0.00033299896            0.000466123767           
       0.538915            0.000289840904            0.000418258754           
       0.539594            0.000982121962            0.000802728171           
       0.540273            0.000294896943            0.000428394322           
       0.540952           -0.000322518344                         0           
       0.541632           -0.000322539582                         0           
       0.542311             0.00160991871             0.00101689422           
       0.542990           -0.000322582687                         0           
       0.543669           -0.000322604541                         0           
       0.544348            0.000436301686             0.00057033846           
       0.545027           -0.000322648149                         0           
       0.545707           -0.000322669996                         0           
       0.546386            0.000400368946            0.000536557631           
       0.547065           -0.000322713548                         0           
       0.547744           -0.000322735292                         0           
       0.548423           -0.000322757274                         0           
       0.549102            -0.00032277928                         0           
       0.549782            0.000420982553            0.000558666448           
       0.550461           -0.000322823328                         0           
       0.551140           -0.000322845616                         0           
       0.551819            -0.00032286764                         0           
       0.552498           -0.000322889852                         0           
       0.553177           -0.000322911684                         0           
       0.553856           -0.000322933593                         0           
       0.554536           -0.000322955574                         0           
       0.555215           -0.000322977891                         0           
       0.555894           -0.000323000155                         0           
       0.556573            0.000609034601            0.000767589789           
       0.557252           -0.000323044929                         0           
       0.557931           -0.000323067206                         0           
       0.558611           -0.000323090003                         0           
       0.559290            0.000668198307            0.000810631753           
       0.559969           -0.000323133891                         0           
       0.560648           -0.000323156137                         0           
       0.561327           -0.000323178878                         0           
       0.562006           -0.000323201513                         0           
       0.562686           -0.000323224162                         0           
       0.563365           -0.000323246893                         0           
       0.564044           -0.000323269511                         0           
       0.564723           -0.000323292078                         0           
       0.565402           -0.000323314224                         0           
       0.566081           -0.000323336518                         0           
       0.566761           -0.000323359052                         0           
       0.567440           -0.000323382044                         0           
       0.568119            0.000823037291            0.000983583425           
       0.568798           -0.000323427985                         0           
       0.569477           -0.000323450967                         0           
       0.570156           -0.000323474061                         0           
       0.570836           -0.000323497068                         0           
       0.571515           -0.000323519589                         0           
       0.572194           -0.000323542762                         0           
       0.572873           -0.000323565405                         0           
       0.573552           -0.000323587915                         0           
       0.574231           -0.000323610882                         0           
       0.574911             0.00144721409             0.00161771919           
       0.575590           -0.000323657519                         0           
       0.576269           -0.000323680541                         0           
       0.576948           -0.000323704005                         0           
       0.577627           -0.000323726753                         0           
       0.578306           -0.000323749822                         0           
       0.578985           -0.000323773089                         0           
       0.579665           -0.000323796222                         0           
       0.580344           -0.000323819704                         0           
       0.581023           -0.000323843161                         0           
       0.581702           -0.000323866401                         0           
       0.582381            -0.00032388943                         0           
       0.583060           -0.000323913146                         0           
       0.583740            -0.00032393649                         0           
       0.584419           -0.000323959911                         0           
       0.585098           -0.000323983304                         0           
       0.585777           -0.000324006879                         0           
       0.586456           -0.000324030838                         0           
       0.587135            -0.00032405416                         0           
       0.587815            -0.00032407723                         0           
       0.588494           -0.000324101019                         0           
       0.589173           -0.000324125354                         0           
       0.589852           -0.000324148396                         0           
       0.590531           -0.000324172307                         0           
       0.591210             0.00633297332             0.00653458437           
       0.591890           -0.000324219477                         0           
       0.592569           -0.000324242491                         0           
       0.593248           -0.000324267652                         0           
       0.593927           -0.000324291574                         0           
       0.594606           -0.000324315988                         0           
       0.595285           -0.000324338947                         0           
       0.595965           -0.000324360372                         0           
       0.596644           -0.000324382419                         0           
