################################################################################
# EDF_DataBlockID                     0.Image.Psd
# EDF_BinarySize                      2105344
# EDF_HeaderSize                      2560
# ByteOrder                           LowByteFirst
# DataType                            FloatValue
# Dim_1                               512
# Dim_2                               1028
# Image                               0
# HeaderID                            EH:000000:000000:000000
# Size                                2105344
# Center_1                            304.9000
# Center_2                            588.7000
# Comment                             Xenocs_Cell_Window - 20251028_20perc_iodine_1.23mg
# DDummy                              0.6
# Date                                2025-10-31T17:29:27
# Delta                               21.910000
# Dummy                               -1.5
# ExposureTime                        360
# Gamma                               15.360000
# Intensity1                          8.58372e-10
# PSize_1                             7.5e-05
# PSize_2                             7.5e-05
# Pressure                            0.0326872
# SampleDistance                      0.115750
# SampleEnvKind                       large
# SampleEnvPN                         ElectroChemical cell
# SampleEnvSN                         1141
# Thickness                           0
# Wavelength                          1.541891e-10
# Wavelength                          1.54189e-10
# aux                                 0
# aux_dial                            0.002375
# beamx                               588.434
# beamx_dial                          588.434
# beamz                               657.808
# beamz_dial                          657.808
# det0x                               0
# det0x_dial                          6.36945
# det0xvd                             0
# det0xvd_dial                        0
# det0y                               450.002
# det0y_dial                          481.635
# det0z                               0
# det0z_dial                          1.23302
# det0zvd                             0
# det0zvd_dial                        0
# mag                                 1.818
# mag_dial                            1.818
# om                                  0.2499
# om_dial                             -0.610199
# phi                                 -0.0120535
# phi_dial                            0
# ry                                  0.599993
# ry_dial                             0.599993
# s1bot                               0.8
# s1bot_dial                          -1.66094
# s1hl                                0.8
# s1hl_dial                           -0.608437
# s1hr                                0.8
# s1hr_dial                           0.970938
# s1top                               0.8
# s1top_dial                          -0.461562
# s2bot                               0.45
# s2bot_dial                          1.36109
# s2hl                                0.45
# s2hl_dial                           -0.83375
# s2hr                                0.45
# s2hr_dial                           -0.118594
# s2top                               0.45
# s2top_dial                          1.44734
# w2theta                             32
# w2theta_dial                        32
# waxsch                              19.2605
# waxsch_dial                         -32.7355
# waxsh                               137.085
# waxsh_dial                          -43.5338
# waxsth                              26.0607
# waxsth_dial                         -19.4086
# waxsz                               67.0407
# waxsz_dial                          -23.7954
# wind                                65.9854
# wind_dial                           66.0041
# wpsi                                124
# wpsi_dial                           124
# wstod                               115
# wstod_dial                          115
# x                                   0
# x_dial                              1.00969
# z                                   0
# z_dial                              13.3172
# CountCutoff                         6807993
# DetectorModel                       Dectris EIGER2 Si 500K, S/N E-01-0554
# ThresholdSetting                    4023.88989258
# Saturation                          0
# FlatField                           Corrected
# BackgroundReductionExtra            0.02
# BackgroundCorrectionConstant        0.0026712
# Detector                            0
# Monitor                             0
# Pil_Roi0                            0
# SumForIntensity1                    3.09014e+08
# TransmittedFlux                     858372
# det                                 0
# mon                                 0
# pilai0                              3.09014e+08
# pilai1                              776867
# pilct0                              5.34593e+08
# pilct1                              776867
# pilroi0                             0
# pilroi1                             0
# sec                                 1
# title                               20251028_20perc_iodine_1.23mg_1_00683.edf
# usaxs0                              0
# Operation                           Azimuthal average I(q)
# Error_model                         ErrorModel.poisson
# Geometrical_correction              True
# Transmission_correction             True
# Thickness_correction                False
# Binning mode                        Uniform
# Binning factor                      1.0
# Psi                                 0.0
# Omega                               0.2499
# MaskInvalidPixels                   True
# DetectorEdge                        3
# MaskFiles                           ['WAXS_corrected.edf']
################################################################################
    q(A⁻¹)                Intensity(a.u.)            Sigma_I(a.u.)            
       0.693100              0.0041101717             0.00426585687           
       0.695741             0.00560208476             0.00406404823           
       0.698381             0.00415586484             0.00428773149           
       0.701021           -2.36159019e-05                         0           
       0.703662             0.00565148232             0.00408008967           
       0.706302             0.00171161708             0.00173839707           
       0.708942             0.00279762486              0.0028685437           
       0.711583              0.0087777624              0.0043999165           
       0.714223              0.0146762429              0.0065684045           
       0.716864              0.0036392107             0.00214006433           
       0.719504              0.0132010113             0.00439839961           
       0.722144             0.00500097252             0.00250706235           
       0.724785             0.00394217279             0.00177556728           
       0.727425             0.00733931928             0.00327745881           
       0.730065              0.0107781063             0.00280945319           
       0.732706             0.00713591897             0.00191965979           
       0.735346             0.00694712209              0.0024690273           
       0.737987             0.00831796939              0.0019091021           
       0.740627             0.00676747744             0.00256933296           
       0.743267             0.00739102446              0.0017984628           
       0.745908              0.0062122676             0.00178888714           
       0.748548             0.00519987709              0.0015085817           
       0.751189             0.00637620282             0.00225097093           
       0.753829               0.004031387             0.00164528515           
       0.756469             0.00780606498             0.00184613459           
       0.759110             0.00526981931             0.00159851117           
       0.761750             0.00944014235             0.00189176745           
       0.764390             0.00702134227             0.00170763094           
       0.767031             0.00526263928             0.00128022088           
       0.769671             0.00532594369             0.00160655659           
       0.772312             0.00501415485             0.00118671919           
       0.774952             0.00405365663             0.00144089485           
       0.777592             0.00894450464             0.00155899294           
       0.780233             0.00393235242             0.00124714224           
       0.782873               0.007962426             0.00169728631           
       0.785513             0.00788921995             0.00180614749           
       0.788154             0.00488766856             0.00118924387           
       0.790794             0.00953559917             0.00198588035           
       0.793435             0.00667062594             0.00149215039           
       0.796075               0.011475246             0.00188528264           
       0.798715             0.00559699477             0.00155591426           
       0.801356             0.00636864541              0.0014284586           
       0.803996               0.008322526             0.00166480902           
       0.806637             0.00632844113             0.00115530707           
       0.809277              0.0066920262             0.00128590596           
       0.811917             0.00886422467             0.00138352949           
       0.814558             0.00836537711             0.00139688503           
       0.817198             0.00715420323             0.00122727977           
       0.819838             0.00690872054             0.00122060168           
       0.822479             0.00415516967             0.00111157464           
       0.825119             0.00643816046             0.00117765714           
       0.827760             0.00710182409             0.00125289814           
       0.830400             0.00817035026             0.00126481309           
       0.833040             0.00943621193             0.00142409354           
       0.835681             0.00610287298             0.00130197285           
       0.838321             0.00841292359             0.00128304519           
       0.840961              0.0071526873             0.00128898864           
       0.843602             0.00876257899              0.0013083355           
       0.846242             0.00523307493             0.00101092014           
       0.848883             0.00881675504             0.00134282536           
       0.851523              0.0075643112             0.00122834768           
       0.854163             0.00698536714             0.00125530832           
       0.856804             0.00948532367             0.00131524846           
       0.859444              0.0061251358             0.00103557136           
       0.862085             0.00475036966            0.000950512661           
       0.864725             0.00596093904              0.0010896715           
       0.867365             0.00685436145              0.0010835218           
       0.870006             0.00605022631            0.000970058321           
       0.872646             0.00699560956             0.00109383186           
       0.875286              0.0074069812             0.00108283284           
       0.877927             0.00896775797               0.001149712           
       0.880567              0.0077569406             0.00110779814           
       0.883208             0.00929524701              0.0012012545           
       0.885848             0.00614845755             0.00101440384           
       0.888488             0.00644796847            0.000974346678           
       0.891129             0.00851313492               0.001149553           
       0.893769             0.00724357132             0.00101480909           
       0.896410             0.00689140697            0.000922871201           
       0.899050             0.00791486977             0.00108766303           
       0.901690             0.00815260872             0.00120244307           
       0.904331             0.00739501194             0.00101529296           
       0.906971             0.00837319802             0.00114932276           
       0.909611             0.00796925736             0.00102070294           
       0.912252             0.00891011539             0.00111477769           
       0.914892             0.00831936404              0.0011771373           
       0.917533             0.00726806222             0.00104083248           
       0.920173              0.0091231072             0.00108192925           
       0.922813             0.00815150719             0.00107320393           
       0.925454             0.00869729429            0.000998218948           
       0.928094             0.00858010781              0.0010584791           
       0.930734             0.00709359965             0.00103616256           
       0.933375             0.00828197479             0.00110859011           
       0.936015             0.00857581266             0.00102454213           
       0.938656             0.00790813159             0.00105543915           
       0.941296             0.00717423964             0.00091105452           
       0.943936             0.00789789019            0.000937407062           
       0.946577             0.00688988423            0.000869756961           
       0.949217             0.00899819355            0.000914037859           
       0.951858             0.00620409355            0.000794492089           
       0.954498             0.00803936682              0.0010468289           
       0.957138             0.00832104039               0.001008951           
       0.959779             0.00712979757            0.000920674762           
       0.962419             0.00867193821             0.00100861934           
       0.965059             0.00699732087            0.000952890089           
       0.967700             0.00788198177             0.00103580675           
       0.970340             0.00798706023            0.000922675962           
       0.972981             0.00652414859            0.000759769341           
       0.975621             0.00782363092            0.000885106049           
       0.978261             0.00766185894            0.000832266085           
       0.980902             0.00734557023            0.000974995196           
       0.983542             0.00708447599            0.000847938026           
       0.986182             0.00764378095            0.000864738256           
       0.988823             0.00710303525            0.000809417419           
       0.991463             0.00734937495            0.000878410895           
       0.994104             0.00758548315             0.00087055911           
       0.996744             0.00884449905            0.000958826498           
       0.999384             0.00764879564            0.000797443515           
       1.002025             0.00755304997            0.000884464049           
       1.004665             0.00762541764            0.000812153695           
       1.007306             0.00889847584            0.000872841832           
       1.009946             0.00802034211            0.000845113005           
       1.012586             0.00742078261            0.000791727791           
       1.015227             0.00731175014            0.000844291787           
       1.017867             0.00730129057            0.000810842209           
       1.020507             0.00777175455            0.000810320134           
       1.023148             0.00816874827            0.000896411249           
       1.025788             0.00726510424            0.000775144116           
       1.028429              0.0082603502            0.000865930371           
       1.031069             0.00789001418            0.000796397702           
       1.033709             0.00852324687            0.000879889047           
       1.036350             0.00922132552            0.000821986153           
       1.038990              0.0086676321            0.000811570736           
       1.041630             0.00835849394            0.000831244293           
       1.044271             0.00781047519             0.00075569303           
       1.046911             0.00996338616            0.000897784395           
       1.049552             0.00858270532             0.00087544563           
       1.052192             0.00767649183            0.000756013491           
       1.054832             0.00887274656            0.000820181632           
       1.057473              0.0077468535            0.000755488025           
       1.060113              0.0095429594            0.000817771879           
       1.062754              0.0089798857            0.000809924023           
       1.065394             0.00856963556            0.000836510196           
       1.068034             0.00763526614            0.000718419478           
       1.070675             0.00966010356            0.000842931654           
       1.073315             0.00900068424            0.000825315653           
       1.075955             0.00923594249            0.000789262054           
       1.078596             0.00937298188             0.00084502918           
       1.081236             0.00790183441            0.000742959537           
       1.083877             0.00816865754            0.000748622834           
       1.086517             0.00930889284            0.000856939316           
       1.089157              0.0085907931            0.000854186457           
       1.091798             0.00860696796            0.000749584013           
       1.094438             0.00804201229            0.000722226814           
       1.097078             0.00691509543             0.00064232741           
       1.099719             0.00844081662            0.000767604504           
       1.102359             0.00981115925            0.000775030462           
       1.105000             0.00736098439            0.000750661354           
       1.107640             0.00880194404            0.000784868986           
       1.110280               0.010238495            0.000772364847           
       1.112921             0.00920309707            0.000786616674           
       1.115561             0.00797115184            0.000695777775           
       1.118202             0.00949683356            0.000760166023           
       1.120842             0.00920179389            0.000786431106           
       1.123482             0.00840155991            0.000748175372           
       1.126123             0.00849937192            0.000721790792           
       1.128763             0.00924559932            0.000757971635           
       1.131403             0.00788374794            0.000674438118           
       1.134044             0.00892856498            0.000738555229           
       1.136684             0.00854254487            0.000770217923           
       1.139325             0.00919537638            0.000736136141           
       1.141965             0.00919104915            0.000740828278           
       1.144605              0.0073729059             0.00063266877           
       1.147246             0.00873867651            0.000704905703           
       1.149886              0.0092149663            0.000721291151           
       1.152527             0.00969191072            0.000750478858           
       1.155167             0.00962646609            0.000711405583           
       1.157807             0.00930582302            0.000749942868           
       1.160448             0.00859225965            0.000703700914           
       1.163088              0.0101628463            0.000730001039           
       1.165728             0.00968660026            0.000731733681           
       1.168369              0.0103445376            0.000763162012           
       1.171009             0.00947157797            0.000708689133           
       1.173650              0.0101018309            0.000751091639           
       1.176290             0.00916848774             0.00069925568           
       1.178930             0.00824733028             0.00064999537           
       1.181571             0.00941749547            0.000708352149           
       1.184211              0.0102347738            0.000741067438           
       1.186851              0.0094798024            0.000697296464           
       1.189492             0.00869825458             0.00066344096           
       1.192132              0.0106732477              0.0007266649           
       1.194773             0.00938941274            0.000684539504           
       1.197413             0.00918059397            0.000648551365           
       1.200053              0.0094087931            0.000673244554           
       1.202694             0.00989130184            0.000656427855           
       1.205334             0.00985612059            0.000706164575           
       1.207975             0.00865085695            0.000631496944           
       1.210615              0.0109398631            0.000783411672           
       1.213255              0.0102928613            0.000680466237           
       1.215896             0.00876407866            0.000639278639           
       1.218536              0.0101473308            0.000661426496           
       1.221176              0.0100846982            0.000716883592           
       1.223817              0.0112187247            0.000709779743           
       1.226457             0.00961974114            0.000670495703           
       1.229098              0.0098958435            0.000680016667           
       1.231738              0.0102270915            0.000694706585           
       1.234378             0.00919674004            0.000619025524           
       1.237019             0.00928145986            0.000640831355           
       1.239659              0.0111301026            0.000695641484           
       1.242299             0.00955700572            0.000636419814           
       1.244940              0.0094855233            0.000616639051           
       1.247580              0.0103414344            0.000663549343           
       1.250221              0.0107882344            0.000673550192           
       1.252861             0.00959940971            0.000604861834           
       1.255501             0.00989463281            0.000666787028           
       1.258142             0.00978941192            0.000623225644           
       1.260782              0.0107197924            0.000666280224           
       1.263423              0.0106606182            0.000638450454           
       1.266063             0.00991721162            0.000631164432           
       1.268703               0.010917788            0.000656744161           
       1.271344             0.00990685497            0.000646802119           
       1.273984              0.0100326528            0.000628636872           
       1.276624              0.0105946637            0.000633868321           
       1.279265              0.0106097535            0.000644853434           
       1.281905              0.0112614396            0.000667311372           
       1.284546              0.0108557714            0.000633292754           
       1.287186              0.0109815887            0.000624917582           
       1.289826              0.0110564776            0.000660853848           
       1.292467             0.00970897619            0.000605635234           
       1.295107              0.0112083248            0.000644256922           
       1.297747               0.011185737            0.000615878842           
       1.300388              0.0103415092            0.000645552753           
       1.303028              0.0111167221            0.000638964731           
       1.305669                0.01003597            0.000621566995           
       1.308309               0.011210321            0.000650458084           
       1.310949              0.0114889725            0.000657830816           
       1.313590              0.0107542301            0.000616553857           
       1.316230              0.0112483834            0.000672895069           
       1.318871               0.011038066            0.000652828011           
       1.321511              0.0117814728            0.000661952419           
       1.324151              0.0110106824            0.000620960759           
       1.326792               0.010343296            0.000605568437           
       1.329432             0.00955030064            0.000577785555           
       1.332072              0.0106634844             0.00060143223           
       1.334713              0.0101262093            0.000604897847           
       1.337353              0.0112918174             0.00061258753           
       1.339994              0.0107782191             0.00062805973           
       1.342634              0.0103917481            0.000591373577           
       1.345274              0.0109744246            0.000628940275           
       1.347915              0.0113161919            0.000621021999           
       1.350555              0.0107941846            0.000617151912           
       1.353195             0.00987937101            0.000593320865           
       1.355836              0.0105240652            0.000602825171           
       1.358476              0.0118192534            0.000620414252           
       1.361117               0.011988308            0.000625693153           
       1.363757              0.0103483715            0.000599074754           
       1.366397              0.0116518186            0.000616448271           
       1.369038              0.0113174552            0.000613588419           
       1.371678              0.0116555484             0.00061719639           
       1.374319              0.0114886667            0.000607485609           
       1.376959              0.0105983628             0.00057760502           
       1.379599              0.0120598074            0.000660319071           
       1.382240              0.0110764208            0.000594760163           
       1.384880              0.0114628041            0.000640879998           
       1.387520              0.0113187412            0.000604826614           
       1.390161              0.0107140063            0.000558883837           
       1.392801              0.0102084914            0.000568399519           
       1.395442              0.0112219569            0.000604085686           
       1.398082              0.0116047104            0.000575266353           
       1.400722              0.0124077725            0.000623079186           
       1.403363              0.0117729343            0.000638867696           
       1.406003              0.0116723604            0.000595335028           
       1.408644              0.0107584471             0.00059873945           
       1.411284              0.0114743877             0.00058551379           
       1.413924              0.0113207845            0.000579425487           
       1.416565              0.0113586921             0.00057811492           
       1.419205              0.0118866891            0.000616923356           
       1.421845              0.0115335047            0.000607332225           
       1.424486              0.0119601485            0.000594485434           
       1.427126              0.0105772176            0.000580755534           
       1.429767              0.0111320154             0.00056056768           
       1.432407              0.0107795336            0.000577284728           
       1.435047              0.0108204289            0.000543193635           
       1.437688               0.011098006            0.000558342017           
       1.440328              0.0105594444            0.000555851963           
       1.442968              0.0122087761            0.000611079733           
       1.445609              0.0119464635             0.00058530368           
       1.448249              0.0112456356            0.000582254324           
       1.450890              0.0111858363            0.000576913941           
       1.453530              0.0119989779            0.000625121038           
       1.456170              0.0109056562            0.000578394198           
       1.458811              0.0111647751            0.000559604776           
       1.461451              0.0107840922            0.000551424413           
       1.464092              0.0109917562            0.000560348011           
       1.466732              0.0113187389             0.00056373524           
       1.469372              0.0111546439            0.000546536754           
       1.472013              0.0106132499            0.000574968312           
       1.474653              0.0115979171            0.000591776832           
       1.477293               0.011491069            0.000601459688           
       1.479934              0.0117765059            0.000581002501           
       1.482574                0.01086901            0.000539940127           
       1.485215              0.0104033581            0.000538086148           
       1.487855              0.0112744164            0.000567549409           
       1.490495              0.0105377354            0.000546673299           
       1.493136              0.0100278457            0.000525973718           
       1.495776              0.0119398295            0.000571317177           
       1.498416              0.0111266707            0.000569563604           
       1.501057              0.0107804076            0.000548275643           
       1.503697              0.0111487361            0.000545107059           
       1.506338              0.0112051302            0.000556470167           
       1.508978              0.0107781071            0.000540396536           
       1.511618              0.0112988581            0.000589258976           
       1.514259             0.00962961964            0.000525199981           
       1.516899              0.0111930599            0.000551322444           
       1.519540              0.0106412446            0.000546229216           
       1.522180              0.0099428384            0.000532638187           
       1.524820             0.00997880696            0.000530606985           
       1.527461              0.0104224959            0.000544956835           
       1.530101               0.010697882            0.000546587712           
       1.532741             0.00980564727             0.00052026113           
       1.535382              0.0103494175            0.000543096653           
       1.538022              0.0110592718            0.000528880737           
       1.540663              0.0113469556            0.000576195033           
       1.543303              0.0105533978            0.000515959397           
       1.545943              0.0106387881            0.000548309812           
       1.548584              0.0112748657            0.000574595657           
       1.551224              0.0111151336            0.000527491301           
       1.553864              0.0101812425            0.000533463434           
       1.556505               0.011289786            0.000542670091           
       1.559145              0.0104283188            0.000527944079           
       1.561786              0.0104727216            0.000529474317           
       1.564426             0.00999797235            0.000501242851           
       1.567066              0.0105225576            0.000538808689           
       1.569707              0.0108505697            0.000537313797           
       1.572347               0.010247221            0.000539444942           
       1.574988             0.00972699654            0.000500257845           
       1.577628             0.00940759578            0.000513009585           
       1.580268              0.0111004316            0.000539923374           
       1.582909             0.00967383396             0.00053425806           
       1.585549              0.0101787118            0.000532112072           
       1.588189             0.00992496082            0.000513969672           
       1.590830             0.00917802797            0.000493630917           
       1.593470             0.00995417113            0.000534434846           
       1.596111             0.00938142538            0.000506541064           
       1.598751              0.0103503289            0.000515544401           
       1.601391             0.00940757049            0.000502348723           
       1.604032               0.010055403            0.000530214627           
       1.606672             0.00895327398            0.000486102823           
       1.609312             0.00991393615            0.000533964162           
       1.611953             0.00905105867            0.000499260534           
       1.614593             0.00911395723            0.000491433757           
       1.617234             0.00945220325            0.000518675429           
       1.619874             0.00942646285            0.000515922606           
       1.622514              0.0087259108            0.000489610097           
       1.625155             0.00869479296            0.000491623515           
       1.627795             0.00810149591            0.000462926572           
       1.630436             0.00901433912            0.000485761134           
       1.633076             0.00940431257            0.000502664555           
       1.635716             0.00938573805            0.000494354597           
       1.638357             0.00940416901            0.000496144067           
       1.640997             0.00955070401            0.000515140413           
       1.643637             0.00976502661            0.000506883076           
       1.646278             0.00891699189            0.000499592432           
       1.648918             0.00956270378            0.000518776306           
       1.651559             0.00939898475            0.000518308113           
       1.654199             0.00858553542            0.000481792529           
       1.656839              0.0090636121            0.000495197673           
       1.659480              0.0094430396            0.000524437409           
       1.662120             0.00966809326            0.000499784887           
       1.664761             0.00853258666            0.000487708923           
       1.667401             0.00883168952            0.000474245104           
       1.670041              0.0086134412            0.000475489946           
       1.672682             0.00918544953            0.000489006347           
       1.675322             0.00949082578            0.000493872164           
       1.677962              0.0092494107            0.000482172163           
       1.680603              0.0092360951            0.000483307663           
       1.683243             0.00833703271              0.0004790712           
       1.685884              0.0094107501             0.00051274538           
       1.688524             0.00770879787            0.000455098908           
       1.691164              0.0096420585            0.000509091573           
       1.693805             0.00923275281            0.000503641505           
       1.696445             0.00886723184            0.000496434415           
       1.699085             0.00810450111             0.00045870049           
       1.701726             0.00815872904            0.000443353705           
       1.704366              0.0084612093             0.00047564019           
       1.707007              0.0088141326            0.000474637112           
       1.709647             0.00918076112            0.000489878392           
       1.712287             0.00917022832            0.000493858876           
       1.714928             0.00901577172            0.000493630223           
       1.717568             0.00882545545            0.000460067531           
       1.720209             0.00883542243             0.00048216086           
       1.722849             0.00869286362             0.00047579647           
       1.725489             0.00813382531            0.000460629473           
       1.728130             0.00782679164            0.000480192033           
       1.730770             0.00913714311            0.000492752689           
       1.733410              0.0085962365            0.000470432216           
       1.736051             0.00892571139            0.000482699349           
       1.738691             0.00869494476            0.000466760976           
       1.741332             0.00902211287            0.000489364191           
       1.743972             0.00790557413            0.000473049133           
       1.746612             0.00747809167            0.000441795698           
       1.749253             0.00759648141            0.000454072664           
       1.751893             0.00863469747            0.000480555026           
       1.754533             0.00897345256            0.000489433371           
       1.757174             0.00882738055            0.000480887633           
       1.759814             0.00851489345            0.000465140149           
       1.762455             0.00873246422            0.000479694634           
       1.765095             0.00830845165            0.000447606799           
       1.767735             0.00770741394            0.000444412675           
       1.770376              0.0087261154            0.000474117498           
       1.773016             0.00810048114            0.000453745266           
       1.775657             0.00878609817            0.000465758112           
       1.778297             0.00887222758            0.000464005247           
       1.780937             0.00862678466            0.000482935489           
       1.783578             0.00794025518            0.000451735895           
       1.786218             0.00814487407            0.000477471599           
       1.788858             0.00873138276             0.00046952655           
       1.791499             0.00835166605            0.000454046232           
       1.794139             0.00805871993            0.000442393426           
       1.796780             0.00834448031            0.000447998463           
       1.799420             0.00900637038            0.000462849798           
       1.802060             0.00932652071            0.000474808889           
       1.804701             0.00997989795            0.000471338478           
       1.807341             0.00823213737            0.000449820223           
       1.809981             0.00920246946               0.000477178           
       1.812622             0.00868881191            0.000455321829           
       1.815262             0.00838379078            0.000456759181           
       1.817903             0.00866961136            0.000457597718           
       1.820543             0.00821079291            0.000452263655           
       1.823183             0.00870496695            0.000465418759           
       1.825824             0.00840631801            0.000436948297           
       1.828464             0.00848368764            0.000457629015           
       1.831105             0.00841423508            0.000443151384           
       1.833745             0.00783725127            0.000436821727           
       1.836385             0.00760722773            0.000442645532           
       1.839026             0.00862827384            0.000469927145           
       1.841666             0.00771291327            0.000442726055           
       1.844306             0.00828794438            0.000446410773           
       1.846947             0.00783769874            0.000437921087           
       1.849587             0.00849273394            0.000503372818           
       1.852228             0.00790599279            0.000439168997           
       1.854868             0.00791869155            0.000464289521           
       1.857508             0.00778853545            0.000455941924           
       1.860149             0.00840855059            0.000482349558           
       1.862789             0.00795379671            0.000452814095           
       1.865429             0.00822719572            0.000480723614           
       1.868070             0.00801437887            0.000468141532           
       1.870710             0.00851471832            0.000471408794           
       1.873351             0.00771311652            0.000454217057           
       1.875991             0.00897466339            0.000497952754           
       1.878631             0.00790054244            0.000458257021           
       1.881272             0.00770557226             0.00044953492           
       1.883912             0.00780315374            0.000470788059           
       1.886553             0.00791588616            0.000468875308           
       1.889193             0.00796611579            0.000469556873           
       1.891833             0.00810314563            0.000491829445           
       1.894474             0.00808748466            0.000487074736           
       1.897114             0.00768891992            0.000459571313           
       1.899754             0.00881155215            0.000494037349           
       1.902395             0.00846030291            0.000474625919           
       1.905035              0.0078430516            0.000484022689           
       1.907676             0.00885784889            0.000484808285           
       1.910316             0.00779811816            0.000466962101           
       1.912956             0.00831282434            0.000471519688           
       1.915597             0.00756549732            0.000452339721           
       1.918237             0.00725542567            0.000457483512           
       1.920878             0.00782871188            0.000473268561           
       1.923518             0.00824481163            0.000485889036           
       1.926158             0.00821919341            0.000478838246           
       1.928799             0.00767485724            0.000457354529           
       1.931439             0.00841903095            0.000491578815           
       1.934079             0.00869443474            0.000520773163           
       1.936720             0.00811519411            0.000466161514           
       1.939360             0.00779982056            0.000487569941           
       1.942001             0.00817737616            0.000457570853           
       1.944641             0.00824219345            0.000468429492           
       1.947281              0.0075685066            0.000444740063           
       1.949922              0.0079309521            0.000470247994           
       1.952562             0.00824214153            0.000494411486           
       1.955202              0.0072931948            0.000464512828           
       1.957843             0.00791132449            0.000471251004           
       1.960483             0.00946843722            0.000539001931           
       1.963124             0.00864724407            0.000504530737           
       1.965764             0.00722283549            0.000434837736           
       1.968404             0.00784430817            0.000448877459           
       1.971045             0.00739629847             0.00044439311           
       1.973685             0.00775977049            0.000477451346           
       1.976326             0.00922822761            0.000513515563           
       1.978966             0.00773681696            0.000474318757           
       1.981606             0.00854048782             0.00050873874           
       1.984247              0.0078934478              0.0004858723           
       1.986887             0.00781375785            0.000477622735           
       1.989527             0.00796888394            0.000477146032           
       1.992168             0.00706682426              0.0004662172           
       1.994808             0.00744141275              0.0004763632           
       1.997449             0.00809788562            0.000486726027           
       2.000089              0.0074064548            0.000463637635           
       2.002729             0.00815978093            0.000486937294           
       2.005370             0.00737305709            0.000457888135           
       2.008010             0.00832193588            0.000507691487           
       2.010650              0.0079841256            0.000500991067           
       2.013291               0.007112629            0.000453681746           
       2.015931             0.00766019216            0.000467493068           
       2.018572             0.00763013359            0.000499046027           
       2.021212             0.00770514326             0.00049248283           
       2.023852             0.00771183414            0.000466314134           
       2.026493             0.00713232021            0.000468487026           
       2.029133             0.00660979391            0.000441923622           
       2.031774             0.00745356939            0.000492502742           
       2.034414             0.00788829502            0.000466199148           
       2.037054             0.00784707754            0.000476765279           
       2.039695             0.00736114333             0.00045827989           
       2.042335             0.00738814836            0.000477126203           
       2.044975             0.00775578118            0.000482924499           
       2.047616             0.00751012938            0.000474034572           
       2.050256             0.00780588817             0.00048785203           
       2.052897             0.00837198972            0.000514546775           
       2.055537             0.00755956393            0.000472545535           
       2.058177             0.00766728927            0.000466034976           
       2.060818             0.00739647556            0.000479508316           
       2.063458               0.007952747            0.000518145143           
       2.066098             0.00843753685            0.000503461924           
       2.068739             0.00811991947            0.000501572122           
       2.071379             0.00748665877             0.00049417743           
       2.074020             0.00707936681             0.00047010362           
       2.076660             0.00722622413            0.000478794114           
       2.079300             0.00754946899            0.000501376652           
       2.081941             0.00806277418            0.000474417322           
       2.084581             0.00738584143            0.000479270317           
       2.087222             0.00707921602            0.000452514312           
       2.089862             0.00699391156            0.000489878672           
       2.092502             0.00696831888            0.000473997806           
       2.095143             0.00634832351            0.000467191372           
       2.097783             0.00782561114            0.000502198357           
       2.100423             0.00729981084            0.000467374664           
       2.103064              0.0073160578            0.000485503407           
       2.105704             0.00705030068            0.000474243098           
       2.108345             0.00694109119             0.00045207824           
       2.110985             0.00756015796            0.000503924926           
       2.113625             0.00789295878            0.000519390178           
       2.116266             0.00725237826             0.00050493137           
       2.118906             0.00659890521            0.000448867208           
       2.121546             0.00777284821            0.000477859063           
       2.124187              0.0076358589            0.000497164625           
       2.126827             0.00751544547             0.00049873384           
       2.129468             0.00698148611            0.000481918203           
       2.132108             0.00761934192            0.000489820544           
       2.134748             0.00767558756            0.000489717737           
       2.137389             0.00751069135            0.000505379592           
       2.140029             0.00732103563            0.000446697668           
       2.142670             0.00693801252             0.00046473944           
       2.145310             0.00787907549            0.000482041399           
       2.147950              0.0074305334            0.000481822501           
       2.150591             0.00665487791            0.000451373224           
       2.153231             0.00753562443            0.000494408728           
       2.155871             0.00723544192            0.000468021777           
       2.158512             0.00701805472            0.000480955445           
       2.161152             0.00732859537             0.00047607928           
       2.163793             0.00744788112            0.000477777521           
       2.166433             0.00653884273            0.000459711833           
       2.169073             0.00711633044            0.000468905324           
       2.171714             0.00668653108            0.000451126969           
       2.174354             0.00717361881            0.000488253544           
       2.176995             0.00835045588            0.000524565939           
       2.179635             0.00744397085             0.00052336572           
       2.182275              0.0070073232            0.000479428674           
       2.184916             0.00836293047            0.000505878129           
       2.187556             0.00761560458            0.000477907696           
       2.190196             0.00730482462            0.000489110988           
       2.192837             0.00670339274            0.000465994173           
       2.195477             0.00715348157            0.000458942716           
       2.198118                0.00753449            0.000483075108           
       2.200758             0.00708075456            0.000480451072           
       2.203398             0.00749469456            0.000497457349           
       2.206039             0.00715062096            0.000459867303           
       2.208679             0.00697186748            0.000464650745           
       2.211319             0.00707212014            0.000470677932           
       2.213960             0.00707595582            0.000477113563           
       2.216600             0.00795035057            0.000523170779           
       2.219241             0.00782112988            0.000495929804           
       2.221881             0.00761361768            0.000490312552           
       2.224521             0.00685056662            0.000470793178           
       2.227162               0.006957269            0.000464945973           
       2.229802             0.00794032068            0.000512258066           
       2.232443             0.00669841259            0.000463074693           
       2.235083             0.00681435694            0.000480842379           
       2.237723             0.00787492007            0.000496048412           
       2.240364             0.00675714842             0.00047081709           
       2.243004             0.00836093064            0.000519537775           
       2.245644             0.00768428521            0.000503056757           
       2.248285             0.00651433515            0.000453901656           
       2.250925             0.00637534868            0.000451761143           
       2.253566             0.00756426035            0.000526076547           
       2.256206             0.00769992916            0.000520160455           
       2.258846             0.00703039511            0.000472814356           
       2.261487             0.00856388486            0.000547718015           
       2.264127             0.00731795621            0.000488986201           
       2.266767             0.00782457087            0.000519100329           
       2.269408             0.00663691423            0.000480041691           
       2.272048             0.00737330799            0.000502952437           
       2.274689             0.00763452705            0.000518527546           
       2.277329             0.00761998661             0.00048776195           
       2.279969             0.00701514742            0.000498163055           
       2.282610              0.0076380821            0.000505353419           
       2.285250             0.00661414403            0.000450104621           
       2.287891             0.00697551247            0.000495587858           
       2.290531             0.00800359846            0.000537990291           
       2.293171             0.00721533658             0.00049757593           
       2.295812             0.00734777172             0.00050010323           
       2.298452             0.00666241202            0.000497988036           
       2.301092             0.00708574637            0.000477165591           
       2.303733             0.00827872517            0.000536583412           
       2.306373             0.00602689283            0.000465037994           
       2.309014             0.00625082128            0.000464359582           
       2.311654             0.00732692026            0.000524636869           
       2.314294             0.00686042457            0.000467709706           
       2.316935             0.00717882985            0.000480416896           
       2.319575              0.0066385797             0.00048405464           
       2.322215             0.00770407362            0.000543444362           
       2.324856             0.00697215461             0.00047531457           
       2.327496             0.00655628281            0.000490103721           
       2.330137             0.00721620064            0.000492029846           
       2.332777             0.00691461859             0.00049662072           
       2.335417              0.0068245409            0.000478647852           
       2.338058             0.00644864572            0.000479178123           
       2.340698             0.00672537285            0.000485505956           
       2.343339             0.00777466311            0.000533495285           
       2.345979             0.00833099329            0.000522475389           
       2.348619             0.00661787385            0.000482690158           
       2.351260             0.00713019775            0.000498106585           
       2.353900             0.00754785387               0.000510864           
       2.356540             0.00603256531            0.000456065945           
       2.359181             0.00690764954            0.000481182808           
       2.361821             0.00722567912            0.000475389336           
       2.364462             0.00747022387            0.000505541299           
       2.367102             0.00740970076              0.0005174157           
       2.369742             0.00749900333            0.000547887817           
       2.372383             0.00748850359            0.000495763631           
       2.375023             0.00780700007            0.000532122329           
       2.377663             0.00683017689            0.000475893703           
       2.380304             0.00682029186            0.000483478421           
       2.382944             0.00671890794            0.000457062418           
       2.385585             0.00699164472            0.000497260224           
       2.388225             0.00722830842             0.00050323037           
       2.390865             0.00703100711            0.000491216594           
       2.393506             0.00696628074            0.000479725713           
       2.396146             0.00668482115            0.000508114476           
       2.398787             0.00596521558            0.000442345542           
       2.401427             0.00789090045            0.000491069455           
       2.404067             0.00738783278            0.000485756819           
       2.406708             0.00667423248            0.000456164692           
       2.409348             0.00684491981            0.000489999866           
       2.411988             0.00683470475            0.000479733105           
       2.414629             0.00763935608            0.000522982839           
       2.417269             0.00669379983            0.000495263767           
       2.419910              0.0077711852            0.000534872683           
       2.422550             0.00677721947            0.000477887579           
       2.425190              0.0075357946            0.000531187847           
       2.427831              0.0074471066            0.000525084478           
       2.430471             0.00723859138            0.000493191377           
       2.433112             0.00789629196            0.000501594427           
       2.435752             0.00713240711            0.000504513709           
       2.438392             0.00694166359            0.000480403275           
       2.441033             0.00586717675            0.000468071575           
       2.443673             0.00752426918            0.000530473376           
       2.446313             0.00691932436             0.00050915032           
       2.448954             0.00705144974            0.000489388879           
       2.451594             0.00738063164            0.000538349744           
       2.454235             0.00704738473            0.000493574564           
       2.456875              0.0072149135            0.000522558379           
       2.459515             0.00707991019            0.000531046801           
       2.462156             0.00784625516            0.000527820433           
       2.464796             0.00820365669            0.000532744713           
       2.467436             0.00836190776            0.000556208936           
       2.470077             0.00777357496            0.000508300866           
       2.472717             0.00780710857            0.000511602635           
       2.475358             0.00771393824            0.000513843316           
       2.477998             0.00774340869            0.000506144732           
       2.480638             0.00762887552            0.000511314542           
       2.483279             0.00797299922            0.000546325255           
       2.485919             0.00808612955            0.000530231502           
       2.488560             0.00829787676            0.000535628263           
       2.491200             0.00758988477            0.000527501094           
       2.493840             0.00689133538            0.000531859457           
       2.496481             0.00654925346            0.000510009467           
       2.499121             0.00645618006            0.000492528177           
       2.501761             0.00778949453            0.000548168785           
       2.504402             0.00702473616            0.000512959228           
       2.507042              0.0071193992            0.000512578416           
       2.509683             0.00755031967            0.000519795513           
       2.512323             0.00661562756            0.000511007677           
       2.514963             0.00642056868            0.000497198434           
       2.517604             0.00692742604            0.000535897128           
       2.520244             0.00714327981            0.000510171783           
       2.522884             0.00757205454            0.000532771888           
       2.525525             0.00812825299            0.000558257548           
       2.528165             0.00847158154            0.000561041879           
       2.530806             0.00764742457            0.000542344542           
       2.533446             0.00744024052              0.0005235294           
       2.536086             0.00750135968             0.00052097032           
       2.538727             0.00712531957            0.000487103594           
       2.541367             0.00688039131            0.000483373463           
       2.544008             0.00759522856            0.000524498608           
       2.546648             0.00768465769            0.000536626766           
       2.549288             0.00803202507            0.000559799827           
       2.551929              0.0065288249            0.000496660077           
       2.554569             0.00753355477            0.000513991227           
       2.557209             0.00707007415             0.00050250221           
       2.559850             0.00606391037            0.000466868696           
       2.562490             0.00755602046            0.000538639223           
       2.565131             0.00723551066            0.000546512193           
       2.567771             0.00674755584            0.000508842262           
       2.570411             0.00796360319            0.000546814627           
       2.573052             0.00685347974            0.000513660375           
       2.575692             0.00619655407            0.000485464812           
       2.578332             0.00655902404            0.000501527165           
       2.580973             0.00761791454            0.000535353869           
       2.583613              0.0069858507            0.000500456672           
       2.586254             0.00697042344            0.000499209026           
       2.588894             0.00776040516            0.000546992769           
       2.591534             0.00731456028            0.000549733978           
       2.594175             0.00743013798            0.000543604724           
       2.596815             0.00720064361            0.000538299069           
       2.599456             0.00756810538            0.000523329455           
       2.602096             0.00696594957            0.000505899633           
       2.604736             0.00777218351            0.000547045687           
       2.607377              0.0079545232            0.000538840912           
       2.610017             0.00792446219             0.00052841009           
       2.612657             0.00792799678             0.00056216914           
       2.615298              0.0070647624            0.000518112211           
       2.617938             0.00634797377            0.000525378925           
       2.620579             0.00777562523            0.000558199442           
       2.623219             0.00759182919            0.000550776542           
       2.625859             0.00754532201            0.000533866515           
       2.628500             0.00746249331            0.000527448148           
       2.631140             0.00618484479            0.000487576656           
       2.633780             0.00760008734            0.000540020303           
       2.636421             0.00715955644             0.00053702534           
       2.639061             0.00724343117            0.000508500274           
       2.641702             0.00802723402            0.000547698504           
       2.644342             0.00693482856              0.0005112379           
       2.646982             0.00724056846            0.000514576427           
       2.649623             0.00774411301            0.000557691517           
       2.652263               0.007078167            0.000527823178           
       2.654904              0.0073008383            0.000536600551           
       2.657544               0.007022405            0.000495690693           
       2.660184             0.00768323775            0.000548712874           
       2.662825             0.00617686807            0.000503405132           
       2.665465             0.00698918208            0.000517901412           
       2.668105              0.0073367664            0.000559297232           
       2.670746              0.0072732775            0.000514430999           
       2.673386             0.00868294535            0.000579265104           
       2.676027             0.00783274691            0.000541345118           
       2.678667              0.0102040719            0.000602896133           
       2.681307              0.0109392562            0.000613348547           
       2.683948              0.0154099543             0.00074795653           
       2.686588              0.0109747228            0.000620740254           
       2.689229              0.0102727588            0.000586842768           
       2.691869             0.00980206358             0.00060585835           
       2.694509             0.00901287408            0.000581276232           
       2.697150             0.00703319277            0.000505153535           
       2.699790             0.00736369227            0.000541880943           
       2.702430             0.00754154762            0.000524191025           
       2.705071             0.00733954645            0.000534349148           
       2.707711             0.00656829784            0.000490620852           
       2.710352             0.00748303853            0.000553324018           
       2.712992              0.0061167106            0.000509514183           
       2.715632              0.0076050862            0.000527113938           
       2.718273             0.00579975291            0.000477056796           
       2.720913             0.00643491059            0.000501070839           
       2.723553             0.00637206946            0.000501963678           
       2.726194             0.00692092758            0.000546849036           
       2.728834             0.00802982191            0.000589307496           
       2.731475             0.00824507879            0.000551120867           
       2.734115             0.00695675521            0.000521946993           
       2.736755              0.0070781277             0.00053081379           
       2.739396             0.00624213092            0.000495593822           
       2.742036             0.00659578583             0.00053316091           
       2.744677             0.00710426939            0.000536883279           
       2.747317             0.00718877671            0.000536215955           
       2.749957              0.0074086889            0.000548176071           
       2.752598             0.00729027649            0.000549679077           
       2.755238             0.00737580087            0.000562874882           
       2.757878             0.00739481468            0.000558672233           
       2.760519             0.00832720747            0.000586561588           
       2.763159              0.0110747344            0.000669682185           
       2.765800             0.00850563356            0.000559295355           
       2.768440             0.00843260528              0.0005609917           
       2.771080              0.0084160658            0.000565119334           
       2.773721             0.00657405665            0.000512346079           
       2.776361             0.00722020449            0.000544342213           
       2.779001               0.006800446            0.000547089727           
       2.781642             0.00676348893            0.000541580307           
       2.784282             0.00755990736             0.00058199485           
       2.786923             0.00734616046            0.000578759649           
       2.789563             0.00696807625            0.000542879871           
       2.792203             0.00690410189            0.000516219138           
       2.794844             0.00619957607            0.000536124412           
       2.797484             0.00709147511             0.00054114371           
       2.800125              0.0061976972            0.000531947685           
       2.802765             0.00748501264            0.000574531267           
       2.805405             0.00607045351            0.000519153043           
       2.808046             0.00656160845            0.000549235184           
       2.810686             0.00643569991            0.000499817709           
       2.813326             0.00636449314            0.000516292517           
       2.815967              0.0068643235            0.000551427912           
       2.818607             0.00652801886            0.000513161102           
       2.821248             0.00648269979            0.000500760095           
       2.823888              0.0071577733            0.000546196214           
       2.826528             0.00748878161            0.000541056684           
       2.829169             0.00624557849            0.000517552382           
       2.831809             0.00669322067            0.000543066588           
       2.834449             0.00538627558            0.000490247936           
       2.837090             0.00731870573            0.000551943279           
       2.839730             0.00609881736            0.000501388665           
       2.842371             0.00685768733            0.000532435348           
       2.845011             0.00642222867            0.000519360546           
       2.847651             0.00703824083            0.000544366243           
       2.850292             0.00686335168            0.000542836069           
       2.852932             0.00636217063            0.000534030787           
       2.855573             0.00615053616            0.000509336132           
       2.858213             0.00786238671            0.000604734375           
       2.860853             0.00633791526            0.000505069203           
       2.863494             0.00611247458            0.000513544154           
       2.866134             0.00721992065            0.000580107088           
       2.868774              0.0059314099            0.000516754034           
       2.871415             0.00715310345             0.00057632145           
       2.874055             0.00648130379            0.000524384831           
       2.876696             0.00654793034            0.000541329817           
       2.879336             0.00790161545            0.000573136778           
       2.881976             0.00614475711             0.00052130621           
       2.884617             0.00720650951            0.000556259503           
       2.887257             0.00763324017            0.000575446957           
       2.889897             0.00748578381            0.000558133391           
       2.892538             0.00679481876            0.000582535144           
       2.895178             0.00770615525            0.000560464612           
       2.897819             0.00651931124            0.000525861087           
       2.900459             0.00696631282            0.000533015708           
       2.903099             0.00602559276            0.000490647969           
       2.905740             0.00609470541            0.000506220518           
       2.908380             0.00722328842            0.000557362353           
       2.911021             0.00706579978            0.000560215291           
       2.913661             0.00785798099            0.000590608442           
       2.916301             0.00729135005            0.000569458528           
       2.918942              0.0063902992            0.000509935049           
       2.921582             0.00743719586            0.000575585918           
       2.924222              0.0065218031             0.00052218809           
       2.926863             0.00690619152            0.000559718719           
       2.929503               0.007017994            0.000570915787           
       2.932144             0.00752683302            0.000567564551           
       2.934784             0.00684015796            0.000532184195           
       2.937424             0.00728254146            0.000554761704           
       2.940065             0.00750141939            0.000537083828           
       2.942705             0.00710686037             0.00052211244           
       2.945346             0.00726400378            0.000560185862           
       2.947986             0.00710374332            0.000564859639           
       2.950626             0.00728467273            0.000568787174           
       2.953267              0.0070622507            0.000550987813           
       2.955907             0.00642007699            0.000544968147           
       2.958547             0.00679249196            0.000529189434           
       2.961188             0.00727281929             0.00057127938           
       2.963828             0.00790091835            0.000582447619           
       2.966469             0.00669555938            0.000525991825           
       2.969109             0.00676178952             0.00053641871           
       2.971749             0.00642614997            0.000519673723           
       2.974390             0.00714419923            0.000538450209           
       2.977030             0.00670566997            0.000533321024           
       2.979670             0.00938818502            0.000613810091           
       2.982311             0.00801172669            0.000587698375           
       2.984951              0.0077666396            0.000550336979           
       2.987592             0.00767264371              0.0005579525           
       2.990232             0.00826531557            0.000602258964           
       2.992872             0.00907988914            0.000594591468           
       2.995513              0.0093268488            0.000589563873           
       2.998153             0.00982122334            0.000615151758           
       3.000794              0.0123595398            0.000668415197           
       3.003434              0.0118681295            0.000655981422           
       3.006074              0.0415377264             0.00121001753           
       3.008715               0.112558664             0.00192277373           
       3.011355               0.196825944             0.00245189815           
       3.013995               0.107351085             0.00181570159           
       3.016636              0.0659226685             0.00139330575           
       3.019276               0.131319948             0.00193303144           
       3.021917               0.479768715             0.00355271786           
       3.024557                1.55817815             0.00629481964           
       3.027197                1.17750603             0.00533503747           
       3.029838               0.529979318             0.00362996439           
       3.032478               0.271336913             0.00259997218           
       3.035118              0.0698163264             0.00133653564           
       3.037759              0.0885851466              0.0015035636           
       3.040399               0.122585261             0.00182448473           
       3.043040               0.495539484             0.00371322429           
       3.045680               0.403979269             0.00315439261           
       3.048320              0.0938805848             0.00155371467           
       3.050961                0.10990496             0.00171071535           
       3.053601              0.0867896225             0.00146414459           
       3.056242              0.0588092546             0.00128142432           
       3.058882              0.0487491664             0.00125150688           
       3.061522               0.036086898             0.00105644332           
       3.064163                0.04433514             0.00115622388           
       3.066803               0.105281488             0.00187578671           
       3.069443               0.100862417             0.00192092392           
       3.072084              0.0546762009             0.00137716055           
       3.074724              0.0386294076             0.00129273293           
       3.077365              0.0829266187              0.0019606964           
       3.080005              0.0194467828            0.000954863371           
       3.082645              0.0116777951            0.000777326539           
       3.085286              0.0142964522             0.00086686246           
       3.087926              0.0101859011            0.000726065236           
       3.090566              0.0116014722            0.000759229374           
       3.093207              0.0109026738            0.000765893237           
       3.095847             0.00958027887            0.000688138682           
       3.098488               0.007554624            0.000677575726           
       3.101128             0.00979472623            0.000776482377           
       3.103768             0.00797830056            0.000687610015           
       3.106409             0.00890963144            0.000773336082           
       3.109049             0.00902150701            0.000746777172           
       3.111690             0.00799183239            0.000690803394           
       3.114330             0.00777300475            0.000695773239           
       3.116970             0.00823033169            0.000721445162           
       3.119611               0.011009692            0.000888180012           
       3.122251              0.0194778496             0.00123574692           
       3.124891               0.035083262             0.00167392356           
       3.127532              0.0229090017             0.00132329545           
       3.130172              0.0133826175              0.0010288795           
       3.132813              0.0101528177            0.000882242107           
       3.135453              0.0079041089            0.000772020377           
       3.138093             0.00726401784            0.000801925188           
       3.140734             0.00678482141            0.000715018421           
       3.143374             0.00623532863            0.000724896543           
       3.146014             0.00742485316            0.000851574641           
       3.148655             0.00851740813               0.000847862           
       3.151295             0.00603165482            0.000760338259           
       3.153936             0.00598122134            0.000731386785           
       3.156576             0.00677879015            0.000768033977           
       3.159216             0.00612788864            0.000733882632           
       3.161857             0.00574736345            0.000707838888           
       3.164497             0.00788589476            0.000871182633           
       3.167138              0.0096383562            0.000995149029           
       3.169778             0.00624125463            0.000787591067           
       3.172418             0.00544617922            0.000728233574           
       3.175059              0.0052747337            0.000635366746           
       3.177699             0.00589354229            0.000711186599           
       3.180339             0.00679921321            0.000818437345           
       3.182980             0.00566707611            0.000772526682           
       3.185620             0.00633697567            0.000831954774           
       3.188261               0.006668144            0.000868646332           
       3.190901             0.00555350231            0.000729079327           
       3.193541             0.00591068903            0.000790338994           
       3.196182             0.00585447024            0.000819720242           
       3.198822             0.00652262335            0.000865522872           
       3.201463             0.00641838458              0.0008437869           
       3.204103             0.00591404121            0.000805029349           
       3.206743             0.00558161114             0.00078200326           
       3.209384              0.0058730283            0.000866663035           
       3.212024             0.00564462852            0.000792134529           
       3.214664             0.00645284853            0.000963101103           
       3.217305             0.00633840772             0.00090733969           
       3.219945             0.00590265764            0.000901213976           
       3.222586             0.00585461802            0.000854891132           
       3.225226             0.00707225242              0.0010423336           
       3.227866              0.0062755777            0.000897420813           
       3.230507             0.00648348846            0.000945559179           
       3.233147             0.00588874995            0.000908424176           
       3.235787             0.00613703116            0.000949054419           
       3.238428             0.00527337236            0.000949354792           
       3.241068             0.00521727884            0.000882960026           
       3.243709             0.00541996679            0.000929789094           
       3.246349             0.00676359668            0.000946838874           
       3.248989             0.00723118237             0.00115600546           
       3.251630             0.00582962291            0.000999515302           
       3.254270             0.00533403354            0.000854481883           
       3.256911             0.00601283154            0.000989882008           
       3.259551             0.00775065416             0.00120993797           
       3.262191             0.00591704552             0.00107985021           
       3.264832             0.00600199108             0.00113635168           
       3.267472             0.00395691927            0.000865558243           
       3.270112             0.00344564688            0.000892617601           
       3.272753             0.00482935192            0.000967273464           
       3.275393             0.00584743638             0.00108601563           
       3.278034             0.00623595009             0.00112214526           
       3.280674             0.00545929792             0.00113933509           
       3.283314             0.00551328769             0.00102399543           
       3.285955             0.00523805662             0.00102982889           
       3.288595             0.00555424435              0.0011797965           
       3.291235             0.00527610421             0.00118206347           
       3.293876             0.00433092829               0.001086353           
       3.296516             0.00729035306             0.00135311944           
       3.299157              0.0053748324             0.00114723601           
       3.301797             0.00762380331             0.00155855382           
       3.304437             0.00692936106             0.00128733459           
       3.307078             0.00403896592             0.00108265161           
       3.309718             0.00553519429             0.00130820368           
       3.312359             0.00838242601              0.0016102635           
       3.314999             0.00417403941             0.00111877353           
       3.317639             0.00548679895             0.00122674023           
       3.320280             0.00588902688             0.00135123978           
       3.322920             0.00542408692             0.00131862936           
       3.325560             0.00511605877             0.00128151039           
       3.328201             0.00414899621             0.00103936414           
       3.330841             0.00579858969             0.00149544446           
       3.333482             0.00513911619             0.00133073205           
       3.336122             0.00584436969             0.00141975965           
       3.338762             0.00736621969             0.00184123211           
       3.341403             0.00965525044             0.00201426615           
       3.344043             0.00535799049             0.00144060392           
       3.346683             0.00525279267             0.00145622948           
       3.349324             0.00666909797             0.00184485254           
       3.351964             0.00455556097             0.00161236774           
       3.354605            0.000723752371            0.000734991607           
       3.357245             0.00484775599             0.00171599301           
       3.359885             0.00586109119             0.00151014952           
       3.362526             0.00727842311             0.00210449352           
       3.365166             0.00541052194             0.00171139145           
       3.367807             0.00888337773             0.00280646637           
       3.370447             0.00545996137              0.0018251106           
       3.373087              0.0112077653             0.00279628332           
       3.375728             0.00879137637             0.00279504835           
       3.378368             0.00394839392             0.00277997585           
       3.381008             0.00546303486             0.00243795626           
       3.383649             0.00279770324             0.00139956865           
       3.386289             0.00685692001             0.00259321465           
       3.388930             0.00247557071             0.00246464802           
       3.391570             0.00243031151             0.00172747074           
       3.394210             0.00393143406             0.00278051468           
       3.396851              0.0121724103             0.00547282779           
       3.399491             0.00229670876             0.00237792715           
       3.402131             0.00479432945             0.00486078048           
       3.404772           -2.63408702e-05                         0           
       3.407412                       nan                       nan           
       3.410053           -2.64057479e-05                         0           
       3.412693                       nan                       nan           
       3.415333           -2.64562088e-05                         0           
