################################################################################
# EDF_DataBlockID                     0.Image.Psd
# EDF_BinarySize                      2105344
# EDF_HeaderSize                      2560
# ByteOrder                           LowByteFirst
# DataType                            FloatValue
# Dim_1                               512
# Dim_2                               1028
# Image                               0
# HeaderID                            EH:000000:000000:000000
# Size                                2105344
# Center_1                            304.9000
# Center_2                            588.7000
# Comment                             Xenocs_Cell_Window - 20251028_20perc_iodine_1.23mg
# DDummy                              0.6
# Date                                2025-11-02T08:54:07
# Delta                               21.910000
# Dummy                               -1.5
# ExposureTime                        360
# Gamma                               15.360000
# Intensity1                          8.78781e-10
# PSize_1                             7.5e-05
# PSize_2                             7.5e-05
# Pressure                            0.0326443
# SampleDistance                      0.115750
# SampleEnvKind                       large
# SampleEnvPN                         ElectroChemical cell
# SampleEnvSN                         1141
# Thickness                           0
# Wavelength                          1.541891e-10
# Wavelength                          1.54189e-10
# aux                                 0
# aux_dial                            0.002375
# beamx                               588.434
# beamx_dial                          588.434
# beamz                               657.808
# beamz_dial                          657.808
# det0x                               0
# det0x_dial                          6.36945
# det0xvd                             0
# det0xvd_dial                        0
# det0y                               450.002
# det0y_dial                          481.635
# det0z                               0
# det0z_dial                          1.23302
# det0zvd                             0
# det0zvd_dial                        0
# mag                                 1.818
# mag_dial                            1.818
# om                                  0.2499
# om_dial                             -0.610199
# phi                                 -0.0120535
# phi_dial                            0
# ry                                  0.599993
# ry_dial                             0.599993
# s1bot                               0.8
# s1bot_dial                          -1.66094
# s1hl                                0.8
# s1hl_dial                           -0.608437
# s1hr                                0.8
# s1hr_dial                           0.970938
# s1top                               0.8
# s1top_dial                          -0.461562
# s2bot                               0.45
# s2bot_dial                          1.36109
# s2hl                                0.45
# s2hl_dial                           -0.83375
# s2hr                                0.45
# s2hr_dial                           -0.118594
# s2top                               0.45
# s2top_dial                          1.44734
# w2theta                             32
# w2theta_dial                        32
# waxsch                              19.2605
# waxsch_dial                         -32.7355
# waxsh                               137.085
# waxsh_dial                          -43.5338
# waxsth                              26.0607
# waxsth_dial                         -19.4086
# waxsz                               67.0407
# waxsz_dial                          -23.7954
# wind                                65.9854
# wind_dial                           66.0041
# wpsi                                124
# wpsi_dial                           124
# wstod                               115
# wstod_dial                          115
# x                                   0
# x_dial                              1.00969
# z                                   0
# z_dial                              13.3172
# CountCutoff                         6807993
# DetectorModel                       Dectris EIGER2 Si 500K, S/N E-01-0554
# ThresholdSetting                    4023.88989258
# Saturation                          0
# FlatField                           Corrected
# BackgroundReductionExtra            0.02
# BackgroundCorrectionConstant        0.0026712
# Detector                            0
# Monitor                             0
# Pil_Roi0                            0
# SumForIntensity1                    3.16361e+08
# TransmittedFlux                     878781
# det                                 0
# mon                                 0
# pilai0                              3.16361e+08
# pilai1                              795654
# pilct0                              5.46611e+08
# pilct1                              795654
# pilroi0                             0
# pilroi1                             0
# sec                                 1
# title                               20251028_20perc_iodine_1.23mg_1_01041.edf
# usaxs0                              0
# Operation                           Azimuthal average I(q)
# Error_model                         ErrorModel.poisson
# Geometrical_correction              True
# Transmission_correction             True
# Thickness_correction                False
# Binning mode                        Uniform
# Binning factor                      1.0
# Psi                                 0.0
# Omega                               0.2499
# MaskInvalidPixels                   True
# DetectorEdge                        3
# MaskFiles                           ['WAXS_corrected.edf']
################################################################################
    q(A⁻¹)                Intensity(a.u.)            Sigma_I(a.u.)            
       0.693100              0.0120832521              0.0072287908           
       0.695741             0.00543377185             0.00395578025           
       0.698381              0.0205820344             0.00943058134           
       0.701021             0.00857763125              0.0086065716           
       0.703662              0.0137991878              0.0063010471           
       0.706302             0.00501264838             0.00294019908           
       0.708942             0.00831741054              0.0048883044           
       0.711583             0.00212802019             0.00214110437           
       0.714223               0.011367188             0.00571316027           
       0.716864             0.00481824613             0.00243368945           
       0.719504             0.00717776571             0.00320540688           
       0.722144             0.00611722617              0.0027403915           
       0.724785             0.00702051032             0.00234180694           
       0.727425             0.00573916056              0.0028643823           
       0.730065             0.00708341956              0.0022509689           
       0.732706             0.00747623699             0.00194195108           
       0.735346              0.0085964739             0.00271444497           
       0.737987             0.00463927051             0.00140910315           
       0.740627             0.00562585241             0.00231525371           
       0.743267              0.0067986569             0.00170473997           
       0.745908              0.0035229008             0.00133139068           
       0.748548              0.0050770895             0.00147325237           
       0.751189             0.00543842308             0.00205457861           
       0.753829             0.00721328751             0.00217509382           
       0.756469              0.0046639096             0.00141032688           
       0.759110             0.00947262111             0.00211811892           
       0.761750             0.00777323659             0.00169658984           
       0.764390             0.00563255403              0.0015115902           
       0.767031               0.005736895             0.00132104921           
       0.769671             0.00570144353             0.00164281099           
       0.772312             0.00655401474              0.0013409119           
       0.774952             0.00796800407             0.00199655384           
       0.777592             0.00820004789             0.00147527043           
       0.780233             0.00692506083             0.00163568252           
       0.782873             0.00598231387             0.00145400012           
       0.785513             0.00810201946             0.00180896541           
       0.788154             0.00646890193              0.0013521746           
       0.790794             0.00885887112             0.00189175861           
       0.793435             0.00815593656             0.00163066092           
       0.796075              0.0090925173             0.00165857447           
       0.798715              0.0100840381             0.00206406273           
       0.801356             0.00839037331             0.00162043721           
       0.803996             0.00581251436             0.00137504307           
       0.806637             0.00844556606             0.00131904886           
       0.809277             0.00940722003             0.00150680998           
       0.811917             0.00655064854              0.0011754594           
       0.814558             0.00840130201             0.00138353019           
       0.817198             0.00596309034             0.00110737847           
       0.819838             0.00860815039              0.0013465656           
       0.822479             0.00613458626             0.00133485573           
       0.825119             0.00691775172             0.00120647381           
       0.827760             0.00713616286             0.00124125391           
       0.830400             0.00699122151             0.00115632519           
       0.833040             0.00564723903             0.00108881777           
       0.835681             0.00811386394             0.00148369989           
       0.838321             0.00726831966             0.00117864477           
       0.840961             0.00677871353             0.00124018237           
       0.843602             0.00778757284             0.00121899424           
       0.846242              0.0085435353             0.00127659936           
       0.848883             0.00779612625             0.00124796389           
       0.851523             0.00465519077            0.000952363627           
       0.854163             0.00704894279             0.00124627885           
       0.856804             0.00694131498             0.00111198785           
       0.859444             0.00665243848             0.00106662079           
       0.862085             0.00630703188             0.00108244081           
       0.864725             0.00603576572             0.00108368206           
       0.867365              0.0102241107             0.00130786936           
       0.870006             0.00712086551             0.00104010185           
       0.872646             0.00703286776             0.00108393055           
       0.875286             0.00801365737             0.00111314983           
       0.877927             0.00690648421            0.000997178899           
       0.880567             0.00789237806             0.00110437554           
       0.883208              0.0077286047             0.00108256143           
       0.885848             0.00699690328             0.00106949356           
       0.888488             0.00904582552             0.00114057435           
       0.891129             0.00545510141             0.00090945894           
       0.893769             0.00692161904            0.000980413468           
       0.896410             0.00719502391            0.000931967371           
       0.899050             0.00642476254            0.000968497405           
       0.901690              0.0070888954             0.00110816122           
       0.904331             0.00886244668             0.00109849022           
       0.906971             0.00785621886             0.00110027325           
       0.909611             0.00842663363             0.00103732522           
       0.912252             0.00775260191             0.00102770339           
       0.914892             0.00616817464             0.00100174649           
       0.917533             0.00781536602             0.00106670325           
       0.920173             0.00726118932            0.000953956994           
       0.922813             0.00728203269             0.00100250616           
       0.925454             0.00828135717             0.00096267995           
       0.928094             0.00710926328            0.000952238319           
       0.930734             0.00721609021             0.00103286362           
       0.933375             0.00808833543             0.00108275717           
       0.936015             0.00825278714            0.000993321748           
       0.938656             0.00868224659             0.00109297381           
       0.941296              0.0076924531            0.000932365721           
       0.943936             0.00759715324            0.000908647761           
       0.946577              0.0089919562            0.000982011298           
       0.949217             0.00816385333            0.000860461727           
       0.951858             0.00751798136            0.000864367586           
       0.954498             0.00811205866              0.0010392685           
       0.957138              0.0064600364            0.000878610091           
       0.959779             0.00849485272            0.000993214399           
       0.962419             0.00742406473             0.00092233252           
       0.965059             0.00518866866            0.000810965402           
       0.967700              0.0071632129            0.000975915906           
       0.970340             0.00797693293            0.000911320498           
       0.972981             0.00827977174            0.000845914495           
       0.975621              0.0081212339            0.000891250082           
       0.978261             0.00793605139             0.00083713365           
       0.980902              0.0075392422            0.000976227433           
       0.983542             0.00753260803            0.000864132565           
       0.986182             0.00803274466            0.000876112707           
       0.988823             0.00675679361            0.000780222248           
       0.991463              0.0084986535            0.000933565975           
       0.994104             0.00721137747              0.0008389058           
       0.996744             0.00710424723            0.000849297573           
       0.999384             0.00772063606            0.000791821672           
       1.002025             0.00819942951            0.000910769055           
       1.004665               0.007520731            0.000797138669           
       1.007306             0.00625477312            0.000723237543           
       1.009946             0.00774633348            0.000820850137           
       1.012586             0.00767874193             0.00079596416           
       1.015227             0.00914532024            0.000933208733           
       1.017867             0.00880282892            0.000879923882           
       1.020507             0.00833440321            0.000829338425           
       1.023148             0.00738597422            0.000842424284           
       1.025788             0.00774503518             0.00079098941           
       1.028429             0.00851710714            0.000869014933           
       1.031069             0.00832368899            0.000808437538           
       1.033709             0.00786847537            0.000835541671           
       1.036350             0.00751042725            0.000733158018           
       1.038990             0.00696605198            0.000719062999           
       1.041630             0.00815253534            0.000811350387           
       1.044271             0.00785346914            0.000748919089           
       1.046911             0.00894297851            0.000840634301           
       1.049552             0.00812292029            0.000841725755           
       1.052192             0.00836781895            0.000780102606           
       1.054832             0.00777026057            0.000758570998           
       1.057473             0.00851188891            0.000782663947           
       1.060113             0.00813495797            0.000746218021           
       1.062754             0.00849948243            0.000778758067           
       1.065394              0.0074101376            0.000768777458           
       1.068034             0.00798978161            0.000726324854           
       1.070675             0.00886362608             0.00079800319           
       1.073315             0.00813087347            0.000775261759           
       1.075955             0.00757603287             0.00070647855           
       1.078596             0.00921929874            0.000828283868           
       1.081236             0.00852219351            0.000762560556           
       1.083877              0.0101297558             0.00082391926           
       1.086517             0.00987999851            0.000872523101           
       1.089157             0.00804027164            0.000816711845           
       1.091798             0.00876630944            0.000747654691           
       1.094438             0.00760059412            0.000693924874           
       1.097078              0.0083390192            0.000697127628           
       1.099719             0.00736190916            0.000708496895           
       1.102359             0.00921795018             0.00074246029           
       1.105000              0.0092037023            0.000829573428           
       1.107640              0.0090194764            0.000785228352           
       1.110280             0.00794033983            0.000672235473           
       1.112921             0.00853110256            0.000748507524           
       1.115561             0.00807876717            0.000692277153           
       1.118202              0.0094573644            0.000749724225           
       1.120842             0.00879495804            0.000759869058           
       1.123482              0.0080679995            0.000724609155           
       1.126123             0.00829856631            0.000704882773           
       1.128763             0.00880201725             0.00073092694           
       1.131403             0.00963244036            0.000736785972           
       1.134044             0.00980075343            0.000764749707           
       1.136684              0.0084804311            0.000758449018           
       1.139325             0.00892429921            0.000716733805           
       1.141965             0.00967151842            0.000751068902           
       1.144605             0.00800419826            0.000651498488           
       1.147246             0.00988512213            0.000740963226           
       1.149886             0.00972018997            0.000732147438           
       1.152527             0.00826502619            0.000684941245           
       1.155167              0.0101255108             0.00072109044           
       1.157807             0.00813810194            0.000693122169           
       1.160448             0.00845035993            0.000689714672           
       1.163088             0.00788332795            0.000635430472           
       1.165728             0.00869098013            0.000685013574           
       1.168369             0.00928916927            0.000714738347           
       1.171009             0.00952141533            0.000702251703           
       1.173650             0.00953067733            0.000721028123           
       1.176290             0.00900569143            0.000684925163           
       1.178930             0.00955973491             0.00069163018           
       1.181571             0.00883596101            0.000678118891           
       1.184211              0.0113730353            0.000772065673           
       1.186851             0.00846858696             0.00065135948           
       1.189492             0.00954081139            0.000686714663           
       1.192132              0.0097360487            0.000685921948           
       1.194773             0.00960015721            0.000684094211           
       1.197413              0.0100845694            0.000671792434           
       1.200053             0.00979160906            0.000678782074           
       1.202694             0.00931376799            0.000629535787           
       1.205334             0.00948151322            0.000684524809           
       1.207975             0.00948240121            0.000653428832           
       1.210615             0.00946001331            0.000719991569           
       1.213255              0.0100527821            0.000664628712           
       1.215896             0.00941823213            0.000654966665           
       1.218536             0.00961465146            0.000636311677           
       1.221176              0.0107954315            0.000733051745           
       1.223817             0.00994013836            0.000660306409           
       1.226457             0.00897011541            0.000639898016           
       1.229098              0.0095708691            0.000660946456           
       1.231738               0.010090092            0.000681977976           
       1.234378             0.00897614475            0.000604413236           
       1.237019             0.00919513105            0.000630393913           
       1.239659              0.0106550407            0.000672683675           
       1.242299              0.0102386763            0.000651031672           
       1.244940              0.0114513605            0.000669616834           
       1.247580              0.0102776538            0.000653773431           
       1.250221              0.0108325397            0.000667048425           
       1.252861             0.00967540094             0.00060015834           
       1.255501              0.0107296367            0.000686241931           
       1.258142              0.0104493654            0.000636369585           
       1.260782             0.00946053841            0.000618613088           
       1.263423             0.00952246407            0.000596359468           
       1.266063             0.00932402444            0.000604848865           
       1.268703             0.00947596909            0.000604697469           
       1.271344              0.0121596072            0.000708207868           
       1.273984               0.011223869            0.000657144226           
       1.276624              0.0105161207            0.000624138081           
       1.279265              0.0108524429            0.000644569224           
       1.281905              0.0107246335            0.000643606234           
       1.284546              0.0107178205            0.000621906157           
       1.287186              0.0104462154            0.000602375205           
       1.289826               0.010615887            0.000639989153           
       1.292467              0.0101119358            0.000610856232           
       1.295107             0.00932323428            0.000580723605           
       1.297747              0.0111930122             0.00060888309           
       1.300388              0.0107370371             0.00065009892           
       1.303028              0.0105119699            0.000614084319           
       1.305669              0.0103298328             0.00062323575           
       1.308309              0.0105498242            0.000623634802           
       1.310949              0.0107244589            0.000628143335           
       1.313590              0.0105978524            0.000604905775           
       1.316230              0.0110366568            0.000658746773           
       1.318871             0.00940675862            0.000595620626           
       1.321511              0.0108280375            0.000627190249           
       1.324151              0.0110378869            0.000614465424           
       1.326792              0.0111832187            0.000622321215           
       1.329432              0.0111097882            0.000615897571           
       1.332072              0.0116211169            0.000620523889           
       1.334713              0.0109543079            0.000621796827           
       1.337353              0.0102367648            0.000576454497           
       1.339994               0.011373191            0.000637626053           
       1.342634              0.0111966781             0.00060667996           
       1.345274              0.0115009056            0.000636329397           
       1.347915              0.0105741648             0.00059330405           
       1.350555              0.0105807282            0.000603882411           
       1.353195              0.0110021273            0.000618814881           
       1.355836              0.0106606925            0.000599638852           
       1.358476               0.011573329            0.000606754961           
       1.361117              0.0126701397            0.000635726917           
       1.363757              0.0107280605            0.000602841391           
       1.366397              0.0109546825            0.000590741007           
       1.369038              0.0102623742            0.000577462952           
       1.371678              0.0120237128            0.000619546287           
       1.374319              0.0110683025            0.000589303648           
       1.376959              0.0105747916            0.000570223248           
       1.379599              0.0112191945            0.000629451011           
       1.382240              0.0110770895            0.000587830916           
       1.384880              0.0110954059             0.00062316108           
       1.387520              0.0111453927            0.000593166968           
       1.390161              0.0115227062             0.00057282279           
       1.392801              0.0115194895            0.000596742511           
       1.395442              0.0104137185            0.000575128124           
       1.398082              0.0107999732            0.000548479754           
       1.400722              0.0111956895            0.000584950607           
       1.403363              0.0117506722            0.000630808253           
       1.406003               0.012062365            0.000598130247           
       1.408644              0.0114430973            0.000610284468           
       1.411284              0.0102406984             0.00054668178           
       1.413924              0.0110484202            0.000565726948           
       1.416565              0.0101685096            0.000540600083           
       1.419205              0.0110450571            0.000587735856           
       1.421845              0.0119369039            0.000610645228           
       1.424486              0.0101462412            0.000541156605           
       1.427126              0.0119499062            0.000610080759           
       1.429767              0.0115964093            0.000565458017           
       1.432407              0.0114724807            0.000588594492           
       1.435047              0.0103586871            0.000525269561           
       1.437688              0.0108125293            0.000544676859           
       1.440328               0.011137906            0.000564206163           
       1.442968              0.0105103333            0.000560360484           
       1.445609              0.0109292866            0.000553292679           
       1.448249              0.0118694416            0.000591198475           
       1.450890             0.00985081456             0.00053506965           
       1.453530              0.0114714056             0.00060408458           
       1.456170              0.0104576918            0.000559774856           
       1.458811              0.0117596143             0.00056761048           
       1.461451              0.0110501674            0.000551665804           
       1.464092               0.012114985            0.000581410905           
       1.466732              0.0107532313            0.000543054102           
       1.469372              0.0113159093            0.000544043578           
       1.472013              0.0102980828            0.000559751602           
       1.474653              0.0104416555            0.000554945175           
       1.477293               0.011406665            0.000592247307           
       1.479934              0.0107001361            0.000547345898           
       1.482574              0.0112358134            0.000542563172           
       1.485215                0.01089868            0.000544313908           
       1.487855              0.0108876892            0.000551216157           
       1.490495              0.0112119052            0.000557302986           
       1.493136              0.0107667845            0.000538642571           
       1.495776               0.010896562            0.000539411757           
       1.498416             0.00940029432            0.000517401615           
       1.501057              0.0106699671            0.000539088844           
       1.503697               0.010200609            0.000515322946           
       1.506338              0.0116550367            0.000560902916           
       1.508978             0.00992296616            0.000512459451           
       1.511618              0.0105585895            0.000562975278           
       1.514259              0.0101656197            0.000533315869           
       1.516899              0.0105101576             0.00052799926           
       1.519540             0.00976728618            0.000517205473           
       1.522180              0.0113657957            0.000562826417           
       1.524820              0.0112041148            0.000555673735           
       1.527461              0.0103275822             0.00053613358           
       1.530101              0.0115952669            0.000562404491           
       1.532741              0.0107630012            0.000538700505           
       1.535382              0.0111956764            0.000558266779           
       1.538022              0.0109004893            0.000518937341           
       1.540663                0.01107696            0.000562649022           
       1.543303              0.0112723381             0.00052701602           
       1.545943              0.0113250962            0.000559111379           
       1.548584              0.0118059367            0.000581104604           
       1.551224              0.0111327382            0.000521742719           
       1.553864              0.0103378467            0.000531271782           
       1.556505              0.0112339089            0.000535002635           
       1.559145              0.0106336018            0.000526888128           
       1.561786               0.010435876            0.000522368544           
       1.564426               0.010154872            0.000499260141           
       1.567066             0.00970150153            0.000511317734           
       1.569707             0.00986113019            0.000506247056           
       1.572347               0.010039867             0.00052772236           
       1.574988               0.010573645            0.000515482981           
       1.577628              0.0105645868            0.000537291356           
       1.580268             0.00967169781            0.000498093642           
       1.582909               0.009847479            0.000532735628           
       1.585549              0.0106821275            0.000538744715           
       1.588189               0.010181795            0.000514496836           
       1.590830             0.00990451426             0.00050680594           
       1.593470              0.0094042934             0.00051339631           
       1.596111             0.00968680132            0.000508707198           
       1.598751              0.0101629197            0.000504888744           
       1.601391              0.0100085544            0.000512093993           
       1.604032             0.00987998433            0.000519430603           
       1.606672              0.0097414416            0.000501125224           
       1.609312             0.00925702139            0.000509943578           
       1.611953             0.00994871043            0.000517318946           
       1.614593              0.0101745635            0.000513176579           
       1.617234             0.00807372247            0.000473765574           
       1.619874              0.0095879006            0.000514244175           
       1.622514             0.00911705014            0.000494617633           
       1.625155              0.0085508345            0.000481842072           
       1.627795             0.00976133746            0.000502205664           
       1.630436             0.00874274902             0.00047279978           
       1.633076             0.00977835806            0.000506576623           
       1.635716             0.00918757742            0.000483395174           
       1.638357             0.00887394599             0.00047632505           
       1.640997             0.00865113699            0.000484553758           
       1.643637             0.00893835791            0.000479288918           
       1.646278             0.00843186339            0.000480137789           
       1.648918             0.00889550699             0.00049450715           
       1.651559             0.00904689718            0.000502567967           
       1.654199             0.00898727722            0.000487178238           
       1.656839             0.00862650191            0.000477466322           
       1.659480             0.00854228664            0.000492972019           
       1.662120             0.00916614581            0.000480953984           
       1.664761             0.00946403727            0.000507640205           
       1.667401             0.00930001979            0.000480972602           
       1.670041             0.00926019289            0.000487259652           
       1.672682             0.00938029999            0.000488393747           
       1.675322             0.00867408974            0.000466629236           
       1.677962             0.00926343697            0.000476901425           
       1.680603             0.00815442682            0.000448821491           
       1.683243             0.00903821855            0.000492984395           
       1.685884             0.00885289236            0.000491506957           
       1.688524             0.00953105653            0.000500127147           
       1.691164             0.00847605492            0.000471742876           
       1.693805             0.00862797278            0.000481180184           
       1.696445             0.00892110867            0.000492124182           
       1.699085             0.00888440641            0.000474654618           
       1.701726             0.00816243513            0.000438274699           
       1.704366              0.0084151303            0.000468802792           
       1.707007             0.00842834839             0.00045871251           
       1.709647             0.00850893097             0.00046610513           
       1.712287             0.00953174973            0.000497618533           
       1.714928             0.00819051348            0.000465000366           
       1.717568             0.00915950982            0.000463219229           
       1.720209             0.00830954344            0.000462130164           
       1.722849             0.00898869975            0.000478173673           
       1.725489             0.00845640354            0.000464188732           
       1.728130             0.00932140366            0.000517918189           
       1.730770             0.00845207989            0.000468385054           
       1.733410             0.00892506724            0.000473746559           
       1.736051             0.00861401445            0.000468657459           
       1.738691             0.00890139875            0.000466753621           
       1.741332              0.0092614258              0.0004900207           
       1.743972             0.00796710336            0.000469339613           
       1.746612             0.00855856957            0.000467115335           
       1.749253             0.00935808739            0.000498092621           
       1.751893             0.00894183325            0.000483315014           
       1.754533             0.00881622453            0.000479460192           
       1.757174             0.00826117975            0.000459775856           
       1.759814             0.00863366314            0.000462902163           
       1.762455             0.00833542793            0.000463188582           
       1.765095             0.00870407305            0.000452788442           
       1.767735             0.00911995612             0.00047777774           
       1.770376             0.00907894663            0.000477959041           
       1.773016             0.00833089956            0.000454778674           
       1.775657             0.00827047681            0.000446606581           
       1.778297             0.00854904425            0.000450155727           
       1.780937             0.00947979956            0.000500335896           
       1.783578             0.00850471735            0.000462056151           
       1.786218             0.00754599028            0.000454214422           
       1.788858             0.00903988843            0.000472169161           
       1.791499              0.0083504924            0.000448711294           
       1.794139             0.00860091448            0.000451695111           
       1.796780             0.00857196043            0.000448760267           
       1.799420             0.00829353641            0.000438967631           
       1.802060             0.00878670944            0.000455480288           
       1.804701             0.00872227025             0.00043549388           
       1.807341             0.00935614858             0.00047394579           
       1.809981             0.00956926237            0.000480911201           
       1.812622             0.00978075881            0.000477443506           
       1.815262             0.00908667607            0.000469966644           
       1.817903             0.00872859413            0.000453788648           
       1.820543             0.00916354725             0.00047220262           
       1.823183             0.00844795549            0.000453141221           
       1.825824             0.00906187443            0.000448366964           
       1.828464             0.00870629345            0.000458179137           
       1.831105             0.00799440105            0.000426908889           
       1.833745             0.00911124499            0.000465488173           
       1.836385             0.00859328662            0.000464964683           
       1.839026             0.00780290822            0.000441666301           
       1.841666             0.00770790988            0.000437412927           
       1.844306             0.00808471631            0.000435753704           
       1.846947             0.00866957311            0.000455195409           
       1.849587             0.00783995391            0.000477991527           
       1.852228             0.00765126358             0.00042698979           
       1.854868             0.00870042838            0.000480983223           
       1.857508              0.0079991514             0.00045666847           
       1.860149             0.00889346459            0.000490268789           
       1.862789             0.00824320736            0.000455594265           
       1.865429             0.00786532991            0.000464542502           
       1.868070             0.00832921621            0.000471673793           
       1.870710             0.00806908365             0.00045354678           
       1.873351             0.00795331606            0.000455848002           
       1.875991             0.00827444924            0.000472548125           
       1.878631             0.00810507183            0.000458729372           
       1.881272             0.00736913769            0.000434476972           
       1.883912             0.00787433042            0.000467406359           
       1.886553             0.00822107823            0.000472247236           
       1.889193             0.00889347534            0.000490340865           
       1.891833             0.00745282721            0.000466171449           
       1.894474             0.00802182579            0.000479427481           
       1.897114             0.00745724379            0.000447308195           
       1.899754             0.00857957035            0.000481796662           
       1.902395             0.00769048274            0.000447231864           
       1.905035             0.00765710667            0.000472664488           
       1.907676             0.00758649713            0.000443428896           
       1.910316             0.00774926144            0.000460059843           
       1.912956             0.00840921679            0.000468706251           
       1.915597             0.00847560316            0.000473182564           
       1.918237             0.00800563972            0.000474940779           
       1.920878             0.00820531336            0.000478858861           
       1.923518             0.00782921098            0.000467954007           
       1.926158             0.00749310983            0.000451858777           
       1.928799              0.0078003358            0.000455692544           
       1.931439             0.00724744524              0.0004507669           
       1.934079             0.00862064496            0.000512501618           
       1.936720             0.00758838932            0.000445511792           
       1.939360              0.0075311611             0.00047350332           
       1.942001             0.00824016077            0.000453959019           
       1.944641             0.00742854208            0.000439513343           
       1.947281             0.00778160183            0.000445690217           
       1.949922             0.00695933152            0.000435356961           
       1.952562             0.00777791945            0.000474676444           
       1.955202              0.0076436274            0.000469987169           
       1.957843              0.0076685383            0.000458544435           
       1.960483              0.0072104541            0.000464868286           
       1.963124             0.00749749031            0.000464305865           
       1.965764             0.00794105478            0.000450619418           
       1.968404             0.00802337237            0.000448669337           
       1.971045             0.00732735377            0.000437150646           
       1.973685             0.00766217127            0.000468897647           
       1.976326             0.00778954136            0.000466281137           
       1.978966             0.00754741403            0.000463004985           
       1.981606              0.0082032522            0.000492769643           
       1.984247             0.00776272741            0.000476204373           
       1.986887             0.00781277034            0.000472014117           
       1.989527             0.00818009411            0.000477781311           
       1.992168             0.00681333519            0.000452432158           
       1.994808              0.0077423217            0.000480223662           
       1.997449             0.00736120497            0.000458638648           
       2.000089             0.00800070035            0.000476249945           
       2.002729             0.00786087915            0.000472353122           
       2.005370             0.00723927906            0.000448415579           
       2.008010             0.00692256998            0.000457634564           
       2.010650             0.00822851796            0.000502660263           
       2.013291             0.00725954611            0.000452989779           
       2.015931             0.00729265997            0.000450812311           
       2.018572             0.00729103536            0.000482132686           
       2.021212             0.00721980243            0.000471151777           
       2.023852             0.00798306668            0.000468901972           
       2.026493             0.00720882548            0.000465491601           
       2.029133             0.00749624552            0.000465128124           
       2.031774             0.00775125464            0.000496375054           
       2.034414              0.0074239567            0.000446987173           
       2.037054              0.0073229321            0.000455187779           
       2.039695             0.00780437577            0.000466363648           
       2.042335             0.00876093671            0.000513497315           
       2.044975             0.00760820085            0.000472720994           
       2.047616             0.00745337707            0.000466724174           
       2.050256              0.0066902853            0.000446371764           
       2.052897             0.00724539481            0.000473084792           
       2.055537              0.0072390255            0.000457017455           
       2.058177             0.00752383725            0.000456262447           
       2.060818             0.00776443129             0.00048555228           
       2.063458             0.00727870468            0.000489911168           
       2.066098              0.0068872564            0.000449551403           
       2.068739             0.00789614756            0.000488835343           
       2.071379             0.00757494898             0.00049127672           
       2.074020             0.00835531926            0.000504748868           
       2.076660              0.0072147876            0.000472827041           
       2.079300             0.00747319058            0.000493010733           
       2.081941             0.00744611445               0.000450589           
       2.084581             0.00731555127            0.000471412956           
       2.087222             0.00745470217            0.000458936213           
       2.089862             0.00719403723            0.000491034771           
       2.092502             0.00740377113            0.000482876708           
       2.095143             0.00753097627            0.000502907798           
       2.097783             0.00758359726            0.000488597487           
       2.100423             0.00751442771            0.000468656625           
       2.103064             0.00821178995            0.000508358484           
       2.105704             0.00787699396            0.000495421555           
       2.108345             0.00633063092            0.000426698059           
       2.110985             0.00695306937            0.000477623986           
       2.113625             0.00788005765            0.000512903845           
       2.116266             0.00745906401            0.000506094641           
       2.118906              0.0075235386            0.000473685895           
       2.121546             0.00800219741            0.000479194479           
       2.124187             0.00776976568             0.00049564722           
       2.126827             0.00721385118            0.000482917011           
       2.129468             0.00780603591            0.000503630597           
       2.132108              0.0070765796             0.00046653841           
       2.134748             0.00770019532            0.000484772898           
       2.137389             0.00759987859            0.000502433412           
       2.140029             0.00768121395            0.000452209621           
       2.142670             0.00754436552            0.000478961707           
       2.145310             0.00702544817            0.000449863923           
       2.147950             0.00858053715            0.000511719259           
       2.150591             0.00721627279            0.000464536303           
       2.153231             0.00843047873            0.000516832799           
       2.155871             0.00747633819            0.000470192223           
       2.158512             0.00730398906            0.000484924325           
       2.161152             0.00719694678            0.000466273245           
       2.163793             0.00715265953            0.000462743752           
       2.166433             0.00843355019            0.000515985973           
       2.169073             0.00770364333            0.000482172721           
       2.171714             0.00686550346            0.000451785195           
       2.174354             0.00694056897            0.000474647542           
       2.176995             0.00708830383            0.000477654198           
       2.179635             0.00677075654            0.000493308936           
       2.182275             0.00768583731            0.000496239084           
       2.184916             0.00679078785            0.000450530486           
       2.187556             0.00811430931            0.000487545388           
       2.190196             0.00799393111             0.00050568511           
       2.192837              0.0069061189            0.000467463409           
       2.195477             0.00637765841            0.000428280025           
       2.198118             0.00679929969            0.000453541742           
       2.200758             0.00703513665            0.000473307196           
       2.203398             0.00736069767            0.000487232012           
       2.206039              0.0077998639            0.000474680737           
       2.208679             0.00786758866            0.000487832062           
       2.211319             0.00730266334            0.000472701634           
       2.213960             0.00697215636            0.000468069354           
       2.216600             0.00588303491            0.000444783322           
       2.219241             0.00743956492            0.000478031671           
       2.221881             0.00781360932            0.000490908743           
       2.224521             0.00818765436            0.000508679349           
       2.227162             0.00762237463            0.000480978518           
       2.229802             0.00672169629            0.000465807706           
       2.232443             0.00850709015            0.000515766416           
       2.235083             0.00789416754            0.000511494431           
       2.237723             0.00745524795            0.000477012187           
       2.240364             0.00704906332            0.000475262597           
       2.243004             0.00795621308            0.000500887812           
       2.245644             0.00719216281            0.000480997086           
       2.248285             0.00766804136            0.000486705644           
       2.250925              0.0079876617            0.000499763087           
       2.253566             0.00749585717            0.000517575607           
       2.256206              0.0071441768            0.000495185029           
       2.258846             0.00783220466            0.000493219506           
       2.261487             0.00684899507            0.000484097104           
       2.264127              0.0076735428            0.000494876809           
       2.266767              0.0076044743            0.000505770018           
       2.269408              0.0077844404            0.000513815257           
       2.272048             0.00792350179            0.000515290044           
       2.274689             0.00760719842            0.000511552931           
       2.277329             0.00775517086            0.000486322028           
       2.279969             0.00716781058            0.000497672699           
       2.282610             0.00817130992            0.000516590399           
       2.285250             0.00702778631            0.000458546479           
       2.287891               0.007813167            0.000518374457           
       2.290531             0.00743214265            0.000512373019           
       2.293171             0.00657782398            0.000469536796           
       2.295812             0.00715497279            0.000487734265           
       2.298452             0.00746144195            0.000520849186           
       2.301092             0.00760985614            0.000488722105           
       2.303733             0.00774757044            0.000513021681           
       2.306373             0.00786212152            0.000524939218           
       2.309014             0.00767139151            0.000508417377           
       2.311654             0.00697654358            0.000505959404           
       2.314294              0.0069203224            0.000464260239           
       2.316935             0.00714378164            0.000473645015           
       2.319575             0.00655674961            0.000475443093           
       2.322215             0.00752282219            0.000530741094           
       2.324856             0.00763591224            0.000491615456           
       2.327496             0.00754331529            0.000519562422           
       2.330137             0.00723485038            0.000486910754           
       2.332777             0.00794491402            0.000526117519           
       2.335417             0.00780845246            0.000506010257           
       2.338058             0.00663859533             0.00048050539           
       2.340698              0.0069116895            0.000486436249           
       2.343339             0.00723300235            0.000508565085           
       2.345979             0.00691686658             0.00047051079           
       2.348619             0.00684951037            0.000485329184           
       2.351260             0.00723269511            0.000495814264           
       2.353900             0.00740058074            0.000499946923           
       2.356540             0.00754725713            0.000504160299           
       2.359181             0.00687002666            0.000474265582           
       2.361821             0.00632711709            0.000439653442           
       2.364462             0.00625634583            0.000457243612           
       2.367102             0.00780555748            0.000524854195           
       2.369742             0.00668700563            0.000511332217           
       2.372383             0.00790141731            0.000503300179           
       2.375023             0.00734438329            0.000510087287           
       2.377663             0.00702907252            0.000477134079           
       2.380304             0.00753664047            0.000502298586           
       2.382944             0.00696073959            0.000459781299           
       2.385585             0.00736321178            0.000504341996           
       2.388225             0.00726222186            0.000498517839           
       2.390865             0.00733951922            0.000496015798           
       2.393506             0.00654880239            0.000459696181           
       2.396146             0.00747677582            0.000531093875           
       2.398787             0.00739545121             0.00048677511           
       2.401427             0.00631941099            0.000434325553           
       2.404067              0.0071489553            0.000472257768           
       2.406708             0.00661921643            0.000448974561           
       2.409348             0.00691643058            0.000486799622           
       2.411988             0.00647592531            0.000461517494           
       2.414629             0.00735127036            0.000507034722           
       2.417269              0.0068827134            0.000496337948           
       2.419910             0.00647386821            0.000482487602           
       2.422550             0.00619407772             0.00045152909           
       2.425190             0.00776422214            0.000532880738           
       2.427831             0.00712415207             0.00050757407           
       2.430471             0.00716950137            0.000485098981           
       2.433112             0.00719132282            0.000473089095           
       2.435752             0.00756160416            0.000513404086           
       2.438392              0.0068719796            0.000472402896           
       2.441033             0.00718697955            0.000511998075           
       2.443673             0.00712912284            0.000510325091           
       2.446313             0.00691286858            0.000502968479           
       2.448954             0.00712309912            0.000486123733           
       2.451594             0.00681742864             0.00051135851           
       2.454235             0.00752764204            0.000504156884           
       2.456875             0.00623878285            0.000480249176           
       2.459515             0.00699759209            0.000521783902           
       2.462156               0.007043337             0.00049424429           
       2.464796             0.00827374652             0.00052876653           
       2.467436             0.00700624948            0.000503182486           
       2.470077             0.00768790878             0.00049958801           
       2.472717             0.00710552161            0.000482373107           
       2.475358             0.00801424807            0.000517632416           
       2.477998             0.00752073812            0.000492987952           
       2.480638             0.00678530241            0.000476584514           
       2.483279             0.00654500942            0.000489207376           
       2.485919             0.00757329216            0.000507148303           
       2.488560             0.00678804345            0.000478795151           
       2.491200             0.00645436453            0.000480761809           
       2.493840             0.00721052572            0.000537682746           
       2.496481             0.00681447214            0.000514157163           
       2.499121              0.0077390312            0.000532946979           
       2.501761              0.0073877321            0.000527609582           
       2.504402             0.00709614489            0.000509537929           
       2.507042             0.00634635737            0.000478297759           
       2.509683             0.00751565808            0.000512543589           
       2.512323             0.00710895568            0.000523530811           
       2.514963              0.0072480413            0.000522096493           
       2.517604             0.00692191875            0.000529427104           
       2.520244              0.0077627896            0.000525622507           
       2.522884             0.00776262824            0.000533133865           
       2.525525             0.00943164824            0.000594329431           
       2.528165             0.00809527243              0.0005420336           
       2.530806             0.00691606606            0.000509735266           
       2.533446             0.00700342471            0.000501996006           
       2.536086             0.00610722145            0.000464581876           
       2.538727             0.00767624703            0.000499678972           
       2.541367             0.00615758622             0.00045193807           
       2.544008             0.00720618236            0.000504921638           
       2.546648             0.00756048647            0.000526056486           
       2.549288             0.00726839348            0.000526304265           
       2.551929             0.00774947375            0.000534780162           
       2.554569             0.00729091542            0.000499740105           
       2.557209             0.00705000634            0.000495927496           
       2.559850              0.0064589985            0.000476209881           
       2.562490              0.0069702089            0.000511295242           
       2.565131             0.00689660485            0.000527327445           
       2.567771             0.00794853727             0.00054582193           
       2.570411             0.00631313586            0.000481177517           
       2.573052             0.00646909139            0.000493218756           
       2.575692             0.00794813336             0.00054339126           
       2.578332             0.00658904716            0.000496802303           
       2.580973             0.00669994812            0.000496199199           
       2.583613             0.00668895073             0.00048398653           
       2.586254             0.00670310255            0.000483824907           
       2.588894             0.00722964014            0.000521789301           
       2.591534             0.00746871108            0.000549008085           
       2.594175             0.00640898105            0.000498972623           
       2.596815             0.00754987178            0.000544759986           
       2.599456             0.00788918051             0.00052807424           
       2.602096             0.00688725682              0.0004971584           
       2.604736             0.00681239428              0.0005061735           
       2.607377             0.00605137307            0.000464491629           
       2.610017             0.00695364309            0.000489203824           
       2.612657             0.00813935814            0.000562960327           
       2.615298             0.00726835461            0.000519386364           
       2.617938             0.00713384431             0.00055044552           
       2.620579             0.00651854857             0.00050512008           
       2.623219             0.00734045663            0.000535255578           
       2.625859             0.00746105865            0.000524676318           
       2.628500             0.00666324598             0.00049258157           
       2.631140             0.00682806151            0.000506319503           
       2.633780             0.00712133974            0.000516629369           
       2.636421             0.00663828828            0.000511066268           
       2.639061             0.00693080032            0.000491595793           
       2.641702             0.00680709433            0.000498467582           
       2.644342             0.00735513707            0.000520352931           
       2.646982             0.00707103304            0.000502576792           
       2.649623             0.00647050792             0.00050381933           
       2.652263             0.00814851009            0.000559711978           
       2.654904             0.00639727401            0.000496431886           
       2.657544             0.00751265299             0.00050671287           
       2.660184             0.00765782277            0.000541406059           
       2.662825              0.0070801826            0.000532663757           
       2.665465              0.0059200309            0.000471078568           
       2.668105              0.0066998652            0.000528227246           
       2.670746             0.00696190688            0.000497420408           
       2.673386             0.00832784483            0.000560670347           
       2.676027             0.00847273346            0.000556450314           
       2.678667             0.00989238204            0.000586683165           
       2.681307               0.010815283            0.000602739744           
       2.683948              0.0147051726            0.000722118028           
       2.686588              0.0123408225            0.000650552911           
       2.689229             0.00994255891            0.000570590765           
       2.691869             0.00964320591            0.000593909814           
       2.694509             0.00886408859            0.000569725161           
       2.697150             0.00797598131             0.00053166325           
       2.699790             0.00747250563            0.000539494014           
       2.702430             0.00779909111            0.000526840048           
       2.705071             0.00693593526            0.000513381798           
       2.707711             0.00716303028            0.000506367028           
       2.710352             0.00678636046            0.000520782563           
       2.712992             0.00675492052             0.00052918177           
       2.715632             0.00739370983            0.000513666299           
       2.718273             0.00650949618            0.000499501126           
       2.720913              0.0066565135            0.000503673059           
       2.723553             0.00681253878            0.000512960564           
       2.726194             0.00700506186            0.000543736801           
       2.728834             0.00818930981            0.000588179794           
       2.731475             0.00786862564            0.000532103767           
       2.734115             0.00835871879            0.000565444961           
       2.736755             0.00727782685            0.000531962847           
       2.739396             0.00686796845            0.000513772713           
       2.742036             0.00640037885            0.000519069261           
       2.744677             0.00620984167            0.000496087031           
       2.747317             0.00667487652            0.000510659358           
       2.749957             0.00668157643            0.000514501099           
       2.752598             0.00813146621            0.000573745218           
       2.755238             0.00750038659            0.000560978923           
       2.757878             0.00758229905            0.000559102373           
       2.760519             0.00944253083            0.000617313215           
       2.763159              0.0106792537            0.000649935081           
       2.765800             0.00872723618             0.00055991704           
       2.768440             0.00801226256            0.000540443848           
       2.771080             0.00847566029            0.000560492515           
       2.773721             0.00752248217            0.000541657451           
       2.776361             0.00733832604             0.00054236694           
       2.779001             0.00703268647            0.000549854687           
       2.781642             0.00644075097            0.000522327833           
       2.784282             0.00650825104            0.000533691757           
       2.786923              0.0056978161            0.000503755378           
       2.789563              0.0056044041            0.000481182091           
       2.792203              0.0074577241            0.000530250521           
       2.794844              0.0073724883             0.00057781535           
       2.797484             0.00737268381            0.000545323947           
       2.800125             0.00636487173            0.000532777672           
       2.802765             0.00778815227            0.000579204675           
       2.805405             0.00657717793            0.000534074784           
       2.808046              0.0077247073            0.000588967937           
       2.810686             0.00552737372            0.000457794535           
       2.813326             0.00703013251            0.000536281872           
       2.815967              0.0071019653            0.000554340475           
       2.818607              0.0067304237            0.000514969697           
       2.821248             0.00766078562            0.000538004434           
       2.823888             0.00781834246            0.000564175864           
       2.826528             0.00663911629            0.000503488742           
       2.829169             0.00636122757            0.000516221258           
       2.831809             0.00701868932             0.00054961802           
       2.834449             0.00678626269            0.000543856426           
       2.837090             0.00719435076            0.000540842178           
       2.839730             0.00579319732            0.000482956817           
       2.842371             0.00698441643            0.000531056275           
       2.845011             0.00729488753            0.000547057296           
       2.847651             0.00646060726            0.000515457944           
       2.850292             0.00717437726            0.000548517032           
       2.852932             0.00690914867            0.000550013501           
       2.855573             0.00604508647            0.000499053032           
       2.858213             0.00631165711            0.000535496451           
       2.860853             0.00687253542            0.000519796809           
       2.863494              0.0060152842             0.00050349455           
       2.866134             0.00686964317            0.000559250642           
       2.868774             0.00673528461            0.000544227302           
       2.871415             0.00579351274             0.00051260868           
       2.874055             0.00637558841            0.000514015848           
       2.876696             0.00624332691            0.000522414718           
       2.879336              0.0071632566            0.000539328076           
       2.881976             0.00687919028            0.000545138232           
       2.884617             0.00769970825            0.000568263208           
       2.887257             0.00729189788            0.000555864021           
       2.889897             0.00699411497            0.000533191467           
       2.892538             0.00697610687            0.000583360739           
       2.895178             0.00609737151            0.000492717616           
       2.897819             0.00707803707            0.000541531889           
       2.900459             0.00749819656            0.000546530463           
       2.903099             0.00706580617            0.000525107739           
       2.905740             0.00656827242            0.000519381415           
       2.908380             0.00710356958            0.000546268194           
       2.911021             0.00707697437            0.000554109439           
       2.913661             0.00688944677            0.000546554884           
       2.916301             0.00638488381            0.000526662102           
       2.918942             0.00679528399            0.000519703348           
       2.921582             0.00643902261            0.000529313497           
       2.924222             0.00681716436            0.000527645751           
       2.926863              0.0073991195            0.000572582388           
       2.929503             0.00843969658            0.000618765961           
       2.932144             0.00756651271             0.00056241183           
       2.934784             0.00679888221            0.000524378779           
       2.937424                0.00607048            0.000500580524           
       2.940065             0.00715177601            0.000518292288           
       2.942705             0.00686115406            0.000507015431           
       2.945346             0.00785893868            0.000575868742           
       2.947986              0.0065846965            0.000537479912           
       2.950626             0.00664011939            0.000536698223           
       2.953267             0.00693863778             0.00053976532           
       2.955907             0.00531678341            0.000490143139           
       2.958547              0.0063210388            0.000504531478           
       2.961188             0.00692456414            0.000550922886           
       2.963828              0.0067006976            0.000530121647           
       2.966469             0.00695670727            0.000529888956           
       2.969109             0.00686162752            0.000534052687           
       2.971749             0.00739314005             0.00055089298           
       2.974390             0.00674191219            0.000516960974           
       2.977030             0.00754349274            0.000559050831           
       2.979670             0.00878208738             0.00058673166           
       2.982311                0.00926148            0.000624495144           
       2.984951             0.00750736244            0.000534753029           
       2.987592             0.00690518537            0.000523130239           
       2.990232             0.00776544406             0.00057694464           
       2.992872             0.00792729758            0.000549083537           
       2.995513             0.00798068204            0.000538990165           
       2.998153               0.011021939            0.000644059396           
       3.000794              0.0123545369            0.000660474177           
       3.003434              0.0125971372            0.000667934343           
       3.006074              0.0468421287             0.00126994834           
       3.008715               0.119425811             0.00195742556           
       3.011355               0.187704303              0.0023664417           
       3.013995              0.0934601523             0.00167437195           
       3.016636              0.0590981633             0.00130380749           
       3.019276                0.12797894             0.00188599381           
       3.021917               0.491770561             0.00355486787           
       3.024557                1.64199726             0.00638643346           
       3.027197                1.15108127             0.00521322346           
       3.029838               0.517879924             0.00354637685           
       3.032478               0.264827473             0.00253859383           
       3.035118              0.0687730216             0.00131101766           
       3.037759              0.0936834402             0.00152816485           
       3.040399               0.129510191              0.0018534058           
       3.043040               0.538441018             0.00382541504           
       3.045680                0.39600465             0.00308662445           
       3.048320              0.0875791002             0.00148313627           
       3.050961               0.104768341             0.00165075105           
       3.053601              0.0881801424             0.00145858891           
       3.056242              0.0559654465             0.00123545677           
       3.058882              0.0447338506             0.00118485506           
       3.061522              0.0356848388             0.00103827103           
       3.064163              0.0421857117             0.00111467439           
       3.066803               0.104463868             0.00184666424           
       3.069443               0.100636798             0.00189636236           
       3.072084              0.0552169417             0.00136778875           
       3.074724              0.0414730246              0.0013238235           
       3.077365              0.0829297865             0.00193783185           
       3.080005              0.0180689455            0.000909664399           
       3.082645              0.0114076774            0.000759310012           
       3.085286              0.0128650076            0.000812715463           
       3.087926             0.00995100472            0.000709262214           
       3.090566               0.010081444             0.00069947994           
       3.093207              0.0106551452            0.000748305356           
       3.095847             0.00970718308            0.000684590626           
       3.098488             0.00831461393            0.000702538127           
       3.101128              0.0099833687            0.000774767599           
       3.103768             0.00984030493            0.000754724967           
       3.106409             0.00837909957            0.000741198483           
       3.109049             0.00794990497            0.000692835127           
       3.111690             0.00792790681            0.000679998554           
       3.114330             0.00910240256            0.000744129831           
       3.116970             0.00778851071             0.00069361633           
       3.119611               0.011665071            0.000903554899           
       3.122251               0.019190707             0.00121227727           
       3.124891              0.0329818158             0.00160405908           
       3.127532              0.0253459915             0.00137564325           
       3.130172              0.0151575821             0.00108219716           
       3.132813             0.00894588306            0.000818471457           
       3.135453             0.00857854757            0.000794889261           
       3.138093             0.00533889475            0.000679467244           
       3.140734             0.00632744678            0.000682432518           
       3.143374             0.00774209354            0.000798312637           
       3.146014             0.00656160788            0.000791191047           
       3.148655             0.00682673752            0.000750197282           
       3.151295             0.00504081892            0.000686968137           
       3.153936              0.0066962387            0.000764830287           
       3.156576             0.00594698318            0.000710968134           
       3.159216             0.00539436877            0.000680516932           
       3.161857             0.00722207759             0.00078420319           
       3.164497             0.00779556557            0.000856061522           
       3.167138             0.00933588325             0.00096796975           
       3.169778             0.00619459134            0.000775476433           
       3.172418             0.00674015825            0.000800676757           
       3.175059              0.0060379199             0.00067183918           
       3.177699             0.00543432407            0.000674940628           
       3.180339             0.00606331505            0.000763850939           
       3.182980              0.0056395144            0.000761644416           
       3.185620             0.00587382712            0.000791619932           
       3.188261             0.00751898432             0.00091162775           
       3.190901             0.00598087311            0.000747775173           
       3.193541             0.00640160241            0.000812898169           
       3.196182             0.00706553412            0.000890003673           
       3.198822             0.00526254272            0.000768356302           
       3.201463             0.00516526691            0.000748107032           
       3.204103             0.00759138073            0.000901420372           
       3.206743             0.00749736968            0.000895737343           
       3.209384             0.00498524534            0.000789150683           
       3.212024             0.00651343699            0.000840976407           
       3.214664             0.00490237199            0.000829653439           
       3.217305             0.00630639443            0.000894474223           
       3.219945             0.00511700722            0.000829296013           
       3.222586             0.00485109483            0.000769092992           
       3.225226             0.00555430443            0.000912935599           
       3.227866             0.00614805553            0.000877880929           
       3.230507              0.0071321307            0.000980147491           
       3.233147             0.00741396086             0.00100739482           
       3.235787             0.00584627343            0.000915480198           
       3.238428              0.0046646851            0.000882455746           
       3.241068             0.00551224075            0.000896975434           
       3.243709             0.00450230689             0.00083753145           
       3.246349             0.00569472478            0.000858659622           
       3.248989             0.00412943199            0.000863371743           
       3.251630             0.00551783625            0.000961061238           
       3.254270             0.00400317799            0.000731601993           
       3.256911             0.00492650032            0.000885544952           
       3.259551             0.00479927374            0.000940977259           
       3.262191             0.00518533173            0.000999071974           
       3.264832             0.00546400573             0.00107156396           
       3.267472             0.00627372322             0.00107715406           
       3.270112             0.00652840157             0.00121431381           
       3.272753             0.00815365094             0.00124216231           
       3.275393             0.00630997292             0.00111497341           
       3.278034             0.00686371024              0.0011635222           
       3.280674             0.00720841228             0.00129389885           
       3.283314             0.00574302149             0.00103290493           
       3.285955              0.0063366434             0.00111945606           
       3.288595             0.00711329382             0.00131955479           
       3.291235             0.00435849355             0.00106181721           
       3.293876             0.00827576463              0.0014841643           
       3.296516             0.00464951152             0.00106797961           
       3.299157             0.00571467488             0.00116913191           
       3.301797             0.00900856828             0.00167440801           
       3.304437             0.00488307368             0.00106804346           
       3.307078             0.00875974872             0.00157578477           
       3.309718             0.00784373764             0.00153910377           
       3.312359             0.00393448532             0.00109031878           
       3.314999             0.00645520889              0.0013750437           
       3.317639             0.00725275099             0.00139393303           
       3.320280             0.00665933891             0.00142011546           
       3.322920             0.00469455974             0.00121242336           
       3.325560             0.00593915506             0.00136462758           
       3.328201              0.0045536867             0.00107615599           
       3.330841             0.00526694739             0.00140859464           
       3.333482             0.00603402542             0.00142510679           
       3.336122             0.00470442045             0.00125891526           
       3.338762             0.00537714914             0.00155474686           
       3.341403             0.00448496677             0.00135678845           
       3.344043             0.00260288876            0.000992359132           
       3.346683              0.0071016395               0.001673445           
       3.349324             0.00498726366             0.00157672777           
       3.351964             0.00777069931              0.0020812328           
       3.354605             0.00511463443             0.00193104378           
       3.357245             0.00528706114             0.00177112717           
       3.359885             0.00572523596              0.0014751115           
       3.362526             0.00171426005             0.00100940334           
       3.365166              0.0042030398             0.00149076425           
       3.367807             0.00779901806             0.00259889171           
       3.370447             0.00297170832             0.00133074528           
       3.373087              0.0033672526             0.00151480577           
       3.375728             0.00260019641              0.0015023164           
       3.378368             0.00376482759             0.00268287708           
       3.381008             0.00527588068             0.00236784815           
       3.383649             0.00410704626             0.00167592902           
       3.386289             0.00285113153             0.00165264659           
       3.388930             0.00722048927             0.00416004467           
       3.391570             0.00710706869             0.00291959375           
       3.394210            -2.5654922e-05                         0           
       3.396851             0.00237535774             0.00238938122           
       3.399491             0.00957902658             0.00479958529           
       3.402131            -2.5716712e-05                         0           
       3.404772           -2.57291242e-05                         0           
       3.407412                       nan                       nan           
       3.410053           -2.57924951e-05                         0           
       3.412693                       nan                       nan           
       3.415333           -2.58417841e-05                         0           
