################################################################################
# EDF_DataBlockID                     0.Image.Psd
# EDF_BinarySize                      2105344
# EDF_HeaderSize                      2560
# ByteOrder                           LowByteFirst
# DataType                            FloatValue
# Dim_1                               512
# Dim_2                               1028
# Image                               0
# HeaderID                            EH:000000:000000:000000
# Size                                2105344
# Center_1                            304.9000
# Center_2                            588.7000
# Comment                             Xenocs_Cell_Window - 20251028_20perc_iodine_1.23mg
# DDummy                              0.6
# Date                                2025-11-01T16:56:36
# Delta                               21.910000
# Dummy                               -1.5
# ExposureTime                        360
# Gamma                               15.360000
# Intensity1                          8.70278e-10
# PSize_1                             7.5e-05
# PSize_2                             7.5e-05
# Pressure                            0.0326328
# SampleDistance                      0.115750
# SampleEnvKind                       large
# SampleEnvPN                         ElectroChemical cell
# SampleEnvSN                         1141
# Thickness                           0
# Wavelength                          1.541891e-10
# Wavelength                          1.54189e-10
# aux                                 0
# aux_dial                            0.002375
# beamx                               588.434
# beamx_dial                          588.434
# beamz                               657.808
# beamz_dial                          657.808
# det0x                               0
# det0x_dial                          6.36945
# det0xvd                             0
# det0xvd_dial                        0
# det0y                               450.002
# det0y_dial                          481.635
# det0z                               0
# det0z_dial                          1.23302
# det0zvd                             0
# det0zvd_dial                        0
# mag                                 1.818
# mag_dial                            1.818
# om                                  0.2499
# om_dial                             -0.610199
# phi                                 -0.0120535
# phi_dial                            0
# ry                                  0.599993
# ry_dial                             0.599993
# s1bot                               0.8
# s1bot_dial                          -1.66094
# s1hl                                0.8
# s1hl_dial                           -0.608437
# s1hr                                0.8
# s1hr_dial                           0.970938
# s1top                               0.8
# s1top_dial                          -0.461562
# s2bot                               0.45
# s2bot_dial                          1.36109
# s2hl                                0.45
# s2hl_dial                           -0.83375
# s2hr                                0.45
# s2hr_dial                           -0.118594
# s2top                               0.45
# s2top_dial                          1.44734
# w2theta                             32
# w2theta_dial                        32
# waxsch                              19.2605
# waxsch_dial                         -32.7355
# waxsh                               137.085
# waxsh_dial                          -43.5338
# waxsth                              26.0607
# waxsth_dial                         -19.4086
# waxsz                               67.0407
# waxsz_dial                          -23.7954
# wind                                65.9854
# wind_dial                           66.0041
# wpsi                                124
# wpsi_dial                           124
# wstod                               115
# wstod_dial                          115
# x                                   0
# x_dial                              1.00969
# z                                   0
# z_dial                              13.3172
# CountCutoff                         6807993
# DetectorModel                       Dectris EIGER2 Si 500K, S/N E-01-0554
# ThresholdSetting                    4023.88989258
# Saturation                          0
# FlatField                           Corrected
# BackgroundReductionExtra            0.02
# BackgroundCorrectionConstant        0.0026712
# Detector                            0
# Monitor                             0
# Pil_Roi0                            0
# SumForIntensity1                    3.133e+08
# TransmittedFlux                     870278
# det                                 0
# mon                                 0
# pilai0                              3.133e+08
# pilai1                              789006
# pilct0                              5.41528e+08
# pilct1                              789006
# pilroi0                             0
# pilroi1                             0
# sec                                 1
# title                               20251028_20perc_iodine_1.23mg_1_00896.edf
# usaxs0                              0
# Operation                           Azimuthal average I(q)
# Error_model                         ErrorModel.poisson
# Geometrical_correction              True
# Transmission_correction             True
# Thickness_correction                False
# Binning mode                        Uniform
# Binning factor                      1.0
# Psi                                 0.0
# Omega                               0.2499
# MaskInvalidPixels                   True
# DetectorEdge                        3
# MaskFiles                           ['WAXS_corrected.edf']
################################################################################
    q(A⁻¹)                Intensity(a.u.)            Sigma_I(a.u.)            
       0.693100              0.0162642353             0.00842756071           
       0.695741             0.00555273967             0.00401833779           
       0.698381             0.00822132946             0.00598930829           
       0.701021           -2.32928201e-05                         0           
       0.703662           -2.32821056e-05                         0           
       0.706302             0.00852280842             0.00385252803           
       0.708942             0.00839867531             0.00493606529           
       0.711583           -2.32428295e-05                         0           
       0.714223             0.00863231572             0.00500293512           
       0.716864             0.00980552063             0.00348872972           
       0.719504             0.00866438835              0.0035389042           
       0.722144             0.00617365318             0.00276641789           
       0.724785             0.00467708154             0.00192072657           
       0.727425             0.00871481324             0.00354688546           
       0.730065             0.00641088854             0.00215188199           
       0.732706             0.00908916664              0.0021516425           
       0.735346             0.00430657581             0.00193062641           
       0.737987              0.0076789374             0.00182171246           
       0.740627             0.00664323375             0.00252816559           
       0.743267             0.00900541977              0.0019715595           
       0.745908             0.00814981525             0.00203488802           
       0.748548             0.00601960472             0.00161200006           
       0.751189             0.00469980166             0.00191927568           
       0.753829              0.0099396918             0.00256571941           
       0.756469             0.00726421504              0.0017686846           
       0.759110              0.0105408061             0.00224524374           
       0.761750             0.00854714042             0.00178771245           
       0.764390             0.00533634165             0.00147847684           
       0.767031             0.00705049646             0.00147164047           
       0.769671             0.00476463162             0.00150911097           
       0.772312             0.00963140122              0.0016334378           
       0.774952             0.00554197724             0.00167320806           
       0.777592             0.00670622424             0.00134064504           
       0.780233             0.00781642318             0.00174623454           
       0.782873             0.00604491921             0.00146871125           
       0.785513             0.00979534837              0.0019987335           
       0.788154             0.00712483738             0.00142598939           
       0.790794             0.00569834178             0.00152462171           
       0.793435             0.00888265516             0.00171005261           
       0.796075             0.00731464669             0.00149486134           
       0.798715             0.00723088114             0.00175635617           
       0.801356             0.00561968176             0.00133262745           
       0.803996             0.00722850754             0.00154088394           
       0.806637             0.00454468322            0.000972320936           
       0.809277             0.00831105036             0.00142320388           
       0.811917             0.00831549644             0.00133082485           
       0.814558             0.00569909372             0.00114506349           
       0.817198             0.00814764733             0.00130073198           
       0.819838             0.00870615092             0.00136080851           
       0.822479              0.0046972488             0.00117374783           
       0.825119             0.00614773675             0.00114288984           
       0.827760              0.0087258162             0.00137924878           
       0.830400             0.00729869648             0.00118723703           
       0.833040             0.00548720092             0.00107850925           
       0.835681             0.00628736338             0.00131243503           
       0.838321               0.007925464             0.00123677187           
       0.840961             0.00617359258              0.0011893022           
       0.843602             0.00631667681             0.00110320507           
       0.846242             0.00863959311              0.0012900121           
       0.848883             0.00728034591             0.00121185294           
       0.851523             0.00726755008             0.00119574728           
       0.854163             0.00643772309             0.00119682514           
       0.856804             0.00623748532             0.00105924217           
       0.859444              0.0086185828              0.0012199692           
       0.862085             0.00654867266             0.00110835686           
       0.864725              0.0072826903              0.0011961701           
       0.867365             0.00626153751             0.00102849791           
       0.870006             0.00887618182              0.0011669007           
       0.872646             0.00658016254             0.00105357357           
       0.875286             0.00653775077             0.00101033116           
       0.877927             0.00666543911            0.000984396992           
       0.880567             0.00859661517              0.0011582116           
       0.883208             0.00703291718             0.00103772214           
       0.885848             0.00790066167             0.00114200577           
       0.888488             0.00782082322             0.00106570514           
       0.891129             0.00747833558             0.00107002884           
       0.893769             0.00713011121            0.000999919185           
       0.896410             0.00751911855            0.000957369042           
       0.899050             0.00914031003             0.00116081152           
       0.901690             0.00718150293             0.00112081172           
       0.904331             0.00771735292              0.0010300656           
       0.906971             0.00605568065            0.000970703454           
       0.909611             0.00748386601            0.000982340863           
       0.912252             0.00741908597             0.00101025399           
       0.914892             0.00838294068             0.00117351602           
       0.917533             0.00761219474             0.00105787713           
       0.920173             0.00822610182             0.00102031268           
       0.922813             0.00737897982             0.00101407535           
       0.925454              0.0069974546            0.000889226793           
       0.928094             0.00575101565            0.000860630942           
       0.930734             0.00834924474             0.00111641824           
       0.933375             0.00818637834             0.00109460826           
       0.936015             0.00722979217            0.000934251611           
       0.938656             0.00863617301             0.00109538223           
       0.941296             0.00812197763            0.000962711347           
       0.943936             0.00702720016            0.000878157887           
       0.946577             0.00877599209            0.000974874772           
       0.949217             0.00750566028            0.000829067212           
       0.951858             0.00798951006            0.000895404455           
       0.954498             0.00739833822            0.000997334039           
       0.957138             0.00784229196            0.000972773059           
       0.959779             0.00656704993            0.000877529178           
       0.962419             0.00843762206            0.000988070669           
       0.965059             0.00740519224            0.000973540117           
       0.967700             0.00710644928            0.000976778573           
       0.970340             0.00808522142             0.00092195655           
       0.972981             0.00801178309            0.000836167344           
       0.975621             0.00742738849            0.000856481468           
       0.978261              0.0081120833            0.000850491722           
       0.980902              0.0078806205             0.00100294864           
       0.983542             0.00751134016            0.000867117057           
       0.986182             0.00801133955            0.000879208533           
       0.988823             0.00737623033            0.000819174764           
       0.991463             0.00859851193            0.000943610858           
       0.994104             0.00835862861            0.000907575836           
       0.996744              0.0081080992            0.000911741458           
       0.999384             0.00663838757            0.000737808192           
       1.002025             0.00733917211            0.000865867245           
       1.004665             0.00752330243            0.000801160329           
       1.007306              0.0094607141            0.000893816705           
       1.009946             0.00694719712            0.000781145469           
       1.012586             0.00848799615            0.000840934927           
       1.015227             0.00729239892            0.000837386338           
       1.017867             0.00854156451            0.000870991694           
       1.020507             0.00919868379            0.000875525311           
       1.023148             0.00844364583            0.000905114067           
       1.025788             0.00692886334            0.000751798226           
       1.028429              0.0076076474            0.000825311124           
       1.031069             0.00873176147            0.000832052648           
       1.033709             0.00778474903            0.000835134556           
       1.036350             0.00917929531            0.000814481576           
       1.038990             0.00764000261            0.000756713821           
       1.041630             0.00709837831            0.000760769337           
       1.044271             0.00778274275            0.000749172443           
       1.046911             0.00814518729             0.00080617231           
       1.049552             0.00855040943            0.000867799314           
       1.052192             0.00815420543            0.000773833884           
       1.054832             0.00823171279            0.000784575739           
       1.057473              0.0100419106            0.000854243844           
       1.060113             0.00746832295             0.00071847382           
       1.062754             0.00777174396            0.000748301968           
       1.065394              0.0096714385             0.00088256026           
       1.068034             0.00814307483            0.000736832869           
       1.070675             0.00894249705            0.000805451962           
       1.073315             0.00896943845            0.000818226827           
       1.075955             0.00751990209            0.000707286673           
       1.078596              0.0085575614            0.000801893324           
       1.081236             0.00867751701            0.000773228237           
       1.083877             0.00839028419            0.000753502728           
       1.086517             0.00775446123            0.000776757823           
       1.089157             0.00771773286            0.000804062284           
       1.091798              0.0086778654            0.000747498708           
       1.094438             0.00849755549            0.000737304723           
       1.097078             0.00847813853            0.000706344209           
       1.099719              0.0085402537            0.000766812946           
       1.102359             0.00978526709            0.000768694407           
       1.105000             0.00906131066              0.0008271426           
       1.107640             0.00884291999            0.000781293989           
       1.110280             0.00796892629             0.00067672639           
       1.112921             0.00929041656            0.000784914783           
       1.115561             0.00960366664            0.000758468097           
       1.118202             0.00732190861            0.000662887701           
       1.120842             0.00974040841            0.000803566429           
       1.123482             0.00841886772            0.000743804935           
       1.126123             0.00881110473            0.000729863879           
       1.128763             0.00845071767             0.00071968257           
       1.131403             0.00933617334            0.000728901702           
       1.134044             0.00796422872            0.000692744005           
       1.136684             0.00925407112            0.000796150499           
       1.139325              0.0101072817            0.000766477372           
       1.141965             0.00811309577            0.000691253076           
       1.144605             0.00867029278            0.000681369519           
       1.147246              0.0080506319            0.000671942246           
       1.149886             0.00857912123            0.000691184355           
       1.152527             0.00853063796            0.000699251302           
       1.155167              0.0100539888            0.000722040892           
       1.157807             0.00906350613            0.000735034409           
       1.160448             0.00853734269            0.000696633804           
       1.163088             0.00900042934            0.000682269851           
       1.165728             0.00849364656            0.000680492304           
       1.168369             0.00937403097            0.000721494731           
       1.171009               0.009821487            0.000716707577           
       1.173650             0.00858596379            0.000687695487           
       1.176290              0.0094730478            0.000705896098           
       1.178930             0.00818097472            0.000642931736           
       1.181571             0.00992840472            0.000722320617           
       1.184211             0.00934883423             0.00070340606           
       1.186851             0.00935593732            0.000687971173           
       1.189492             0.00840004733            0.000647494165           
       1.192132             0.00867991811            0.000650807384           
       1.194773              0.0097448017            0.000692587378           
       1.197413              0.0096310027            0.000659710671           
       1.200053             0.00878636404            0.000646129032           
       1.202694              0.0103922151            0.000668225594           
       1.205334             0.00932422441            0.000682131414           
       1.207975             0.00876101783            0.000631142955           
       1.210615              0.0100684795            0.000746405462           
       1.213255              0.0104796567            0.000681900201           
       1.215896              0.0107074264            0.000701759623           
       1.218536             0.00953294041            0.000636689791           
       1.221176             0.00970690672            0.000698499958           
       1.223817             0.00972418273            0.000656276994           
       1.226457             0.00957986211             0.00066451181           
       1.229098              0.0103693492            0.000691317685           
       1.231738              0.0106587968            0.000704349493           
       1.234378             0.00972117044            0.000632061953           
       1.237019              0.0100115378             0.00066098982           
       1.239659             0.00912752517            0.000625635204           
       1.242299              0.0105926986            0.000665418462           
       1.244940             0.00829559324            0.000572707499           
       1.247580             0.00960425177            0.000635072591           
       1.250221              0.0100750217            0.000646437499           
       1.252861              0.0100967912             0.00061607612           
       1.255501             0.00913283057            0.000636207479           
       1.258142               0.010210806            0.000632129117           
       1.260782              0.0115105672            0.000685679028           
       1.263423              0.0107088777            0.000635501755           
       1.266063             0.00973701998            0.000621111436           
       1.268703              0.0110570698            0.000656383545           
       1.271344              0.0110244027            0.000677625648           
       1.273984              0.0100581974            0.000625116276           
       1.276624              0.0103244668            0.000621438339           
       1.279265              0.0103837265            0.000633568765           
       1.281905              0.0115727994            0.000671830243           
       1.284546             0.00994439425            0.000601966205           
       1.287186             0.00953888909            0.000578426024           
       1.289826              0.0101363068            0.000628413736           
       1.292467                 0.0101778            0.000615829007           
       1.295107             0.00967270971            0.000594390123           
       1.297747               0.010672953            0.000597467176           
       1.300388              0.0108802801            0.000657610264           
       1.303028             0.00900492111            0.000571132977           
       1.305669              0.0102845945            0.000624900144           
       1.308309                0.01168523            0.000659534763           
       1.310949              0.0100043958            0.000609646129           
       1.313590              0.0107966542            0.000613528471           
       1.316230             0.00979893148            0.000623735438           
       1.318871              0.0116295543            0.000665491621           
       1.321511              0.0108995928            0.000632325777           
       1.324151              0.0108758533            0.000612911087           
       1.326792              0.0117090866            0.000639888096           
       1.329432              0.0109042866             0.00061314834           
       1.332072              0.0114290235            0.000618372917           
       1.334713              0.0110958785            0.000628851648           
       1.337353              0.0114162093            0.000611724618           
       1.339994               0.011566876            0.000646166224           
       1.342634              0.0119330116            0.000629363295           
       1.345274              0.0113362232            0.000634835916           
       1.347915              0.0109434133            0.000606515637           
       1.350555              0.0102202913            0.000596399903           
       1.353195              0.0117068032            0.000641435366           
       1.355836              0.0108129666            0.000606849241           
       1.358476              0.0116223364            0.000611001439           
       1.361117              0.0120108566            0.000621982571           
       1.363757              0.0107221541            0.000605612464           
       1.366397              0.0106741921             0.00058597091           
       1.369038              0.0103967614            0.000584064175           
       1.371678              0.0106596401            0.000586188185           
       1.374319              0.0118993321            0.000614004055           
       1.376959              0.0115045475            0.000597661263           
       1.379599              0.0113283082            0.000635586922           
       1.382240              0.0107958935             0.00058314991           
       1.384880              0.0100301222            0.000595378519           
       1.387520               0.011101687            0.000594887833           
       1.390161              0.0118873345            0.000584650886           
       1.392801              0.0113109909            0.000594199134           
       1.395442              0.0102553397            0.000573519303           
       1.398082              0.0120482862             0.00058213435           
       1.400722              0.0121099677            0.000611331245           
       1.403363              0.0116477531             0.00063110034           
       1.406003              0.0108288177            0.000569483809           
       1.408644              0.0113464126            0.000610662336           
       1.411284              0.0107548373            0.000562967158           
       1.413924              0.0111626439            0.000571415002           
       1.416565              0.0103214767            0.000547305362           
       1.419205              0.0113990738            0.000599990417           
       1.421845              0.0111443592            0.000592900747           
       1.424486              0.0115181565            0.000579392927           
       1.427126              0.0111911687            0.000593272377           
       1.429767              0.0107298473            0.000546571139           
       1.432407              0.0103534683            0.000561877681           
       1.435047               0.011151809            0.000547663586           
       1.437688              0.0104391858            0.000537798907           
       1.440328              0.0111284329            0.000566714579           
       1.442968              0.0109950331            0.000575928876           
       1.445609              0.0108786401            0.000554699338           
       1.448249              0.0120325569            0.000598147717           
       1.450890              0.0108851148            0.000565199903           
       1.453530              0.0116478394            0.000611678824           
       1.456170              0.0106970371            0.000568903421           
       1.458811              0.0111890911            0.000556368582           
       1.461451              0.0126906983            0.000594081081           
       1.464092              0.0115905916            0.000571460034           
       1.466732              0.0110857952            0.000554074747           
       1.469372              0.0108006104            0.000534102286           
       1.472013              0.0108699986            0.000577887401           
       1.474653              0.0112504644            0.000578844554           
       1.477293              0.0109517464            0.000583145284           
       1.479934              0.0111301125            0.000560955383           
       1.482574              0.0104035918            0.000524627474           
       1.485215               0.010919523            0.000547489305           
       1.487855              0.0100577338            0.000532372334           
       1.490495              0.0117156359             0.00057246102           
       1.493136              0.0120194539            0.000571888495           
       1.495776              0.0110348599            0.000545469409           
       1.498416               0.010605557            0.000552249233           
       1.501057              0.0111822827            0.000554568714           
       1.503697             0.00995754944            0.000511627634           
       1.506338              0.0105057151            0.000535124717           
       1.508978              0.0113767597            0.000551390616           
       1.511618              0.0113275847            0.000585957824           
       1.514259              0.0104904486            0.000544409799           
       1.516899              0.0107224566            0.000535904218           
       1.519540             0.00992351615            0.000523866072           
       1.522180              0.0106289447            0.000546928999           
       1.524820              0.0106801907             0.00054516997           
       1.527461              0.0106472802             0.00054702144           
       1.530101              0.0103030391            0.000532724176           
       1.532741              0.0105847843            0.000536825357           
       1.535382              0.0104269276             0.00054138488           
       1.538022              0.0113290307             0.00053161794           
       1.540663              0.0103817764             0.00054736174           
       1.543303                0.01147224            0.000534259499           
       1.545943              0.0117734912            0.000572850556           
       1.548584              0.0114329756            0.000574638947           
       1.551224              0.0102393665            0.000502809263           
       1.553864              0.0104289396            0.000536207779           
       1.556505              0.0105118128            0.000520044622           
       1.559145              0.0103729722              0.0005229271           
       1.561786              0.0101631246            0.000518009249           
       1.564426             0.00978724551            0.000492528353           
       1.567066               0.010898901            0.000544595511           
       1.569707              0.0115042172            0.000549463727           
       1.572347             0.00993549139            0.000527530432           
       1.574988             0.00941058657            0.000488676712           
       1.577628              0.0104442008            0.000536824749           
       1.580268             0.00971798133            0.000501717207           
       1.582909               0.010186684            0.000544473758           
       1.585549             0.00912392403             0.00050032972           
       1.588189             0.00999590309            0.000512262872           
       1.590830              0.0099111831            0.000509447203           
       1.593470               0.009955536            0.000530802925           
       1.596111             0.00860114106            0.000481689354           
       1.598751              0.0102370227            0.000509195552           
       1.601391             0.00930637362            0.000496210069           
       1.604032             0.00935808209            0.000507988824           
       1.606672             0.00963673076            0.000500853643           
       1.609312              0.0088098291            0.000499898187           
       1.611953             0.00969353597            0.000513130027           
       1.614593             0.00935878037            0.000494572414           
       1.617234               0.008593058            0.000491147332           
       1.619874             0.00866281735            0.000491188879           
       1.622514             0.00901184595            0.000494152082           
       1.625155              0.0107249673            0.000542262762           
       1.627795             0.00921993796            0.000490458504           
       1.630436              0.0096082688            0.000498066301           
       1.633076             0.00959140709            0.000504155682           
       1.635716             0.00886548371            0.000477160351           
       1.638357             0.00916700704            0.000486485769           
       1.640997             0.00920106618            0.000502152669           
       1.643637             0.00907480941            0.000485286937           
       1.646278             0.00912725808            0.000501979058           
       1.648918             0.00930214713            0.000508147919           
       1.651559             0.00950552297            0.000517659646           
       1.654199             0.00940134388            0.000500702901           
       1.656839             0.00944929646            0.000502153445           
       1.659480             0.00971453963            0.000528272056           
       1.662120             0.00861735752            0.000468606737           
       1.664761              0.0085827202            0.000485782196           
       1.667401             0.00936618454            0.000485032772           
       1.670041             0.00927606221            0.000490053603           
       1.672682             0.00911778341            0.000483857741           
       1.675322             0.00877165383            0.000471532964           
       1.677962             0.00969067728            0.000490152178           
       1.680603             0.00853958575            0.000461537139           
       1.683243             0.00882704651             0.00048956548           
       1.685884             0.00901609999             0.00049843412           
       1.688524             0.00870383123            0.000480260052           
       1.691164             0.00940249307            0.000499276709           
       1.693805             0.00865508189            0.000484284164           
       1.696445             0.00934111657            0.000506029707           
       1.699085             0.00871073342            0.000472282867           
       1.701726             0.00893504863             0.00046078286           
       1.704366             0.00948326252            0.000500092084           
       1.707007              0.0094016143            0.000486835105           
       1.709647             0.00815090617            0.000458416938           
       1.712287             0.00844330494            0.000470628036           
       1.714928             0.00964093311            0.000506954044           
       1.717568             0.00862844683            0.000451781146           
       1.720209              0.0085659078            0.000471491383           
       1.722849             0.00774154073            0.000445925443           
       1.725489             0.00870748129            0.000473324894           
       1.728130             0.00858348914            0.000499417508           
       1.730770             0.00932531824             0.00049438398           
       1.733410             0.00741577148            0.000433940131           
       1.736051             0.00805128729            0.000455299029           
       1.738691             0.00844582832            0.000456868294           
       1.741332             0.00856199724            0.000473450271           
       1.743972             0.00943767826            0.000513311384           
       1.746612             0.00859373898            0.000470355187           
       1.749253             0.00853894422            0.000478112364           
       1.751893             0.00828221219            0.000467413774           
       1.754533             0.00792700104            0.000456853565           
       1.757174              0.0083187223            0.000463622779           
       1.759814             0.00873333483            0.000467835359           
       1.762455             0.00830584098            0.000464619066           
       1.765095             0.00898122261            0.000462182105           
       1.767735              0.0085761688            0.000465572719           
       1.770376             0.00771862679            0.000442847602           
       1.773016             0.00803696659            0.000448860666           
       1.775657             0.00868552607            0.000459906169           
       1.778297             0.00868344461             0.00045589134           
       1.780937             0.00748275048            0.000446687751           
       1.783578             0.00935267424            0.000486904787           
       1.786218             0.00847464695            0.000483698714           
       1.788858              0.0091167505            0.000476483038           
       1.791499              0.0089235965            0.000466114107           
       1.794139             0.00929415702            0.000471834187           
       1.796780             0.00842159914            0.000446974687           
       1.799420             0.00836427961             0.00044298418           
       1.802060             0.00860438101             0.00045292636           
       1.804701             0.00902525887            0.000445152121           
       1.807341             0.00929173671            0.000474613283           
       1.809981             0.00903093555            0.000469465151           
       1.812622             0.00925601021            0.000466722733           
       1.815262             0.00951936239            0.000483370085           
       1.817903             0.00803763221              0.0004375794           
       1.820543             0.00825727819            0.000450429023           
       1.823183             0.00959186657            0.000485199845           
       1.825824             0.00868353623             0.00044104634           
       1.828464             0.00861331232            0.000457946858           
       1.831105             0.00806740262            0.000430943589           
       1.833745             0.00845313874            0.000450547012           
       1.836385             0.00798947127            0.000450516461           
       1.839026             0.00804707888            0.000450709249           
       1.841666             0.00836666899            0.000457942468           
       1.844306             0.00775560708            0.000428872225           
       1.846947             0.00858425906             0.00045515755           
       1.849587             0.00885224695            0.000510389264           
       1.852228             0.00781186159            0.000433550315           
       1.854868             0.00816424636            0.000468197389           
       1.857508             0.00834532442            0.000468718406           
       1.860149             0.00832645862            0.000476694616           
       1.862789              0.0081077076            0.000454036222           
       1.865429             0.00775484419            0.000463516126           
       1.868070             0.00755080056            0.000451281475           
       1.870710             0.00845558685            0.000466544617           
       1.873351             0.00798708842            0.000459041033           
       1.875991             0.00870379242            0.000487014717           
       1.878631             0.00801402261            0.000458368456           
       1.881272             0.00865904074            0.000473265281           
       1.883912             0.00692150922            0.000440351547           
       1.886553             0.00824392777            0.000475207679           
       1.889193             0.00791882802            0.000464947716           
       1.891833             0.00900135581            0.000514814104           
       1.894474             0.00750940426            0.000466122836           
       1.897114             0.00845528568            0.000478622548           
       1.899754             0.00729179428            0.000446333565           
       1.902395             0.00721339299            0.000435248277           
       1.905035             0.00790722313            0.000482662935           
       1.907676             0.00870837415            0.000477400872           
       1.910316             0.00854973161             0.00048559224           
       1.912956             0.00793530647            0.000457526391           
       1.915597             0.00817945412            0.000467107579           
       1.918237             0.00819377731            0.000482830665           
       1.920878             0.00800142818            0.000475176577           
       1.923518             0.00765342632            0.000464925591           
       1.926158              0.0078116187            0.000463610772           
       1.928799             0.00835722797            0.000473977498           
       1.931439              0.0078053589            0.000470075171           
       1.934079             0.00735998085            0.000475855431           
       1.936720              0.0068632827            0.000425756878           
       1.939360             0.00814285626            0.000494756798           
       1.942001             0.00787293186            0.000445890665           
       1.944641             0.00839571823            0.000469526949           
       1.947281             0.00766582745            0.000444518096           
       1.949922             0.00772137301            0.000460808333           
       1.952562              0.0087163123            0.000504944536           
       1.955202              0.0079857983            0.000482732726           
       1.957843             0.00722222702            0.000447169347           
       1.960483             0.00740375992            0.000473354054           
       1.963124             0.00809580125            0.000484827738           
       1.965764             0.00795490184            0.000453210065           
       1.968404             0.00744568386             0.00043432171           
       1.971045             0.00806247003            0.000460789876           
       1.973685             0.00770718583            0.000472564798           
       1.976326             0.00752248103            0.000460451382           
       1.978966                0.00771037            0.000470257268           
       1.981606              0.0076847473            0.000479266458           
       1.984247             0.00749324978            0.000470145889           
       1.986887             0.00797964886             0.00047935325           
       1.989527             0.00717491534            0.000449644955           
       1.992168             0.00824714911            0.000500192112           
       1.994808             0.00808871541            0.000493240868           
       1.997449             0.00710946594            0.000452924704           
       2.000089             0.00777690254            0.000471830043           
       2.002729             0.00793407871            0.000476859907           
       2.005370             0.00823685214            0.000480645627           
       2.008010             0.00735709218            0.000474077743           
       2.010650             0.00809509431             0.00050099804           
       2.013291             0.00750073898            0.000462697361           
       2.015931             0.00778493398            0.000468049277           
       2.018572             0.00793770887            0.000505511318           
       2.021212             0.00744354225            0.000480727905           
       2.023852             0.00766706756            0.000461767276           
       2.026493             0.00773779956            0.000484618131           
       2.029133             0.00791957241            0.000480410944           
       2.031774              0.0081937459            0.000512833655           
       2.034414             0.00767496511            0.000456695652           
       2.037054             0.00716608792            0.000452481141           
       2.039695             0.00782448036             0.00046923963           
       2.042335             0.00801425241            0.000493521117           
       2.044975             0.00718510751            0.000461627708           
       2.047616             0.00764773923            0.000475074381           
       2.050256             0.00696552975             0.00045768091           
       2.052897             0.00707019289            0.000469607384           
       2.055537             0.00789214233            0.000479514247           
       2.058177             0.00731529103            0.000452087147           
       2.060818             0.00747355946            0.000478692084           
       2.063458             0.00864792643            0.000536608577           
       2.066098             0.00722842601            0.000462795821           
       2.068739              0.0074224954            0.000476256884           
       2.071379              0.0078173402            0.000501507188           
       2.074020             0.00790660001            0.000493401017           
       2.076660             0.00762975801            0.000488604249           
       2.079300             0.00633281742             0.00045605073           
       2.081941             0.00770422491             0.00046056564           
       2.084581             0.00717357822            0.000469091141           
       2.087222             0.00758508836            0.000465188348           
       2.089862             0.00772058814            0.000511166549           
       2.092502             0.00753912675            0.000489645327           
       2.095143             0.00713161021            0.000491776596           
       2.097783             0.00725386695            0.000480186247           
       2.100423             0.00711289822            0.000458185593           
       2.103064             0.00823863596            0.000511670222           
       2.105704             0.00789731687            0.000498477718           
       2.108345             0.00682192871            0.000445104603           
       2.110985             0.00629589228            0.000456707159           
       2.113625             0.00734868826            0.000497722755           
       2.116266             0.00717952811            0.000498940603           
       2.118906             0.00731644208            0.000469397392           
       2.121546               0.007377238            0.000462344185           
       2.124187             0.00716653679            0.000478337807           
       2.126827              0.0068475619            0.000472789937           
       2.129468             0.00838198147            0.000524422732           
       2.132108             0.00779617631              0.0004920711           
       2.134748             0.00751033099            0.000481092212           
       2.137389             0.00717531492            0.000490576788           
       2.140029             0.00702058406            0.000434433008           
       2.142670              0.0078098671            0.000489691517           
       2.145310              0.0072454995            0.000459081341           
       2.147950             0.00729889546            0.000474257735           
       2.150591             0.00655996024            0.000445066717           
       2.153231             0.00771429831            0.000496802176           
       2.155871             0.00695571753            0.000455735928           
       2.158512             0.00689687802             0.00047351257           
       2.161152             0.00732533626            0.000472706375           
       2.163793             0.00704978173            0.000461642675           
       2.166433             0.00756257293            0.000490996949           
       2.169073             0.00803190871            0.000494737992           
       2.171714             0.00735403072            0.000469861484           
       2.174354             0.00773998792            0.000503680534           
       2.176995             0.00745544932            0.000492255611           
       2.179635             0.00694685174            0.000502117925           
       2.182275             0.00749529855            0.000492437556           
       2.184916             0.00701228699            0.000460050249           
       2.187556              0.0069805183            0.000454406395           
       2.190196             0.00753000154            0.000493183825           
       2.192837              0.0074796654            0.000488858317           
       2.195477             0.00780952474            0.000476234464           
       2.198118             0.00670491435            0.000452577663           
       2.200758             0.00749798385            0.000491010089           
       2.203398             0.00759065556            0.000497195619           
       2.206039             0.00652238728            0.000436186996           
       2.208679             0.00767694342            0.000484233704           
       2.211319             0.00731564206            0.000475427189           
       2.213960             0.00776322245            0.000496316816           
       2.216600             0.00692793749            0.000485021609           
       2.219241             0.00595686866             0.00042983645           
       2.221881             0.00835048041            0.000509966887           
       2.224521             0.00686064542            0.000467905522           
       2.227162             0.00677458527            0.000455651934           
       2.229802             0.00647823581            0.000459522657           
       2.232443             0.00733832711            0.000481362664           
       2.235083             0.00743721299            0.000498889285           
       2.237723              0.0060645799            0.000432324767           
       2.240364             0.00650617484             0.00045881977           
       2.243004             0.00754461941            0.000490136738           
       2.245644             0.00624056655            0.000450231656           
       2.248285             0.00665054818            0.000455474648           
       2.250925             0.00773589234            0.000494220641           
       2.253566             0.00637828178            0.000479762531           
       2.256206             0.00769969596            0.000516582303           
       2.258846             0.00713161679            0.000472937287           
       2.261487             0.00793385841            0.000523567413           
       2.264127             0.00859557531            0.000526317661           
       2.266767              0.0077175722            0.000512000234           
       2.269408              0.0082121172            0.000530312902           
       2.272048             0.00660033892            0.000472593361           
       2.274689             0.00774797606            0.000518780528           
       2.277329             0.00680433702            0.000457754361           
       2.279969             0.00674654414            0.000485179639           
       2.282610             0.00729345566             0.00049043165           
       2.285250             0.00752259418            0.000476726434           
       2.287891             0.00639765201            0.000471358859           
       2.290531             0.00685163387            0.000494353524           
       2.293171             0.00719018571            0.000493298607           
       2.295812             0.00685766292            0.000479820355           
       2.298452             0.00867205019            0.000564251634           
       2.301092             0.00764248706            0.000492155613           
       2.303733             0.00709708389            0.000493405798           
       2.306373             0.00673162055             0.00048810166           
       2.309014             0.00773328783            0.000512951999           
       2.311654             0.00770797619            0.000534413015           
       2.314294             0.00689493588            0.000465666258           
       2.316935              0.0067853341            0.000463858832           
       2.319575             0.00776750482            0.000520003582           
       2.322215             0.00763000326            0.000537113422           
       2.324856             0.00746187417            0.000488349055           
       2.327496              0.0070008092            0.000502969963           
       2.330137             0.00664997715            0.000469089804           
       2.332777             0.00696085254            0.000494858126           
       2.335417             0.00708164686            0.000484234017           
       2.338058             0.00790328869            0.000526835965           
       2.340698              0.0073629027            0.000504509883           
       2.343339             0.00743955056            0.000518288908           
       2.345979             0.00760226699            0.000495675865           
       2.348619             0.00760074062             0.00051374301           
       2.351260              0.0071618325            0.000495783814           
       2.353900             0.00638603729            0.000466678777           
       2.356540             0.00686623999            0.000483219984           
       2.359181             0.00730857181            0.000491552584           
       2.361821             0.00798601778            0.000496345404           
       2.364462             0.00736438006            0.000498501761           
       2.367102             0.00801867865            0.000534563672           
       2.369742             0.00817602909            0.000568158951           
       2.372383             0.00757932438            0.000495337444           
       2.375023             0.00722524582            0.000508398749           
       2.377663             0.00679686664            0.000471473324           
       2.380304             0.00750840136            0.000503799954           
       2.382944             0.00776687225             0.00048804292           
       2.385585             0.00709143927            0.000497359031           
       2.388225             0.00666584735              0.0004799378           
       2.390865             0.00765495018            0.000509030979           
       2.393506             0.00631264334            0.000453530925           
       2.396146             0.00750742618            0.000534774852           
       2.398787             0.00733963726            0.000487298024           
       2.401427             0.00765785861            0.000480443232           
       2.404067             0.00699766732            0.000469511022           
       2.406708             0.00640110509            0.000443667125           
       2.409348             0.00737284271            0.000505054253           
       2.411988             0.00777522133            0.000508165245           
       2.414629             0.00784625281            0.000526379514           
       2.417269             0.00748237047            0.000520030204           
       2.419910             0.00657351737            0.000488556128           
       2.422550             0.00681165457             0.00047581162           
       2.425190             0.00732524258             0.00052011979           
       2.427831             0.00617072819            0.000474692502           
       2.430471             0.00740385685            0.000495366028           
       2.433112             0.00672305767            0.000459656378           
       2.435752             0.00728088542            0.000506239206           
       2.438392             0.00674397551             0.00047026314           
       2.441033             0.00721978293            0.000515666028           
       2.443673             0.00685943404            0.000503018944           
       2.446313             0.00734064795            0.000520822986           
       2.448954             0.00635368792            0.000461356451           
       2.451594             0.00719624892            0.000527933964           
       2.454235              0.0071981374             0.00049540184           
       2.456875             0.00705162248            0.000513065187           
       2.459515             0.00777935907            0.000552840181           
       2.462156             0.00819686477            0.000535781407           
       2.464796             0.00860654485            0.000541924264           
       2.467436              0.0076540174            0.000528492425           
       2.470077             0.00787558164            0.000508113276           
       2.472717             0.00846125118            0.000528948909           
       2.475358             0.00751733483            0.000503771216           
       2.477998             0.00697703701            0.000477147786           
       2.480638             0.00774063602            0.000511510993           
       2.483279             0.00712556636             0.00051293092           
       2.485919             0.00712958224            0.000494465493           
       2.488560             0.00668415042            0.000477432381           
       2.491200             0.00688352084              0.0004989073           
       2.493840             0.00775782582            0.000560433354           
       2.496481             0.00712045771            0.000528135137           
       2.499121             0.00801038085            0.000544852082           
       2.501761              0.0067005632            0.000504921758           
       2.504402             0.00579056052            0.000462526808           
       2.507042              0.0072841669            0.000514917147           
       2.509683             0.00656328266            0.000481303677           
       2.512323              0.0073215146              0.0005338892           
       2.514963             0.00640413485            0.000493153372           
       2.517604             0.00780423508            0.000564897198           
       2.520244             0.00711611176            0.000505705588           
       2.522884             0.00772553003            0.000534450325           
       2.525525              0.0101339189            0.000619061048           
       2.528165             0.00780193814            0.000534715844           
       2.530806              0.0094860593            0.000599886874           
       2.533446               0.007831597            0.000533435018           
       2.536086             0.00738571005            0.000513390565           
       2.538727             0.00625021261            0.000453080452           
       2.541367             0.00695995993             0.00048282347           
       2.544008             0.00638669219            0.000477661984           
       2.546648             0.00661193924            0.000494348549           
       2.549288             0.00688346484             0.00051467438           
       2.551929              0.0071847004            0.000517433856           
       2.554569             0.00687802455             0.00048774897           
       2.557209             0.00633455896            0.000472381577           
       2.559850             0.00715717265            0.000503730079           
       2.562490             0.00658781054            0.000499494524           
       2.565131             0.00705243123            0.000535850278           
       2.567771              0.0071878468            0.000521576609           
       2.570411             0.00692474027            0.000506402487           
       2.573052             0.00778441375            0.000543678579           
       2.575692             0.00629853732            0.000486083922           
       2.578332             0.00718198099            0.000521201606           
       2.580973             0.00642967151            0.000488456686           
       2.583613             0.00674250799            0.000488288322           
       2.586254              0.0076187251            0.000518325731           
       2.588894             0.00734205701            0.000528392972           
       2.591534             0.00677388983            0.000525395443           
       2.594175              0.0066207317            0.000509620096           
       2.596815             0.00782064084             0.00055714458           
       2.599456             0.00700181693            0.000499914505           
       2.602096             0.00767765225            0.000527469301           
       2.604736             0.00672105412            0.000505218843           
       2.607377             0.00672303638             0.00049197721           
       2.610017             0.00732302178            0.000504475564           
       2.612657             0.00707186659            0.000527304002           
       2.615298             0.00743102109             0.00052772548           
       2.617938             0.00764089377            0.000572447859           
       2.620579             0.00718829998            0.000533020121           
       2.623219             0.00638428548            0.000501611101           
       2.625859             0.00734249826            0.000523027456           
       2.628500             0.00679509648            0.000499855387           
       2.631140             0.00688629399            0.000510951938           
       2.633780             0.00605842869            0.000478839056           
       2.636421             0.00734688928            0.000540271722           
       2.639061             0.00714214662            0.000501466784           
       2.641702             0.00751563495            0.000526320396           
       2.644342              0.0064632858            0.000490163114           
       2.646982             0.00718054485            0.000508921763           
       2.649623             0.00731906796            0.000538449349           
       2.652263             0.00786992511            0.000552741565           
       2.654904              0.0064188988            0.000499693595           
       2.657544             0.00620723646             0.00046283452           
       2.660184             0.00606667965            0.000484236269           
       2.662825             0.00594339701            0.000490410337           
       2.665465             0.00665791056            0.000502009187           
       2.668105             0.00618776906            0.000510112706           
       2.670746             0.00731174342            0.000512249204           
       2.673386             0.00833267944            0.000563566201           
       2.676027             0.00789701223            0.000539830417           
       2.678667              0.0100924572            0.000595474228           
       2.681307               0.010917603             0.00060853542           
       2.683948              0.0131706772            0.000686733927           
       2.686588              0.0118624384            0.000640927468           
       2.689229             0.00883692465            0.000540552095           
       2.691869             0.00995842159            0.000606479831           
       2.694509             0.00891964099            0.000574292798           
       2.697150             0.00787932023            0.000531007042           
       2.699790             0.00785776892            0.000555922764           
       2.702430             0.00765563053            0.000524515823           
       2.705071             0.00742856273            0.000533889864           
       2.707711             0.00712797532            0.000507588116           
       2.710352             0.00664484283            0.000517835305           
       2.712992             0.00657065549            0.000524457654           
       2.715632              0.0068768156            0.000497799995           
       2.718273              0.0068866636            0.000516271967           
       2.720913             0.00746205567            0.000535877943           
       2.723553             0.00663549248            0.000508718337           
       2.726194             0.00715599354            0.000552241497           
       2.728834             0.00618196856            0.000513524506           
       2.731475             0.00753738244            0.000523321399           
       2.734115             0.00717036898            0.000526262665           
       2.736755             0.00699624294            0.000524112128           
       2.739396             0.00779628054            0.000550062382           
       2.742036             0.00748830326            0.000564190162           
       2.744677             0.00667065689            0.000516669991           
       2.747317             0.00753011311            0.000545031689           
       2.749957             0.00771327486            0.000555491691           
       2.752598             0.00719319147            0.000542259021           
       2.755238             0.00790400039            0.000578681399           
       2.757878             0.00694875479            0.000537843223           
       2.760519             0.00937014864            0.000617939469           
       2.763159              0.0113788651            0.000674155883           
       2.765800              0.0082017483            0.000545443619           
       2.768440             0.00850167024            0.000559418013           
       2.771080             0.00885643518            0.000575736611           
       2.773721             0.00826824336            0.000570639841           
       2.776361             0.00716784563            0.000538642176           
       2.779001             0.00766608154             0.00057687982           
       2.781642             0.00712563647            0.000552074989           
       2.784282             0.00705070555            0.000558195026           
       2.786923              0.0061991889            0.000528012548           
       2.789563             0.00709074658             0.00054387869           
       2.792203             0.00661252404            0.000501733277           
       2.794844             0.00666877669            0.000552225482           
       2.797484             0.00690897541            0.000530468886           
       2.800125             0.00720178334            0.000569485329           
       2.802765             0.00651479139            0.000532324464           
       2.805405             0.00716838235            0.000560278794           
       2.808046             0.00633355539            0.000535902459           
       2.810686             0.00718775344            0.000524588906           
       2.813326              0.0056980572            0.000485161232           
       2.815967             0.00682004089            0.000545873652           
       2.818607             0.00720531297            0.000535424479           
       2.821248               0.007002579            0.000516879771           
       2.823888             0.00755317133            0.000557228284           
       2.826528              0.0064944147            0.000500398456           
       2.829169             0.00620759293            0.000512434499           
       2.831809             0.00768259124            0.000577827416           
       2.834449             0.00691098692            0.000551506066           
       2.837090             0.00705911645              0.0005383457           
       2.839730             0.00687799229            0.000528799832           
       2.842371             0.00778100197            0.000563254372           
       2.845011             0.00741517726            0.000554237121           
       2.847651             0.00702071427            0.000539956213           
       2.850292             0.00736991378            0.000558650951           
       2.852932             0.00680558197            0.000548535883           
       2.855573             0.00656848851             0.00052274452           
       2.858213             0.00701753265            0.000567398842           
       2.860853             0.00717930852            0.000533860454           
       2.863494             0.00714736743            0.000551507064           
       2.866134             0.00683518002             0.00056056465           
       2.868774             0.00700690091            0.000557797629           
       2.871415             0.00677312404            0.000556955907           
       2.874055             0.00702764876            0.000542291408           
       2.876696             0.00635499678            0.000529634614           
       2.879336             0.00747756758            0.000553718808           
       2.881976             0.00751179862            0.000572428536           
       2.884617             0.00770558124            0.000571250289           
       2.887257             0.00825859289            0.000594446305           
       2.889897             0.00679688358            0.000528181334           
       2.892538             0.00729456452            0.000599434378           
       2.895178             0.00776816991            0.000558852819           
       2.897819              0.0073189659            0.000553354961           
       2.900459             0.00692088174            0.000527628206           
       2.903099             0.00689474183            0.000521240185           
       2.905740             0.00754344055            0.000559315545           
       2.908380             0.00730488953            0.000556654531           
       2.911021               0.006314974            0.000525979536           
       2.913661              0.0070383128            0.000555120434           
       2.916301             0.00808599009            0.000595570939           
       2.918942             0.00730148529             0.00054133816           
       2.921582             0.00728285919            0.000565672774           
       2.924222             0.00610082178            0.000501586754           
       2.926863             0.00658374872            0.000542745105           
       2.929503             0.00755359887            0.000588235572           
       2.932144             0.00729948055            0.000555090594           
       2.934784             0.00747552352            0.000552533332           
       2.937424             0.00767678886            0.000565670535           
       2.940065             0.00712570112            0.000519867804           
       2.942705             0.00731211345            0.000525963225           
       2.945346             0.00784622674            0.000578206952           
       2.947986             0.00768475431            0.000583472882           
       2.950626             0.00881331421            0.000621331207           
       2.953267             0.00683539638            0.000538345452           
       2.955907             0.00739084821              0.0005807068           
       2.958547             0.00759931751            0.000555894864           
       2.961188             0.00663808786            0.000542035109           
       2.963828             0.00736730774            0.000558574701           
       2.966469             0.00640308613             0.00051084483           
       2.969109             0.00729483893            0.000553337006           
       2.971749             0.00592662097            0.000495641514           
       2.974390              0.0078541911            0.000560697051           
       2.977030             0.00786761531            0.000573717297           
       2.979670              0.0093363352            0.000607911265           
       2.982311             0.00790687104            0.000579832459           
       2.984951             0.00727100025            0.000528832294           
       2.987592             0.00737074445            0.000543111699           
       2.990232             0.00732182206              0.0005629527           
       2.992872             0.00678688761            0.000510531446           
       2.995513             0.00835207151            0.000554075906           
       2.998153               0.011205622            0.000652568685           
       3.000794              0.0125865739            0.000669896484           
       3.003434              0.0117221724            0.000647460417           
       3.006074              0.0462539908              0.0012681005           
       3.008715               0.120520177             0.00197595643           
       3.011355               0.185890057              0.0023664542           
       3.013995              0.0914094731             0.00166397052           
       3.016636              0.0594994326             0.00131460179           
       3.019276                0.12439376             0.00186845066           
       3.021917               0.492376227             0.00357439105           
       3.024557                1.66267641             0.00645784136           
       3.027197                1.15530414             0.00524822975           
       3.029838               0.514679719             0.00355263181           
       3.032478               0.266897055             0.00256091357           
       3.035118              0.0699395222             0.00132853239           
       3.037759               0.096112683             0.00155539418           
       3.040399               0.131622992             0.00187756834           
       3.043040               0.530512335             0.00381565027           
       3.045680               0.392673102             0.00308859207           
       3.048320               0.083442251             0.00145473922           
       3.050961               0.107134003             0.00167741894           
       3.053601              0.0856561813             0.00144456867           
       3.056242              0.0542467919             0.00122226654           
       3.058882              0.0462961389             0.00121124166           
       3.061522              0.0371169044             0.00106405988           
       3.064163              0.0439644178             0.00114347671           
       3.066803               0.100419642             0.00181938894           
       3.069443              0.0969382103             0.00187025897           
       3.072084              0.0537947806             0.00135663885           
       3.074724              0.0403201281             0.00131165467           
       3.077365              0.0841094983             0.00196107708           
       3.080005              0.0196030654            0.000952112166           
       3.082645              0.0106595196            0.000737565603           
       3.085286              0.0120591261            0.000790683626           
       3.087926              0.0101433852            0.000719575126           
       3.090566              0.0098277033            0.000693986844           
       3.093207             0.00959337804            0.000713503773           
       3.095847             0.00896715071            0.000661184858           
       3.098488             0.00767309219            0.000678180642           
       3.101128             0.00879326025            0.000730666482           
       3.103768              0.0100435012            0.000766193273           
       3.106409             0.00965912716             0.00079967978           
       3.109049             0.00823413735            0.000708548055           
       3.111690             0.00829174456            0.000698816266           
       3.114330             0.00777939156            0.000691281347           
       3.116970             0.00679601364             0.00065107429           
       3.119611              0.0132120563            0.000966289783           
       3.122251              0.0192237398             0.00121923309           
       3.124891              0.0348426846             0.00165672418           
       3.127532              0.0237432883              0.0013379286           
       3.130172              0.0139887733             0.00104470234           
       3.132813             0.00949063148            0.000847131464           
       3.135453             0.00704868397            0.000724044225           
       3.138093             0.00655034543             0.00075628637           
       3.140734             0.00630911294            0.000684764031           
       3.143374             0.00764863571            0.000797346537           
       3.146014             0.00635561877            0.000782467799           
       3.148655             0.00722788613            0.000775685837           
       3.151295             0.00615382565            0.000762728486           
       3.153936             0.00608920918            0.000732894374           
       3.156576             0.00668510375            0.000757473045           
       3.159216             0.00518173471            0.000670220232           
       3.161857             0.00625657348            0.000733461177           
       3.164497             0.00750093949            0.000843820983           
       3.167138             0.00697634445            0.000840832257           
       3.169778             0.00635619835            0.000789354921           
       3.172418             0.00602463004            0.000760674212           
       3.175059             0.00684581316            0.000718861958           
       3.177699             0.00667570127            0.000751713895           
       3.180339              0.0069055092             0.00081914867           
       3.182980             0.00633179078            0.000810972285           
       3.185620              0.0062496768            0.000820533368           
       3.188261             0.00591266171            0.000812345521           
       3.190901             0.00659936249            0.000789316291           
       3.193541             0.00667244928            0.000833961043           
       3.196182             0.00565353548            0.000800001291           
       3.198822              0.0063260445            0.000846529873           
       3.201463             0.00633298952            0.000832401902           
       3.204103             0.00712588164            0.000877602014           
       3.206743             0.00475890207            0.000717118502           
       3.209384              0.0046563727            0.000766393587           
       3.212024             0.00687100325            0.000867960793           
       3.214664             0.00368509758            0.000722818749           
       3.217305             0.00509790053            0.000808135659           
       3.219945             0.00611353391            0.000910875566           
       3.222586             0.00676329708               0.000912535           
       3.225226              0.0052976082            0.000895935091           
       3.227866             0.00658332097            0.000912852408           
       3.230507              0.0069299236            0.000970861627           
       3.233147             0.00608252861            0.000916912674           
       3.235787             0.00678828291            0.000991289913           
       3.238428             0.00571026155            0.000981117669           
       3.241068             0.00631718619            0.000964916262           
       3.243709             0.00565528762            0.000943240093           
       3.246349             0.00482121832            0.000793915712           
       3.248989             0.00780391544             0.00119266995           
       3.251630             0.00574729195            0.000985620241           
       3.254270             0.00458587731            0.000786855477           
       3.256911              0.0040152998            0.000803362711           
       3.259551             0.00614821746             0.00107023045           
       3.262191             0.00524025096              0.0010092433           
       3.264832             0.00675117353             0.00119691549           
       3.267472             0.00745393229             0.00117982934           
       3.270112             0.00613591707             0.00118298319           
       3.272753             0.00650278853             0.00111471394           
       3.275393             0.00656792166             0.00114307855           
       3.278034             0.00657280674             0.00114414736           
       3.280674             0.00256876344            0.000776164721           
       3.283314             0.00655506893             0.00110889414           
       3.285955             0.00459579037            0.000958007367           
       3.288595             0.00494704717             0.00110579954           
       3.291235             0.00729469601             0.00138037308           
       3.293876             0.00564238878             0.00123146124           
       3.296516             0.00545524617             0.00116245941           
       3.299157             0.00696997715             0.00129746232           
       3.301797             0.00784777503             0.00157042791           
       3.304437             0.00542409268             0.00113114209           
       3.307078             0.00398026035             0.00106737774           
       3.309718             0.00332532564             0.00100701234           
       3.312359             0.00578334334             0.00132834334           
       3.314999             0.00293504081            0.000931707839           
       3.317639             0.00678936213              0.0013552404           
       3.320280             0.00672387366             0.00143393411           
       3.322920             0.00410150647             0.00113878015           
       3.325560             0.00345362928             0.00104568529           
       3.328201             0.00693861973             0.00133487784           
       3.330841             0.00449192061             0.00130717551           
       3.333482             0.00746971342             0.00159333516           
       3.336122             0.00507857489             0.00131439437           
       3.338762             0.00678855124             0.00175543004           
       3.341403             0.00496714173             0.00143481903           
       3.344043             0.00986311221             0.00194115127           
       3.346683             0.00752554914             0.00173106173           
       3.349324             0.00504473333             0.00159351438           
       3.351964             0.00390348103             0.00148227223           
       3.354605             0.00590370216             0.00208477105           
       3.357245             0.00529653453             0.00178135227           
       3.359885              0.0038537242             0.00121612942           
       3.362526             0.00592914805             0.00188640031           
       3.365166             0.00479124913             0.00159942147           
       3.367807             0.00345898239              0.0017392168           
       3.370447             0.00538505909             0.00180010736           
       3.373087             0.00615330412             0.00205771213           
       3.375728             0.00438715539             0.00196092582           
       3.378368             0.00782040562             0.00388556515           
       3.381008             0.00645284986                0.00263144           
       3.383649             0.00678753745             0.00216500184           
       3.386289             0.00192218755             0.00136357984           
       3.388930              0.0024417032             0.00243092995           
       3.391570             0.00482388989             0.00241705865           
       3.394210             0.00781340536             0.00389294835           
       3.396851             0.00233098336             0.00237849283           
       3.399491               0.007281048             0.00420485765           
       3.402131              0.0143095649             0.00833996167           
       3.404772              0.0380348946              0.0192336508           
       3.407412                       nan                       nan           
       3.410053             0.00910081969             0.00941987307           
       3.412693                       nan                       nan           
       3.415333           -2.60942697e-05                         0           
