################################################################################
# EDF_DataBlockID                     0.Image.Psd
# EDF_BinarySize                      2105344
# EDF_HeaderSize                      2560
# ByteOrder                           LowByteFirst
# DataType                            FloatValue
# Dim_1                               512
# Dim_2                               1028
# Image                               0
# HeaderID                            EH:000000:000000:000000
# Size                                2105344
# Center_1                            304.9000
# Center_2                            588.7000
# Comment                             Xenocs_Cell_Window - 20251028_20perc_iodine_1.23mg
# DDummy                              0.6
# Date                                2025-10-29T04:54:36
# Delta                               21.910000
# Dummy                               -1.5
# ExposureTime                        360
# Gamma                               15.360000
# Intensity1                          8.49351e-10
# PSize_1                             7.5e-05
# PSize_2                             7.5e-05
# Pressure                            0.0334511
# SampleDistance                      0.115750
# SampleEnvKind                       large
# SampleEnvPN                         ElectroChemical cell
# SampleEnvSN                         1141
# Thickness                           0
# Wavelength                          1.541891e-10
# Wavelength                          1.54189e-10
# aux                                 0
# aux_dial                            0.002375
# beamx                               588.434
# beamx_dial                          588.434
# beamz                               657.808
# beamz_dial                          657.808
# det0x                               0
# det0x_dial                          6.36945
# det0xvd                             0
# det0xvd_dial                        0
# det0y                               450.002
# det0y_dial                          481.635
# det0z                               0
# det0z_dial                          1.23302
# det0zvd                             0
# det0zvd_dial                        0
# mag                                 1.818
# mag_dial                            1.818
# om                                  0.2499
# om_dial                             -0.610199
# phi                                 -0.0120535
# phi_dial                            0
# ry                                  0.599993
# ry_dial                             0.599993
# s1bot                               0.8
# s1bot_dial                          -1.66094
# s1hl                                0.8
# s1hl_dial                           -0.608437
# s1hr                                0.8
# s1hr_dial                           0.970938
# s1top                               0.8
# s1top_dial                          -0.461562
# s2bot                               0.45
# s2bot_dial                          1.36109
# s2hl                                0.45
# s2hl_dial                           -0.83375
# s2hr                                0.45
# s2hr_dial                           -0.118594
# s2top                               0.45
# s2top_dial                          1.44734
# w2theta                             32
# w2theta_dial                        32
# waxsch                              19.2605
# waxsch_dial                         -32.7355
# waxsh                               137.085
# waxsh_dial                          -43.5338
# waxsth                              26.0607
# waxsth_dial                         -19.4086
# waxsz                               67.0407
# waxsz_dial                          -23.7954
# wind                                65.9854
# wind_dial                           66.0041
# wpsi                                124
# wpsi_dial                           124
# wstod                               115
# wstod_dial                          115
# x                                   0
# x_dial                              1.00969
# z                                   0
# z_dial                              13.3172
# CountCutoff                         6807993
# DetectorModel                       Dectris EIGER2 Si 500K, S/N E-01-0554
# ThresholdSetting                    4023.88989258
# Saturation                          0
# FlatField                           Corrected
# BackgroundReductionExtra            0.02
# BackgroundCorrectionConstant        0.0026712
# Detector                            0
# Monitor                             0
# Pil_Roi0                            0
# SumForIntensity1                    3.05766e+08
# TransmittedFlux                     849351
# det                                 0
# mon                                 0
# pilai0                              3.05766e+08
# pilai1                              771169
# pilct0                              5.29937e+08
# pilct1                              771169
# pilroi0                             0
# pilroi1                             0
# sec                                 1
# title                               20251028_20perc_iodine_1.23mg_1_00132.edf
# usaxs0                              0
# Operation                           Azimuthal average I(q)
# Error_model                         ErrorModel.poisson
# Geometrical_correction              True
# Transmission_correction             True
# Thickness_correction                False
# Binning mode                        Uniform
# Binning factor                      1.0
# Psi                                 0.0
# Omega                               0.2499
# MaskInvalidPixels                   True
# DetectorEdge                        3
# MaskFiles                           ['WAXS_corrected.edf']
################################################################################
    q(A⁻¹)                Intensity(a.u.)            Sigma_I(a.u.)            
       0.693100             0.00414647609             0.00430734888           
       0.695741              0.0112400129             0.00578710805           
       0.698381             0.00420000449              0.0043332717           
       0.701021             0.00887484605             0.00890478918           
       0.703662             0.00287293993             0.00292446187           
       0.706302             0.00345701195             0.00248364938           
       0.708942             0.00577892113             0.00414461586           
       0.711583             0.00663296809             0.00384503811           
       0.714223             0.00879581088             0.00511192596           
       0.716864             0.00886415612              0.0033576552           
       0.719504             0.00887907799             0.00362634558           
       0.722144             0.00634751461             0.00283944804           
       0.724785             0.00552400212             0.00211295571           
       0.727425             0.00743931784             0.00331718795           
       0.730065             0.00590322566             0.00209020765           
       0.732706             0.00831211793             0.00208280845           
       0.735346             0.00620860167             0.00234646723           
       0.737987             0.00706158438             0.00176833989           
       0.740627             0.00484654458              0.0021858344           
       0.743267             0.00928114709             0.00202602191           
       0.745908             0.00627941703             0.00180805525           
       0.748548             0.00442247092             0.00139861751           
       0.751189             0.00482858428             0.00196921395           
       0.753829             0.00814670733              0.0023512519           
       0.756469             0.00921726483              0.0020167055           
       0.759110             0.00631137763             0.00175862834           
       0.761750             0.00923338738             0.00188084573           
       0.764390             0.00790966335             0.00182203667           
       0.767031             0.00817210977             0.00160377844           
       0.769671             0.00738165925             0.00190137995           
       0.772312             0.00792398178             0.00149973663           
       0.774952             0.00257849497             0.00115527699           
       0.777592             0.00738769282               0.001424343           
       0.780233             0.00551452591             0.00148469769           
       0.782873             0.00736553434             0.00164107603           
       0.785513             0.00413417548             0.00131439168           
       0.788154             0.00873907657             0.00159862644           
       0.790794              0.0112489997              0.0021683541           
       0.793435             0.00708332837             0.00154576034           
       0.796075             0.00845095046             0.00162645635           
       0.798715             0.00915034322             0.00199995891           
       0.801356             0.00990757334             0.00179110869           
       0.803996             0.00737351957              0.0015753187           
       0.806637             0.00575373963             0.00110743522           
       0.809277             0.00573853888             0.00119708566           
       0.811917              0.0074144356             0.00127204144           
       0.814558             0.00867987547             0.00143043727           
       0.817198             0.00553402414             0.00108511966           
       0.819838             0.00894005135             0.00139585186           
       0.822479             0.00783343058             0.00153431461           
       0.825119             0.00781246063             0.00130414555           
       0.827760             0.00807044123              0.0013426834           
       0.830400             0.00628183023             0.00111491891           
       0.833040             0.00888295425             0.00138903298           
       0.835681             0.00646622962             0.00134726955           
       0.838321             0.00851978431             0.00129800675           
       0.840961             0.00632797912             0.00121882446           
       0.843602             0.00490784359            0.000984334437           
       0.846242             0.00728046394             0.00119870431           
       0.848883             0.00538470934             0.00105497082           
       0.851523             0.00745057803             0.00122553515           
       0.854163             0.00866027363              0.0014051276           
       0.856804             0.00749459885             0.00117530367           
       0.859444             0.00709542341             0.00112048358           
       0.862085             0.00787158248             0.00123004046           
       0.864725             0.00665055003             0.00115707419           
       0.867365             0.00847100218             0.00121092074           
       0.870006             0.00707154137             0.00105429767           
       0.872646             0.00901289286             0.00124814219           
       0.875286             0.00716034738             0.00107029134           
       0.877927             0.00873879467             0.00114095119           
       0.880567             0.00817879836             0.00114354779           
       0.883208             0.00547883344             0.00092713458           
       0.885848             0.00743214904             0.00112118989           
       0.888488             0.00638196779            0.000974481347           
       0.891129             0.00813524626             0.00112970165           
       0.893769             0.00787706524             0.00106385973           
       0.896410              0.0087308825             0.00104426419           
       0.899050             0.00635351705            0.000979656329           
       0.901690             0.00915081171             0.00128067875           
       0.904331             0.00761165997             0.00103551357           
       0.906971             0.00957701908             0.00123567901           
       0.909611             0.00752547609            0.000997129579           
       0.912252             0.00916620709             0.00113667316           
       0.914892             0.00855295363             0.00119987025           
       0.917533             0.00644809298            0.000985556057           
       0.920173             0.00857445312             0.00105444725           
       0.922813             0.00883620788             0.00112328622           
       0.925454             0.00740306269            0.000925835033           
       0.928094             0.00659306429            0.000932768214           
       0.930734              0.0101170008             0.00124398351           
       0.933375             0.00704829886             0.00102811187           
       0.936015             0.00778236062             0.00098116495           
       0.938656             0.00684793551             0.00098734801           
       0.941296             0.00960258503             0.00105960666           
       0.943936             0.00809614129            0.000954126339           
       0.946577             0.00897480993             0.00099792695           
       0.949217             0.00815947832            0.000875007722           
       0.951858             0.00708289437            0.000853394738           
       0.954498             0.00700858814            0.000982594258           
       0.957138             0.00753704998            0.000965330726           
       0.959779             0.00696630915            0.000914877991           
       0.962419             0.00639059393             0.00087043027           
       0.965059             0.00771653361             0.00100596347           
       0.967700             0.00741236293             0.00100979574           
       0.970340               0.008195975            0.000939615579           
       0.972981             0.00759601146            0.000824151054           
       0.975621              0.0058767949            0.000771179664           
       0.978261             0.00748279146            0.000826839304           
       0.980902             0.00782094971             0.00101137831           
       0.983542             0.00768139711            0.000887614778           
       0.986182             0.00740912103            0.000855870526           
       0.988823             0.00885919394            0.000908744585           
       0.991463             0.00784152631            0.000912151514           
       0.994104             0.00807654306            0.000903053681           
       0.996744             0.00683407979            0.000847300769           
       0.999384             0.00832475964            0.000836341069           
       1.002025             0.00806101408            0.000918561028           
       1.004665             0.00744206435              0.0008065797           
       1.007306             0.00882926544            0.000874045812           
       1.009946             0.00809410856            0.000853487216           
       1.012586             0.00622547373            0.000729006511           
       1.015227               0.006385016            0.000793153159           
       1.017867             0.00746238078            0.000824080058           
       1.020507             0.00923372297            0.000887931948           
       1.023148             0.00903858138            0.000947924718           
       1.025788             0.00726768243            0.000779387921           
       1.028429             0.00725000381            0.000815543311           
       1.031069             0.00788985601            0.000800607797           
       1.033709             0.00960602999            0.000939056053           
       1.036350             0.00710292079            0.000725237881           
       1.038990             0.00753671595            0.000760784031           
       1.041630             0.00768560943            0.000801305246           
       1.044271             0.00923535734            0.000826090656           
       1.046911             0.00784954071            0.000801096555           
       1.049552             0.00641474949            0.000760853598           
       1.052192             0.00964476955            0.000851899272           
       1.054832             0.00789134933            0.000777590248           
       1.057473             0.00894281555            0.000816011389           
       1.060113             0.00758202995            0.000732786655           
       1.062754             0.00944414875            0.000834996117           
       1.065394             0.00914866621            0.000868886648           
       1.068034             0.00915124379            0.000790679068           
       1.070675             0.00854868831            0.000797159789           
       1.073315             0.00802396183             0.00078337718           
       1.075955              0.0100855927            0.000829135474           
       1.078596             0.00809735022            0.000789584199           
       1.081236             0.00982946424            0.000833029331           
       1.083877              0.0080610662            0.000747615227           
       1.086517             0.00883795016            0.000839403928           
       1.089157             0.00979291699            0.000916824602           
       1.091798             0.00910625001             0.00077510257           
       1.094438              0.0092559018            0.000778923455           
       1.097078             0.00819582068            0.000702987754           
       1.099719             0.00796981472            0.000749831299           
       1.102359             0.00841826536            0.000721712265           
       1.105000             0.00866570014            0.000818789204           
       1.107640             0.00819715688            0.000761436445           
       1.110280             0.00834897448            0.000701156841           
       1.112921             0.00918029948            0.000789802931           
       1.115561             0.00952936192            0.000764779243           
       1.118202              0.0098371319            0.000777763321           
       1.120842             0.00772965552            0.000724600571           
       1.123482             0.00866520687            0.000763848238           
       1.126123             0.00735325963              0.0006749196           
       1.128763             0.00947617683            0.000771429367           
       1.131403              0.0103761013            0.000777834165           
       1.134044             0.00858992206            0.000728250728           
       1.136684             0.00920383977            0.000803708721           
       1.139325             0.00946552995            0.000750827243           
       1.141965             0.00922513644            0.000746131845           
       1.144605             0.00883410059            0.000696197391           
       1.147246             0.00889932145            0.000715123105           
       1.149886             0.00890309199            0.000712735398           
       1.152527             0.00886426253             0.00072152143           
       1.155167              0.0115857141            0.000784583916           
       1.157807             0.00891645766            0.000737974118           
       1.160448             0.00938412341            0.000739308065           
       1.163088             0.00878969894            0.000682491063           
       1.165728             0.00714743741            0.000631883052           
       1.168369             0.00949627736            0.000735075704           
       1.171009              0.0113571946            0.000780143165           
       1.173650             0.00867248091            0.000699614377           
       1.176290             0.00861574313            0.000681440105           
       1.178930             0.00816807953            0.000650290962           
       1.181571             0.00962636943            0.000719957629           
       1.184211             0.00816894589             0.00066557314           
       1.186851              0.0104196497            0.000734917434           
       1.189492              0.0104474652            0.000730946952           
       1.192132              0.0084302028            0.000649230733           
       1.194773             0.00937757442            0.000687731205           
       1.197413             0.00996192726            0.000679164287           
       1.200053              0.0103794934            0.000710866648           
       1.202694             0.00963798559            0.000651399739           
       1.205334             0.00873480652            0.000668303504           
       1.207975              0.0094327432            0.000662910448           
       1.210615             0.00956768983             0.00073651536           
       1.213255              0.0103412019            0.000685674818           
       1.215896              0.0100392715            0.000687831927           
       1.218536              0.0102135334            0.000667095259           
       1.221176             0.00994025805            0.000715500904           
       1.223817             0.00928960674            0.000649298935           
       1.226457              0.0100571338            0.000689200511           
       1.229098              0.0103445381            0.000698944786           
       1.231738             0.00876448241            0.000646521024           
       1.234378             0.00895112672            0.000613938153           
       1.237019             0.00951185436            0.000652172337           
       1.239659             0.00957591211            0.000648664508           
       1.242299             0.00879895471            0.000613892717           
       1.244940             0.00942940463            0.000618068604           
       1.247580              0.0103524788            0.000667419939           
       1.250221             0.00949670821            0.000635295083           
       1.252861              0.0110532379            0.000652488478           
       1.255501             0.00899552511            0.000639138135           
       1.258142              0.0106630678            0.000653886345           
       1.260782              0.0101206613            0.000650822187           
       1.263423              0.0108947174            0.000648840814           
       1.266063             0.00989392739            0.000633762088           
       1.268703              0.0124340324            0.000704577969           
       1.271344              0.0101385741            0.000657788294           
       1.273984             0.00997909027            0.000630277211           
       1.276624              0.0109527553            0.000647904985           
       1.279265              0.0106961797            0.000650903917           
       1.281905              0.0107739567            0.000656165442           
       1.284546             0.00946844926            0.000594576545           
       1.287186             0.00983781405            0.000594611947           
       1.289826              0.0110141388            0.000663080826           
       1.292467              0.0116060391            0.000665672475           
       1.295107             0.00991174116            0.000609056924           
       1.297747              0.0104150008            0.000597429697           
       1.300388              0.0109348423            0.000667329325           
       1.303028              0.0115117886            0.000653663273           
       1.305669             0.00987673192            0.000619882065           
       1.308309              0.0113460113            0.000657848768           
       1.310949              0.0112569716            0.000654603879           
       1.313590              0.0117102516            0.000646783063           
       1.316230              0.0106859818            0.000659331272           
       1.318871              0.0105457961            0.000641484462           
       1.321511               0.011053293            0.000644565405           
       1.324151              0.0106839836            0.000614918863           
       1.326792              0.0110117343             0.00062813904           
       1.329432              0.0111013131            0.000626238126           
       1.332072              0.0110232427            0.000614732231           
       1.334713              0.0107610228            0.000626872955           
       1.337353              0.0117109044            0.000627156048           
       1.339994              0.0111355463            0.000641766995           
       1.342634              0.0110720566            0.000613657335           
       1.345274               0.011067843            0.000634956819           
       1.347915              0.0103207323            0.000596219613           
       1.350555              0.0109185273            0.000623983867           
       1.353195               0.011743785            0.000650314127           
       1.355836              0.0104966678            0.000605228694           
       1.358476              0.0111912352            0.000606903897           
       1.361117              0.0113510819            0.000612061773           
       1.363757              0.0109214734            0.000618699548           
       1.366397               0.012087248            0.000631186449           
       1.369038              0.0103277161            0.000589249304           
       1.371678              0.0121095316            0.000632433494           
       1.374319              0.0108320756            0.000592995215           
       1.376959              0.0110435206            0.000592733554           
       1.379599               0.012588339            0.000678206643           
       1.382240              0.0110478818            0.000597139538           
       1.384880              0.0112191356            0.000637389859           
       1.387520              0.0119608068            0.000625037735           
       1.390161              0.0111473395            0.000573093372           
       1.392801              0.0118543459            0.000615752079           
       1.395442              0.0108102824            0.000596042101           
       1.398082               0.010908749            0.000560703755           
       1.400722              0.0109611673            0.000588733712           
       1.403363              0.0118237776            0.000643636797           
       1.406003               0.012240812            0.000612888364           
       1.408644              0.0106365802            0.000598491876           
       1.411284              0.0113529666            0.000585492341           
       1.413924              0.0113065386            0.000582127798           
       1.416565              0.0111041387            0.000574627787           
       1.419205              0.0108030008            0.000591244531           
       1.421845              0.0111716736             0.00060089552           
       1.424486              0.0105031124            0.000560049106           
       1.427126              0.0109697304            0.000594565609           
       1.429767              0.0108424039            0.000556157907           
       1.432407              0.0115310295            0.000600230826           
       1.435047              0.0110968181            0.000553000902           
       1.437688              0.0109093297            0.000556507519           
       1.440328              0.0121803045            0.000600152822           
       1.442968              0.0113880452            0.000593308509           
       1.445609               0.011552783            0.000578627477           
       1.448249               0.010669729            0.000570153222           
       1.450890              0.0111300887            0.000578522543           
       1.453530              0.0113382183            0.000610883741           
       1.456170              0.0103017419            0.000565128915           
       1.458811               0.011438984            0.000569435214           
       1.461451              0.0117089526            0.000577626869           
       1.464092              0.0111092749            0.000566319243           
       1.466732              0.0109330096            0.000556980765           
       1.469372              0.0104576083            0.000531988043           
       1.472013              0.0111055149            0.000591266446           
       1.474653              0.0109048278            0.000576861472           
       1.477293              0.0107139725             0.00058384255           
       1.479934              0.0105362603            0.000552468079           
       1.482574              0.0103767469            0.000530365653           
       1.485215              0.0106834314             0.00054816915           
       1.487855              0.0108200845            0.000558941218           
       1.490495              0.0103317327            0.000544170468           
       1.493136              0.0115660116            0.000567866441           
       1.495776              0.0107416393            0.000544763087           
       1.498416              0.0120505386            0.000595877533           
       1.501057              0.0108180261            0.000552140424           
       1.503697              0.0116079827            0.000559167004           
       1.506338              0.0106287071            0.000544838541           
       1.508978             0.00921706228            0.000502379305           
       1.511618              0.0107278024            0.000577216159           
       1.514259              0.0107177659            0.000557014421           
       1.516899              0.0102493991            0.000530364723           
       1.519540             0.00977136114            0.000526199481           
       1.522180              0.0105446798            0.000551426937           
       1.524820              0.0102220903            0.000539880546           
       1.527461             0.00963998218             0.00052687613           
       1.530101               0.011060883            0.000558727479           
       1.532741              0.0109044802            0.000551543665           
       1.535382             0.00988215948            0.000533505957           
       1.538022              0.0105127412            0.000518378091           
       1.540663              0.0102563559            0.000550706933           
       1.543303              0.0104988697            0.000517350429           
       1.545943               0.011061882            0.000562067689           
       1.548584               0.010413351            0.000555131757           
       1.551224              0.0107819043            0.000522275752           
       1.553864              0.0101328808            0.000535013699           
       1.556505              0.0107491485            0.000532321775           
       1.559145               0.010381035            0.000529535735           
       1.561786             0.00965260496            0.000511012539           
       1.564426             0.00995729915            0.000502871674           
       1.567066             0.00909036299            0.000503452751           
       1.569707              0.0107180853            0.000536851903           
       1.572347              0.0103584839            0.000545238282           
       1.574988              0.0108926639            0.000532188823           
       1.577628             0.00997362834            0.000531015154           
       1.580268             0.00980631871            0.000510163482           
       1.582909             0.00954429121            0.000533479554           
       1.585549              0.0101488002            0.000534143838           
       1.588189              0.0100001233            0.000518644696           
       1.590830             0.00902306383            0.000492038231           
       1.593470             0.00953164501            0.000525739146           
       1.596111             0.00988806954            0.000522793489           
       1.598751             0.00962140385            0.000499691994           
       1.601391             0.00918744266             0.00049906608           
       1.604032             0.00911334346            0.000507440355           
       1.606672             0.00930406412            0.000498158704           
       1.609312              0.0095734033            0.000527492633           
       1.611953             0.00977140919            0.000521495202           
       1.614593             0.00814231845            0.000466960026           
       1.617234             0.00986620723            0.000532719305           
       1.619874             0.00881593822            0.000501578158           
       1.622514             0.00936548058            0.000509922511           
       1.625155             0.00878309911            0.000496730797           
       1.627795             0.00915978639            0.000494841761           
       1.630436             0.00959698802            0.000503868796           
       1.633076             0.00938837491            0.000504898543           
       1.635716             0.00950849581            0.000500212387           
       1.638357             0.00963405457            0.000504831343           
       1.640997             0.00957781508            0.000518603357           
       1.643637             0.00916569802            0.000493682824           
       1.646278              0.0086396992            0.000494367767           
       1.648918             0.00776595631            0.000469982213           
       1.651559             0.00876712089            0.000503234262           
       1.654199             0.00921676939             0.00050183379           
       1.656839             0.00962628673            0.000513040331           
       1.659480              0.0090708947            0.000516722045           
       1.662120             0.00955584606            0.000499506848           
       1.664761             0.00851280732            0.000489723471           
       1.667401             0.00874855687            0.000474507782           
       1.670041             0.00889045268            0.000485634016           
       1.672682             0.00849592515            0.000472785118           
       1.675322             0.00873590464            0.000476332989           
       1.677962             0.00903650627            0.000479114759           
       1.680603             0.00882139427            0.000474834504           
       1.683243             0.00937791056            0.000510788986           
       1.685884             0.00758200594            0.000462674821           
       1.688524             0.00880348961            0.000488915789           
       1.691164              0.0092663647            0.000501718242           
       1.693805              0.0087013928            0.000491523703           
       1.696445             0.00799234609            0.000473804477           
       1.699085             0.00916505262            0.000490374312           
       1.701726             0.00810467151            0.000444222923           
       1.704366             0.00889443118            0.000490247722           
       1.707007             0.00875916014            0.000475660739           
       1.709647             0.00789744057            0.000456758138           
       1.712287             0.00923993428            0.000498357961           
       1.714928             0.00889250067            0.000492840525           
       1.717568              0.0087453503             0.00046040051           
       1.720209              0.0086923219            0.000480773326           
       1.722849             0.00887033347            0.000483174411           
       1.725489             0.00895511913            0.000485885743           
       1.728130             0.00928480871            0.000525779579           
       1.730770             0.00839757199            0.000474891972           
       1.733410             0.00959393328            0.000499614915           
       1.736051             0.00864210131            0.000477484348           
       1.738691             0.00825301007            0.000457152905           
       1.741332             0.00914629719            0.000495330286           
       1.743972             0.00846335194            0.000492045103           
       1.746612             0.00856964285            0.000475446464           
       1.749253             0.00764372952            0.000457895044           
       1.751893              0.0080249431            0.000465730534           
       1.754533             0.00854276981            0.000480073036           
       1.757174             0.00922343996            0.000494160828           
       1.759814             0.00838591795            0.000464048842           
       1.762455             0.00845566798            0.000474530994           
       1.765095             0.00898378446            0.000467907987           
       1.767735             0.00950915942            0.000496246355           
       1.770376              0.0091305419            0.000487548646           
       1.773016             0.00926440579            0.000487820059           
       1.775657             0.00864704268            0.000464504979           
       1.778297             0.00822967061            0.000449253999           
       1.780937             0.00882923594            0.000491157041           
       1.783578             0.00794581534            0.000454287488           
       1.786218             0.00927177956            0.000512131012           
       1.788858             0.00879535899            0.000473739499           
       1.791499             0.00816373189            0.000451286199           
       1.794139             0.00885461001            0.000466180949           
       1.796780             0.00952890228            0.000481274092           
       1.799420             0.00917093224            0.000469532966           
       1.802060             0.00930115746            0.000476674237           
       1.804701             0.00929516448            0.000457290895           
       1.807341              0.0103095237            0.000506053163           
       1.809981             0.00892472927            0.000472410906           
       1.812622              0.0088039807            0.000460757045           
       1.815262             0.00983157937            0.000497247817           
       1.817903             0.00879145558            0.000463242715           
       1.820543             0.00905544736            0.000477472391           
       1.823183             0.00875171983            0.000469138628           
       1.825824             0.00848326382            0.000441268372           
       1.828464             0.00907290022             0.00047576058           
       1.831105             0.00937668246            0.000470287639           
       1.833745             0.00918188176            0.000475315924           
       1.836385             0.00895448455            0.000482788972           
       1.839026             0.00985196329            0.000504805566           
       1.841666             0.00916233666            0.000485090926           
       1.844306              0.0094326827            0.000478765708           
       1.846947             0.00953435678             0.00048555837           
       1.849587             0.00885758373            0.000516794406           
       1.852228             0.00866817695             0.00046228683           
       1.854868             0.00904062976            0.000498718732           
       1.857508             0.00873231947            0.000485333875           
       1.860149             0.00900696878            0.000501862578           
       1.862789             0.00820652638            0.000462387994           
       1.865429             0.00910430956            0.000508378551           
       1.868070             0.00950649939            0.000512562371           
       1.870710             0.00859423702            0.000476113363           
       1.873351             0.00826676792            0.000472727139           
       1.875991             0.00870670285            0.000493060357           
       1.878631             0.00825426332            0.000470884074           
       1.881272              0.0087841201            0.000482507744           
       1.883912             0.00903463108            0.000509260203           
       1.886553             0.00874930147             0.00049555111           
       1.889193               0.008302451             0.00048190588           
       1.891833             0.00823823706             0.00049853886           
       1.894474             0.00936424777            0.000526889432           
       1.897114             0.00868420854            0.000490997787           
       1.899754             0.00938057809            0.000512439438           
       1.902395             0.00873166393            0.000484731419           
       1.905035             0.00862604075            0.000510297108           
       1.907676              0.0095437177            0.000505893223           
       1.910316                0.00841172             0.00048755465           
       1.912956             0.00846105671            0.000478224699           
       1.915597             0.00922370269            0.000502102984           
       1.918237             0.00940948812             0.00052374654           
       1.920878             0.00932732008            0.000519320075           
       1.923518             0.00940112747            0.000521591939           
       1.926158             0.00856067446             0.00049127243           
       1.928799             0.00812416567            0.000473043835           
       1.931439              0.0087493465            0.000503783667           
       1.934079                0.00878925            0.000526378325           
       1.936720             0.00735646311            0.000446185713           
       1.939360             0.00794379397            0.000494655421           
       1.942001             0.00762174101            0.000444091671           
       1.944641             0.00850040372            0.000478229954           
       1.947281             0.00903594049            0.000488519617           
       1.949922              0.0085298347            0.000490262602           
       1.952562             0.00835763764            0.000500500432           
       1.955202             0.00780053672            0.000482942268           
       1.957843              0.0083349726            0.000486266048           
       1.960483             0.00779443061            0.000491629049           
       1.963124             0.00781269609            0.000482106965           
       1.965764             0.00864576688            0.000478265766           
       1.968404             0.00822493121            0.000462073201           
       1.971045             0.00804122025            0.000465816912           
       1.973685             0.00837489222            0.000498641554           
       1.976326             0.00837675084            0.000491842927           
       1.978966             0.00909199819            0.000516907672           
       1.981606             0.00919257107            0.000530598649           
       1.984247             0.00843396168            0.000504892304           
       1.986887             0.00766195107            0.000475465351           
       1.989527             0.00767401327            0.000470714968           
       1.992168             0.00906766751            0.000530906583           
       1.994808             0.00736476283              0.0004764135           
       1.997449             0.00784755859            0.000481681764           
       2.000089             0.00750779579            0.000469271187           
       2.002729             0.00889260254            0.000511025297           
       2.005370             0.00789295656            0.000476266043           
       2.008010             0.00734739309            0.000479566134           
       2.010650              0.0076174108            0.000491942292           
       2.013291             0.00801313854            0.000484096255           
       2.015931             0.00808048282            0.000482689853           
       2.018572              0.0076756492            0.000503183348           
       2.021212             0.00778320078            0.000497592725           
       2.023852             0.00837315542            0.000488470662           
       2.026493             0.00803926947            0.000500016821           
       2.029133             0.00743170427            0.000471076713           
       2.031774              0.0084306922            0.000526565366           
       2.034414             0.00850360975            0.000486604067           
       2.037054             0.00810542565            0.000487116378           
       2.039695             0.00781565977            0.000474717406           
       2.042335             0.00765049814            0.000488095148           
       2.044975             0.00773104892            0.000484707617           
       2.047616             0.00718810534            0.000466216558           
       2.050256             0.00890553883            0.000523843096           
       2.052897             0.00827266803             0.00051419457           
       2.055537             0.00766426872            0.000478326921           
       2.058177              0.0074476451            0.000461743982           
       2.060818             0.00817976096            0.000506930249           
       2.063458             0.00804021965            0.000523746309           
       2.066098             0.00764554534            0.000481789348           
       2.068739             0.00782188832            0.000494888662           
       2.071379             0.00718390659            0.000486646266           
       2.074020             0.00804539397            0.000503807021           
       2.076660             0.00843217799            0.000519944683           
       2.079300             0.00726917263            0.000494586849           
       2.081941             0.00705093867            0.000446001098           
       2.084581             0.00724292905            0.000477124622           
       2.087222             0.00657040719            0.000438258199           
       2.089862             0.00768881925            0.000516359843           
       2.092502             0.00794936921            0.000508947315           
       2.095143             0.00754058443            0.000511872693           
       2.097783             0.00767753578            0.000500059003           
       2.100423             0.00802213323            0.000492547896           
       2.103064              0.0079442612            0.000508597997           
       2.105704             0.00793164932            0.000505676908           
       2.108345             0.00726218096            0.000464865623           
       2.110985             0.00736918854            0.000500154764           
       2.113625             0.00715027266            0.000496968986           
       2.116266             0.00742360236            0.000513562908           
       2.118906              0.0069813476            0.000464136513           
       2.121546             0.00759293019            0.000474797701           
       2.124187             0.00793981259            0.000509648286           
       2.126827             0.00798974582            0.000516954267           
       2.129468             0.00723751436            0.000493274064           
       2.132108             0.00704228862            0.000473401189           
       2.134748             0.00798114678            0.000502015166           
       2.137389             0.00728944176            0.000500517249           
       2.140029             0.00805572533            0.000471057497           
       2.142670             0.00622436873             0.00044252093           
       2.145310             0.00661424147            0.000443997884           
       2.147950             0.00774453963            0.000494503142           
       2.150591             0.00744245619            0.000479863878           
       2.153231             0.00764637762            0.000500666516           
       2.155871             0.00739658678            0.000475711202           
       2.158512             0.00689425886            0.000479219447           
       2.161152             0.00838413721            0.000511908413           
       2.163793             0.00743672972            0.000479948362           
       2.166433             0.00787126241            0.000507050952           
       2.169073              0.0068695481            0.000463143278           
       2.171714             0.00741940353             0.00047772396           
       2.174354             0.00780389447            0.000511948319           
       2.176995             0.00729421391            0.000492865493           
       2.179635             0.00688773744            0.000506098912           
       2.182275             0.00668510187            0.000470756273           
       2.184916             0.00746096278            0.000480350522           
       2.187556             0.00740173896             0.00047364492           
       2.190196             0.00744690302            0.000496460319           
       2.192837             0.00740549257            0.000492384416           
       2.195477             0.00716990672            0.000461902883           
       2.198118             0.00863809944             0.00051998522           
       2.200758             0.00734072716            0.000491782542           
       2.203398             0.00688128138            0.000479189961           
       2.206039             0.00820962226             0.00049535484           
       2.208679             0.00723413111            0.000475816429           
       2.211319             0.00750281481            0.000487366087           
       2.213960             0.00804204654             0.00051133635           
       2.216600             0.00769517175            0.000517432458           
       2.219241             0.00675162246            0.000463216163           
       2.221881             0.00762622755            0.000493317507           
       2.224521             0.00693200229            0.000476091506           
       2.227162             0.00674651551            0.000460274616           
       2.229802             0.00769853079            0.000507069956           
       2.232443             0.00780450454            0.000502495225           
       2.235083             0.00740895233            0.000504037523           
       2.237723             0.00801947977            0.000503232006           
       2.240364             0.00736821913            0.000494249144           
       2.243004             0.00750556839            0.000494852516           
       2.245644             0.00680556045            0.000475928121           
       2.248285             0.00767427534             0.00049526721           
       2.250925             0.00793159084            0.000506560386           
       2.253566             0.00746780209            0.000525480104           
       2.256206              0.0066390464             0.00048555786           
       2.258846             0.00778715523            0.000500246863           
       2.261487             0.00691292431            0.000494705441           
       2.264127             0.00760842005            0.000501236987           
       2.266767             0.00752091219            0.000511623483           
       2.269408             0.00755612718            0.000514919874           
       2.272048             0.00704097352            0.000494090217           
       2.274689             0.00637417692            0.000476307028           
       2.277329             0.00706883598            0.000472279328           
       2.279969             0.00669945548            0.000489403463           
       2.282610             0.00665477107            0.000474202432           
       2.285250             0.00730206721            0.000475437825           
       2.287891             0.00598446185            0.000461465587           
       2.290531             0.00745678844            0.000522037706           
       2.293171             0.00710909209            0.000496514923           
       2.295812             0.00719761716            0.000497588544           
       2.298452             0.00710150859            0.000516859667           
       2.301092             0.00796710498            0.000508652001           
       2.303733             0.00800651364            0.000530482919           
       2.306373             0.00699896249            0.000503793668           
       2.309014             0.00690169547            0.000490521375           
       2.311654             0.00801920258            0.000551769687           
       2.314294             0.00751763857            0.000492193389           
       2.316935             0.00666690854            0.000465423022           
       2.319575             0.00764103031            0.000522067829           
       2.322215             0.00692540455            0.000517978363           
       2.324856             0.00855688057            0.000529358057           
       2.327496             0.00655508284            0.000492654465           
       2.330137             0.00794008849             0.00051885259           
       2.332777              0.0082565827            0.000545550625           
       2.335417             0.00761039961            0.000508132876           
       2.338058             0.00755263738            0.000521322189           
       2.340698             0.00672464626            0.000488051072           
       2.343339             0.00736874444            0.000522132484           
       2.345979             0.00742568682            0.000495883811           
       2.348619             0.00640182493            0.000477260254           
       2.351260             0.00670976999            0.000485757464           
       2.353900             0.00657288601            0.000479254035           
       2.356540              0.0075226482            0.000511983747           
       2.359181              0.0073192911            0.000497936125           
       2.361821             0.00712659369            0.000474619163           
       2.364462             0.00790061805            0.000522654308           
       2.367102             0.00785621165            0.000535599331           
       2.369742             0.00675249118            0.000522656136           
       2.372383             0.00673368832            0.000472604463           
       2.375023             0.00734325443            0.000518809416           
       2.377663             0.00639880036            0.000463060177           
       2.380304             0.00769245725            0.000516181375           
       2.382944             0.00707612745            0.000471539589           
       2.385585             0.00746761708            0.000516629541           
       2.388225             0.00722510865            0.000505783744           
       2.390865             0.00750328377             0.00051013382           
       2.393506             0.00711371342            0.000487343147           
       2.396146             0.00729698827            0.000533682136           
       2.398787             0.00703187366            0.000482812253           
       2.401427             0.00617291661            0.000436635471           
       2.404067             0.00733649722            0.000486630053           
       2.406708             0.00705916583             0.00047161962           
       2.409348             0.00759282028             0.00051880901           
       2.411988             0.00748844437            0.000504812132           
       2.414629             0.00712672938            0.000507806629           
       2.417269             0.00714902465            0.000514538367           
       2.419910             0.00663277099            0.000496762107           
       2.422550             0.00615424654            0.000457806108           
       2.425190             0.00772288573            0.000540589466           
       2.427831             0.00744194434              0.0005276826           
       2.430471             0.00740850801            0.000501588986           
       2.433112             0.00738093028            0.000487518191           
       2.435752             0.00686115905            0.000497448153           
       2.438392             0.00788419171            0.000514691429           
       2.441033               0.007097679            0.000517547278           
       2.443673             0.00697834117            0.000513572428           
       2.446313             0.00616189318             0.00048302035           
       2.448954             0.00767032641            0.000513116502           
       2.451594             0.00685203495            0.000521460841           
       2.454235             0.00730099548            0.000505037922           
       2.456875             0.00737352377            0.000531069016           
       2.459515             0.00772776708            0.000557750675           
       2.462156             0.00810995221            0.000539458825           
       2.464796             0.00720174646              0.0005017975           
       2.467436             0.00740486732            0.000526184543           
       2.470077             0.00802369408            0.000519148741           
       2.472717             0.00801699348            0.000521179828           
       2.475358             0.00794805746            0.000524345207           
       2.477998             0.00843175383            0.000530959945           
       2.480638             0.00678444687            0.000484740462           
       2.483279             0.00734252921            0.000527056808           
       2.485919             0.00842506338            0.000544096507           
       2.488560             0.00736483507            0.000507289271           
       2.491200             0.00711103983            0.000513294368           
       2.493840             0.00729610687            0.000550154864           
       2.496481             0.00576654951            0.000481099074           
       2.499121              0.0067499754            0.000506277386           
       2.501761             0.00662073199            0.000508050446           
       2.504402             0.00665355543            0.000501867299           
       2.507042             0.00596862183            0.000471812935           
       2.509683             0.00719670103            0.000510165114           
       2.512323             0.00645914252             0.00050760221           
       2.514963             0.00668378654            0.000509974499           
       2.517604             0.00809308443             0.00058229986           
       2.520244             0.00677503263            0.000499479271           
       2.522884             0.00642623627            0.000493408866           
       2.525525             0.00692597732            0.000518048833           
       2.528165             0.00828723631            0.000557843098           
       2.530806             0.00707830252            0.000524537332           
       2.533446             0.00710554906            0.000514328487           
       2.536086             0.00723776091            0.000514445383           
       2.538727             0.00832119638            0.000529183405           
       2.541367             0.00582202146            0.000446999776           
       2.544008             0.00699478569            0.000506005564           
       2.546648             0.00652193179             0.00049698395           
       2.549288             0.00705838123            0.000527554045           
       2.551929             0.00701911959            0.000517698888           
       2.554569              0.0073595555            0.000510711567           
       2.557209             0.00714500918            0.000507833747           
       2.559850             0.00667912989            0.000492575133           
       2.562490             0.00693863655            0.000518898783           
       2.565131             0.00632861257            0.000513823173           
       2.567771             0.00716711321             0.00052720101           
       2.570411             0.00717344069            0.000521726916           
       2.573052             0.00715729411            0.000527702437           
       2.575692             0.00657251763            0.000502623377           
       2.578332             0.00686458716            0.000515793937           
       2.580973             0.00658236985            0.000500274317           
       2.583613              0.0073644525            0.000516560551           
       2.586254             0.00687977174            0.000498579058           
       2.588894             0.00623271833            0.000492801826           
       2.591534             0.00702100384            0.000541442378           
       2.594175             0.00690686814            0.000526889489           
       2.596815             0.00641847602            0.000510914351           
       2.599456             0.00647424066            0.000486597848           
       2.602096              0.0076157584            0.000531771368           
       2.604736             0.00641721869            0.000499711869           
       2.607377             0.00641276343            0.000486373904           
       2.610017             0.00683644282             0.00049339582           
       2.612657             0.00668368296            0.000518904408           
       2.615298             0.00641333769            0.000496262286           
       2.617938             0.00712990841              0.0005597463           
       2.620579             0.00772251311            0.000559236148           
       2.623219             0.00766831451            0.000556475886           
       2.625859             0.00709444297            0.000520411774           
       2.628500             0.00681548934            0.000506734514           
       2.631140             0.00788809257            0.000553552315           
       2.633780             0.00663753549            0.000507339171           
       2.636421             0.00634154213             0.00050809314           
       2.639061             0.00775113374             0.00052880531           
       2.641702             0.00705821544            0.000516297732           
       2.644342              0.0085789099            0.000571630511           
       2.646982             0.00676578235            0.000500053805           
       2.649623             0.00766584699            0.000557805049           
       2.652263             0.00607128176            0.000491430854           
       2.654904             0.00786049973            0.000559736977           
       2.657544             0.00742477461            0.000512393529           
       2.660184             0.00669105837            0.000514771617           
       2.662825             0.00678659709            0.000530461269           
       2.665465             0.00686103283            0.000515849289           
       2.668105              0.0063836607            0.000524468479           
       2.670746             0.00794020731            0.000540346251           
       2.673386              0.0122716856            0.000692293275           
       2.676027               0.012188426            0.000678867724           
       2.678667             0.00934044959            0.000579874224           
       2.681307             0.00954222819            0.000575880685           
       2.683948                0.01165587            0.000653946471           
       2.686588              0.0115458585            0.000640059601           
       2.689229               0.013195089            0.000668618736           
       2.691869             0.00989586178            0.000611974492           
       2.694509             0.00792077711            0.000547808769           
       2.697150             0.00776849852            0.000533715542           
       2.699790             0.00760696978            0.000553676483           
       2.702430             0.00751502835            0.000526040066           
       2.705071              0.0066003313            0.000509410095           
       2.707711             0.00715811375            0.000514888333           
       2.710352             0.00660639364            0.000522657185           
       2.712992             0.00630516041            0.000520043354           
       2.715632             0.00701644392             0.00050898517           
       2.718273             0.00648983418            0.000507313374           
       2.720913             0.00594371321            0.000484117703           
       2.723553             0.00756863691            0.000549964996           
       2.726194             0.00602037191            0.000512732834           
       2.728834             0.00748032866            0.000571799167           
       2.731475              0.0079941954            0.000545545527           
       2.734115               0.007468615            0.000543672349           
       2.736755             0.00636135599            0.000505885254           
       2.739396             0.00646881958            0.000507184691           
       2.742036             0.00705482313            0.000554322189           
       2.744677             0.00716243586            0.000541931893           
       2.747317             0.00766551819            0.000556643528           
       2.749957              0.0069961532            0.000535516948           
       2.752598              0.0064000796            0.000517754717           
       2.755238             0.00671519026            0.000539921484           
       2.757878             0.00746105589            0.000564141119           
       2.760519             0.00746599788            0.000558344224           
       2.763159             0.00723231837            0.000544045251           
       2.765800             0.00631497415            0.000484471057           
       2.768440             0.00859478737            0.000569360439           
       2.771080             0.00838928493            0.000567207869           
       2.773721             0.00777302649            0.000560061785           
       2.776361             0.00829417271            0.000586513445           
       2.779001             0.00714338393            0.000563684415           
       2.781642             0.00573067604            0.000501157889           
       2.784282             0.00597128261            0.000519982691           
       2.786923             0.00696537703            0.000566545147           
       2.789563             0.00661325391            0.000531678454           
       2.792203             0.00646496223            0.000502177987           
       2.794844             0.00640160868            0.000547675506           
       2.797484             0.00662238025            0.000525709167           
       2.800125             0.00682302023            0.000561094802           
       2.802765             0.00649426071            0.000537992758           
       2.805405             0.00668693914            0.000547762997           
       2.808046               0.006260055            0.000539307474           
       2.810686             0.00630636845            0.000497390616           
       2.813326             0.00765537407             0.00056923461           
       2.815967             0.00616500173             0.00052535231           
       2.818607             0.00602291181             0.00049551916           
       2.821248             0.00620286773            0.000492427375           
       2.823888             0.00789665654            0.000576733941           
       2.826528             0.00752159664            0.000545112793           
       2.829169             0.00605778576            0.000512411776           
       2.831809             0.00624108893            0.000527181143           
       2.834449             0.00698008215            0.000561042713           
       2.837090             0.00719649454            0.000550214431           
       2.839730             0.00728102748            0.000550734398           
       2.842371             0.00714593827            0.000546388865           
       2.845011             0.00726247681            0.000555216829           
       2.847651             0.00740534214             0.00056133983           
       2.850292             0.00633096169            0.000524118613           
       2.852932             0.00729227802            0.000574763814           
       2.855573             0.00664681473            0.000532290793           
       2.858213             0.00611092909            0.000535963541           
       2.860853             0.00637009674            0.000509031734           
       2.863494             0.00681990221            0.000545321349           
       2.866134             0.00747486419            0.000593386665           
       2.868774             0.00654686178            0.000545777545           
       2.871415             0.00669820637            0.000560648885           
       2.874055             0.00651018566            0.000528335494           
       2.876696             0.00746689348            0.000581131038           
       2.879336             0.00767552326            0.000567869442           
       2.881976             0.00642768406            0.000535996519           
       2.884617             0.00675432035            0.000541377197           
       2.887257             0.00727568864            0.000564783573           
       2.889897             0.00735333222            0.000556103501           
       2.892538             0.00858223814            0.000658154179           
       2.895178             0.00696651582            0.000535711912           
       2.897819             0.00719231914            0.000555263111           
       2.900459             0.00645985068            0.000515993144           
       2.903099             0.00725972376            0.000541407584           
       2.905740             0.00619565807            0.000513099127           
       2.908380             0.00590422159             0.00050657721           
       2.911021             0.00709524469             0.00056435471           
       2.913661             0.00609175226            0.000522768547           
       2.916301             0.00701174011            0.000561390685           
       2.918942             0.00732624774            0.000548894953           
       2.921582             0.00716050825             0.00056776896           
       2.924222              0.0072757995            0.000554469488           
       2.926863             0.00701916313            0.000567266793           
       2.929503             0.00779877034            0.000605024264           
       2.932144             0.00738406101            0.000565133341           
       2.934784             0.00668532317            0.000528913047           
       2.937424             0.00611452391            0.000511023044           
       2.940065             0.00700523689            0.000521766192           
       2.942705              0.0068641096            0.000515835734           
       2.945346             0.00686436876            0.000547442596           
       2.947986             0.00763827357            0.000588828319           
       2.950626             0.00690544155            0.000556717237           
       2.953267              0.0077742214            0.000581156434           
       2.955907             0.00672943754            0.000560898856           
       2.958547             0.00657323444             0.00052333566           
       2.961188             0.00703260582            0.000564741182           
       2.963828             0.00677759828            0.000542313192           
       2.966469             0.00752070996            0.000560414227           
       2.969109             0.00731144859            0.000560749608           
       2.971749             0.00683930049            0.000538958521           
       2.974390             0.00804103952            0.000574273849           
       2.977030             0.00716228493            0.000554099278           
       2.979670             0.00827607378            0.000579361392           
       2.982311             0.00905284514            0.000628026751           
       2.984951             0.00872224238            0.000586300635           
       2.987592             0.00635178944            0.000510348601           
       2.990232             0.00821062644            0.000603442466           
       2.992872             0.00781360373              0.0005544958           
       2.995513             0.00991776684            0.000611173495           
       2.998153              0.0144318117            0.000749642281           
       3.000794              0.0115167482            0.000648640813           
       3.003434             0.00905667689            0.000576074973           
       3.006074              0.0242976036            0.000930349638           
       3.008715              0.0825336912             0.00165519253           
       3.011355               0.250329457             0.00277978625           
       3.013995               0.184702207             0.00239426088           
       3.016636              0.0979010097             0.00170693426           
       3.019276               0.138939716             0.00199885339           
       3.021917               0.516097917             0.00370429001           
       3.024557                1.22509479              0.0056111742           
       3.027197                1.10461454             0.00519463997           
       3.029838               0.658434617             0.00406746104           
       3.032478               0.262853869             0.00257256062           
       3.035118              0.0695456191             0.00134100719           
       3.037759              0.0729833438             0.00137197879           
       3.040399              0.0953385788             0.00161751983           
       3.043040               0.342605013             0.00310386681           
       3.045680               0.384699894             0.00309450658           
       3.048320               0.129039306             0.00183121169           
       3.050961               0.140612269             0.00194524759           
       3.053601               0.115891154             0.00170086318           
       3.056242               0.104022441              0.0017132779           
       3.058882               0.116389053             0.00194401622           
       3.061522              0.0928162531             0.00170324692           
       3.064163               0.113223586             0.00185750724           
       3.066803               0.171897557             0.00240955292           
       3.069443              0.0982302957             0.00190573441           
       3.072084              0.0444473603             0.00124825285           
       3.074724               0.041203373              0.0013421787           
       3.077365              0.0299575835             0.00118470694           
       3.080005             0.00999230237            0.000688088509           
       3.082645               0.014820596            0.000880339267           
       3.085286              0.0133739909            0.000842870277           
       3.087926              0.0132479621            0.000832424059           
       3.090566              0.0108869078             0.00073937182           
       3.093207              0.0136442896            0.000861333542           
       3.095847             0.00838716382            0.000647274695           
       3.098488             0.00948821125            0.000763374687           
       3.101128             0.00857837292            0.000730519955           
       3.103768             0.00898494874             0.00073356562           
       3.106409             0.00866971818            0.000766893514           
       3.109049              0.0089889993            0.000749378677           
       3.111690             0.00813564236            0.000700682666           
       3.114330             0.00784621047            0.000702744412           
       3.116970             0.00747944632            0.000691390728           
       3.119611             0.00922249748            0.000817206577           
       3.122251              0.0159528144             0.00112427321           
       3.124891              0.0353684775             0.00168961591           
       3.127532              0.0254094938             0.00140102509           
       3.130172              0.0173494492             0.00117769003           
       3.132813               0.011982091              0.0009635072           
       3.135453             0.00637781254            0.000697159823           
       3.138093             0.00587456078            0.000724982084           
       3.140734              0.0054054534            0.000641590987           
       3.143374             0.00775036499            0.000812459278           
       3.146014              0.0077779387            0.000876203964           
       3.148655             0.00800999694            0.000826574089           
       3.151295             0.00502527231            0.000697690122           
       3.153936             0.00724147715            0.000809021241           
       3.156576             0.00633847084            0.000746604764           
       3.159216             0.00746859418            0.000814488165           
       3.161857             0.00702406141            0.000786662427           
       3.164497             0.00671872814            0.000808390917           
       3.167138             0.00726292412            0.000868433486           
       3.169778             0.00541190144            0.000737282526           
       3.172418             0.00649618971            0.000799554833           
       3.175059             0.00603859226            0.000683417719           
       3.177699             0.00639177966             0.00074456125           
       3.180339             0.00587076711            0.000764535585           
       3.182980             0.00541691314            0.000759283691           
       3.185620             0.00662618357            0.000855233296           
       3.188261             0.00570813243             0.00080794481           
       3.190901             0.00549432572            0.000729025428           
       3.193541             0.00554239469            0.000769373546           
       3.196182              0.0054480791            0.000794946186           
       3.198822             0.00601575832            0.000835616023           
       3.201463             0.00594333188            0.000816261047           
       3.204103             0.00520437118            0.000759185391           
       3.206743             0.00565209947             0.00079109355           
       3.209384             0.00527595243            0.000825778995           
       3.212024             0.00687881694            0.000879087912           
       3.214664             0.00681851573            0.000995256993           
       3.217305             0.00563034952            0.000859689595           
       3.219945             0.00581403922            0.000899160602           
       3.222586             0.00591854882             0.00086409863           
       3.225226             0.00590454885            0.000957448428           
       3.227866             0.00453345661            0.000766793077           
       3.230507             0.00625637722            0.000933770129           
       3.233147             0.00623606593            0.000939780968           
       3.235787             0.00679478433              0.0010039081           
       3.238428             0.00568784363            0.000991179524           
       3.241068             0.00571947134            0.000929375313           
       3.243709             0.00676348752             0.00104415663           
       3.246349             0.00413559225            0.000744303833           
       3.248989              0.0046838907            0.000935303966           
       3.251630             0.00693647219             0.00109605592           
       3.254270             0.00732198161             0.00100642977           
       3.256911             0.00673360254             0.00105308111           
       3.259551             0.00341906747            0.000807870836           
       3.262191              0.0051477617             0.00101254527           
       3.264832             0.00498235271             0.00104082206           
       3.267472             0.00765120009             0.00120997571           
       3.270112             0.00441044215               0.001015232           
       3.272753              0.0046982893             0.00095911105           
       3.275393             0.00530979512             0.00104036654           
       3.278034             0.00591565822             0.00109873629           
       3.280674             0.00670197912             0.00126905014           
       3.283314             0.00612928848             0.00108540518           
       3.285955             0.00347620467            0.000843386828           
       3.288595             0.00686634011             0.00131871649           
       3.291235             0.00506575108             0.00116439466           
       3.293876              0.0032890393            0.000951719955           
       3.296516             0.00583484418             0.00121694417           
       3.299157             0.00496196491             0.00110813155           
       3.301797             0.00608600669             0.00139989785           
       3.304437             0.00555393295             0.00115861549           
       3.307078             0.00498258201             0.00120885728           
       3.309718             0.00499581304             0.00124941349           
       3.312359             0.00437544006             0.00116954551           
       3.314999             0.00419964555             0.00112814364           
       3.317639             0.00360933748             0.00100023259           
       3.320280             0.00344298542             0.00103865763           
       3.322920             0.00611399784             0.00140739573           
       3.325560             0.00580683855             0.00137251916           
       3.328201             0.00496926362             0.00114350061           
       3.330841             0.00466358968             0.00134822829           
       3.333482             0.00482965352             0.00129687631           
       3.336122             0.00695607143             0.00155712034           
       3.338762             0.00693238335             0.00179564988           
       3.341403             0.00464329605             0.00140424356           
       3.344043              0.0070019522              0.0016555693           
       3.346683             0.00531522194             0.00147261616           
       3.349324             0.00566640189             0.00170952701           
       3.351964             0.00514479628             0.00172254838           
       3.354605             0.00605972187             0.00213800096           
       3.357245             0.00789754388             0.00220183784           
       3.359885             0.00552765373             0.00147433201           
       3.362526             0.00307134493             0.00137431855           
       3.365166             0.00545198448             0.00172703545           
       3.367807              0.0026718893             0.00154729876           
       3.370447             0.00555582653             0.00185081458           
       3.373087             0.00626509023             0.00210174244           
       3.375728             0.00708995002             0.00252334507           
       3.378368             0.00595650423             0.00343258013           
       3.381008             0.00551543374             0.00246259463           
       3.383649             0.00417740849             0.00171925789           
       3.386289             0.00294046783             0.00170716819           
       3.388930             0.00492280507             0.00349395839           
       3.391570             0.00121798365             0.00122940401           
       3.394210             0.00999636355             0.00445722837           
       3.396851             0.00970262326             0.00491204397           
       3.399491             0.00242178425             0.00245475118           
       3.402131           -2.66077957e-05                         0           
       3.404772           -2.66206379e-05                         0           
       3.407412                       nan                       nan           
       3.410053              0.0186767916              0.0136597054           
       3.412693                       nan                       nan           
       3.415333           -2.67372016e-05                         0           
