################################################################################
# EDF_DataBlockID                     0.Image.Psd
# EDF_BinarySize                      2105344
# EDF_HeaderSize                      2560
# ByteOrder                           LowByteFirst
# DataType                            FloatValue
# Dim_1                               512
# Dim_2                               1028
# Image                               0
# HeaderID                            EH:000000:000000:000000
# Size                                2105344
# Center_1                            304.9000
# Center_2                            588.7000
# Comment                             Xenocs_Cell_Window - 20251028_20perc_iodine_1.23mg
# DDummy                              0.6
# Date                                2025-10-29T10:04:31
# Delta                               21.910000
# Dummy                               -1.5
# ExposureTime                        360
# Gamma                               15.360000
# Intensity1                          8.51674e-10
# PSize_1                             7.5e-05
# PSize_2                             7.5e-05
# Pressure                            0.0331011
# SampleDistance                      0.115750
# SampleEnvKind                       large
# SampleEnvPN                         ElectroChemical cell
# SampleEnvSN                         1141
# Thickness                           0
# Wavelength                          1.541891e-10
# Wavelength                          1.54189e-10
# aux                                 0
# aux_dial                            0.002375
# beamx                               588.434
# beamx_dial                          588.434
# beamz                               657.808
# beamz_dial                          657.808
# det0x                               0
# det0x_dial                          6.36945
# det0xvd                             0
# det0xvd_dial                        0
# det0y                               450.002
# det0y_dial                          481.635
# det0z                               0
# det0z_dial                          1.23302
# det0zvd                             0
# det0zvd_dial                        0
# mag                                 1.818
# mag_dial                            1.818
# om                                  0.2499
# om_dial                             -0.610199
# phi                                 -0.0120535
# phi_dial                            0
# ry                                  0.599993
# ry_dial                             0.599993
# s1bot                               0.8
# s1bot_dial                          -1.66094
# s1hl                                0.8
# s1hl_dial                           -0.608437
# s1hr                                0.8
# s1hr_dial                           0.970938
# s1top                               0.8
# s1top_dial                          -0.461562
# s2bot                               0.45
# s2bot_dial                          1.36109
# s2hl                                0.45
# s2hl_dial                           -0.83375
# s2hr                                0.45
# s2hr_dial                           -0.118594
# s2top                               0.45
# s2top_dial                          1.44734
# w2theta                             32
# w2theta_dial                        32
# waxsch                              19.2605
# waxsch_dial                         -32.7355
# waxsh                               137.085
# waxsh_dial                          -43.5338
# waxsth                              26.0607
# waxsth_dial                         -19.4086
# waxsz                               67.0407
# waxsz_dial                          -23.7954
# wind                                65.9854
# wind_dial                           66.0041
# wpsi                                124
# wpsi_dial                           124
# wstod                               115
# wstod_dial                          115
# x                                   0
# x_dial                              1.00969
# z                                   0
# z_dial                              13.3172
# CountCutoff                         6807993
# DetectorModel                       Dectris EIGER2 Si 500K, S/N E-01-0554
# ThresholdSetting                    4023.88989258
# Saturation                          0
# FlatField                           Corrected
# BackgroundReductionExtra            0.02
# BackgroundCorrectionConstant        0.0026712
# Detector                            0
# Monitor                             0
# Pil_Roi0                            0
# SumForIntensity1                    3.06603e+08
# TransmittedFlux                     851674
# det                                 0
# mon                                 0
# pilai0                              3.06603e+08
# pilai1                              766407
# pilct0                              5.31469e+08
# pilct1                              766407
# pilroi0                             0
# pilroi1                             0
# sec                                 1
# title                               20251028_20perc_iodine_1.23mg_1_00179.edf
# usaxs0                              0
# Operation                           Azimuthal average I(q)
# Error_model                         ErrorModel.poisson
# Geometrical_correction              True
# Transmission_correction             True
# Thickness_correction                False
# Binning mode                        Uniform
# Binning factor                      1.0
# Psi                                 0.0
# Omega                               0.2499
# MaskInvalidPixels                   True
# DetectorEdge                        3
# MaskFiles                           ['WAXS_corrected.edf']
################################################################################
    q(A⁻¹)                Intensity(a.u.)            Sigma_I(a.u.)            
       0.693100             0.00830883121             0.00608901918           
       0.695741              0.0112766717             0.00578862694           
       0.698381           -2.38194822e-05                         0           
       0.701021             0.00885063929             0.00888050075           
       0.703662              0.0142896938             0.00651329966           
       0.706302             0.00691371066             0.00350753774           
       0.708942             0.00860654098             0.00505105535           
       0.711583           -2.37505468e-05                         0           
       0.714223             0.00590537962             0.00418289951           
       0.716864             0.00870811881             0.00332342955           
       0.719504             0.00738451789             0.00330257914           
       0.722144              0.0113323654             0.00378877889           
       0.724785             0.00397191482             0.00178924719           
       0.727425             0.00445559534             0.00256367696           
       0.730065              0.0110051392             0.00285002991           
       0.732706             0.00774789326             0.00200813176           
       0.735346             0.00612482419             0.00232740153           
       0.737987             0.00574677257              0.0015930653           
       0.740627             0.00487390183             0.00218900345           
       0.743267             0.00346082908             0.00123549301           
       0.745908             0.00783568241             0.00201696031           
       0.748548             0.00745186453             0.00181303358           
       0.751189             0.00483942678             0.00196873319           
       0.753829             0.00815163276              0.0023487528           
       0.756469             0.00654921104             0.00169762924           
       0.759110             0.00925847032             0.00212710295           
       0.761750             0.00574005111              0.0014809399           
       0.764390             0.00666618829             0.00167041279           
       0.767031             0.00468572261             0.00121275331           
       0.769671             0.00589213478             0.00169642692           
       0.772312             0.00677375613             0.00138472952           
       0.774952             0.00670583668              0.0018605287           
       0.777592             0.00658231854             0.00134263055           
       0.780233             0.00555128105             0.00148760441           
       0.782873             0.00909842258             0.00182144697           
       0.785513             0.00832221597             0.00186233046           
       0.788154             0.00521543836             0.00123329376           
       0.790794             0.00582723411             0.00155851646           
       0.793435             0.00810321845             0.00165104592           
       0.796075             0.00437660126             0.00116886682           
       0.798715              0.0065071301             0.00168424021           
       0.801356             0.00604453826             0.00139709766           
       0.803996             0.00666735488             0.00149594182           
       0.806637             0.00785423811             0.00129211798           
       0.809277             0.00872729826             0.00147425083           
       0.811917             0.00608916647             0.00115119274           
       0.814558             0.00656091503             0.00124194162           
       0.817198             0.00895517709             0.00137848201           
       0.819838             0.00585089048             0.00112768347           
       0.822479             0.00840323828             0.00158696982           
       0.825119             0.00517795856             0.00106027454           
       0.827760             0.00532314395             0.00108897019           
       0.830400             0.00766546336             0.00122991839           
       0.833040             0.00732690459              0.0012597983           
       0.835681             0.00641627652             0.00134022395           
       0.838321             0.00709534936             0.00118292293           
       0.840961             0.00698779026             0.00127904398           
       0.843602             0.00901855778             0.00133251705           
       0.846242             0.00609198044             0.00109501154           
       0.848883             0.00681882399             0.00118555297           
       0.851523             0.00623207474             0.00111931937           
       0.854163             0.00771343262             0.00132428271           
       0.856804             0.00680228506             0.00111817613           
       0.859444             0.00830540958             0.00121060865           
       0.862085             0.00650676371             0.00111680615           
       0.864725             0.00703181617             0.00118815496           
       0.867365             0.00707630095             0.00110524454           
       0.870006             0.00702197812             0.00104916271           
       0.872646             0.00568955097            0.000990325272           
       0.875286             0.00716103985             0.00106888238           
       0.877927             0.00649758076            0.000982480742           
       0.880567             0.00575481614            0.000957926532           
       0.883208             0.00731861892             0.00107008975           
       0.885848             0.00894815574             0.00122855793           
       0.888488             0.00829880016             0.00110971329           
       0.891129             0.00688086808             0.00103754498           
       0.893769             0.00658226426            0.000971173256           
       0.896410             0.00656962911              0.0009046043           
       0.899050             0.00602408524            0.000952618716           
       0.901690             0.00589098454             0.00102615093           
       0.904331             0.00773213053             0.00104225167           
       0.906971             0.00839589309             0.00115539598           
       0.909611             0.00803283207             0.00102878793           
       0.912252             0.00885974673             0.00111598494           
       0.914892             0.00667539879             0.00105857527           
       0.917533             0.00805850445             0.00110027138           
       0.920173             0.00645289467            0.000913494294           
       0.922813             0.00938218312             0.00115588952           
       0.925454             0.00853223672            0.000992581671           
       0.928094             0.00680699319            0.000946486987           
       0.930734             0.00656099767             0.00100041588           
       0.933375             0.00923149636             0.00117500895           
       0.936015              0.0081290993             0.00100141587           
       0.938656             0.00710985001             0.00100467952           
       0.941296             0.00724201409            0.000918940065           
       0.943936             0.00715736051            0.000895880737           
       0.946577             0.00728357408            0.000897770434           
       0.949217             0.00736423116            0.000830139926           
       0.951858             0.00871783394            0.000945487477           
       0.954498             0.00577796446            0.000890949917           
       0.957138              0.0087442234             0.00103834807           
       0.959779             0.00887320447              0.0010311194           
       0.962419             0.00932635426              0.0010500893           
       0.965059             0.00862703187             0.00106220586           
       0.967700              0.0072611357             0.00099807776           
       0.970340             0.00695858588            0.000864604116           
       0.972981             0.00710466923            0.000795962946           
       0.975621             0.00767499183            0.000880098274           
       0.978261             0.00745678921            0.000824275006           
       0.980902             0.00753612688            0.000991436482           
       0.983542             0.00827302252            0.000919905944           
       0.986182             0.00730764794            0.000848829454           
       0.988823             0.00744972552            0.000832188622           
       0.991463              0.0094070917            0.000997702997           
       0.994104             0.00876612882            0.000939532141           
       0.996744             0.00671556716            0.000838775686           
       0.999384             0.00762434952            0.000799292757           
       1.002025             0.00804365875            0.000916319442           
       1.004665             0.00839978501            0.000855739481           
       1.007306             0.00733740849            0.000795701478           
       1.009946             0.00735831079            0.000812659241           
       1.012586             0.00808068918            0.000829423455           
       1.015227             0.00972144197            0.000977345942           
       1.017867             0.00717923003            0.000807191432           
       1.020507             0.00801705841            0.000826239003           
       1.023148             0.00701825356            0.000834151905           
       1.025788             0.00773585889            0.000803002461           
       1.028429              0.0084210475            0.000877744016           
       1.031069             0.00777640492            0.000793746122           
       1.033709             0.00702368429            0.000801879194           
       1.036350             0.00840421107             0.00078780254           
       1.038990             0.00927120483            0.000842646282           
       1.041630             0.00708042233            0.000768060302           
       1.044271             0.00758623378              0.0007476888           
       1.046911             0.00890167068            0.000851932938           
       1.049552             0.00775237796             0.00083528681           
       1.052192             0.00849111851            0.000798236674           
       1.054832             0.00800517506             0.00078210938           
       1.057473             0.00884958599            0.000810638949           
       1.060113             0.00861319151            0.000779962572           
       1.062754             0.00957356322            0.000839550371           
       1.065394             0.00682439401            0.000749416387           
       1.068034             0.00844477577            0.000758509714           
       1.070675             0.00980244313            0.000852451569           
       1.073315             0.00885548119            0.000821844169           
       1.075955             0.00733103439            0.000705934356           
       1.078596             0.00915069067            0.000838225428           
       1.081236             0.00837455619            0.000767862002           
       1.083877              0.0100873043            0.000835172838           
       1.086517             0.00809288226            0.000802146588           
       1.089157             0.00787876613            0.000821232699           
       1.091798             0.00938348737            0.000785739228           
       1.094438             0.00797293834            0.000721940693           
       1.097078              0.0089721747             0.00073452622           
       1.099719             0.00849939959            0.000773286596           
       1.102359             0.00734513471            0.000673223968           
       1.105000             0.00864427128             0.00081666018           
       1.107640             0.00930577447            0.000810186877           
       1.110280             0.00938861029            0.000742516608           
       1.112921              0.0100975575            0.000827190221           
       1.115561             0.00865477601            0.000727845169           
       1.118202             0.00940249361            0.000759349376           
       1.120842             0.00898157481            0.000780012845           
       1.123482             0.00892950849            0.000774351774           
       1.126123             0.00912676793            0.000750892041           
       1.128763             0.00902155527            0.000751669976           
       1.131403             0.00935800456            0.000737680741           
       1.134044             0.00817991003            0.000709688039           
       1.136684             0.00854529849              0.0007733653           
       1.139325             0.00819759963            0.000697778869           
       1.141965             0.00822605795            0.000703609939           
       1.144605             0.00936014521            0.000715647933           
       1.147246             0.00842022472             0.00069465811           
       1.149886             0.00968354247            0.000742304231           
       1.152527             0.00896360552            0.000724563085           
       1.155167             0.00905203951            0.000692561147           
       1.157807              0.0087051269            0.000728181121           
       1.160448             0.00825937145            0.000692642274           
       1.163088             0.00856318131            0.000672720163           
       1.165728             0.00840712549            0.000684371945           
       1.168369             0.00963377024            0.000739367611           
       1.171009             0.00901668474            0.000694175247           
       1.173650             0.00871540507            0.000700386464           
       1.176290              0.0103328297            0.000745242925           
       1.178930             0.00938966408            0.000696273191           
       1.181571             0.00971352671            0.000722222563           
       1.184211              0.0096762406            0.000723390854           
       1.186851              0.0101842834            0.000725578048           
       1.189492             0.00924628442             0.00068670613           
       1.192132              0.0103194928            0.000717325287           
       1.194773             0.00995826609            0.000707737554           
       1.197413              0.0107725108            0.000705291312           
       1.200053             0.00937331556             0.00067461126           
       1.202694             0.00882503911            0.000622471784           
       1.205334             0.00966638837            0.000702079221           
       1.207975             0.00886099437            0.000641629015           
       1.210615             0.00931651601            0.000725791602           
       1.213255              0.0110488987            0.000707781314           
       1.215896             0.00938144599            0.000664007566           
       1.218536             0.00862998347            0.000612366941           
       1.221176              0.0103210432             0.00072808161           
       1.223817             0.00967213686            0.000661628415           
       1.226457             0.00950522819            0.000669108669           
       1.229098              0.0111132287            0.000723459709           
       1.231738              0.0103616777            0.000702007031           
       1.234378             0.00918939958            0.000621206864           
       1.237019              0.0092364504            0.000641784517           
       1.239659              0.0107782301            0.000687243582           
       1.242299             0.00987279225            0.000649387381           
       1.244940              0.0102895919            0.000644763626           
       1.247580              0.0100461181            0.000656573045           
       1.250221             0.00977189752            0.000643554462           
       1.252861              0.0101704292             0.00062503543           
       1.255501             0.00981999265            0.000666874266           
       1.258142               0.010865071            0.000659150179           
       1.260782              0.0102209104            0.000653144995           
       1.263423              0.0109497627            0.000649590157           
       1.266063             0.00925952122            0.000612270125           
       1.268703              0.0103646185            0.000642401621           
       1.271344             0.00969111161            0.000642231208           
       1.273984              0.0105886455            0.000648355561           
       1.276624              0.0105462202            0.000634899453           
       1.279265              0.0106584112            0.000648866991           
       1.281905              0.0111827765            0.000667586382           
       1.284546              0.0107532426            0.000632768678           
       1.287186               0.010392656            0.000610315653           
       1.289826              0.0107873721            0.000655323788           
       1.292467              0.0101639013             0.00062209357           
       1.295107              0.0106313917            0.000629919242           
       1.297747              0.0115133452            0.000627284884           
       1.300388              0.0104698365            0.000652094901           
       1.303028               0.010993376            0.000637903712           
       1.305669              0.0117074771            0.000673970678           
       1.308309               0.011488794            0.000661071733           
       1.310949              0.0105407551            0.000632572862           
       1.313590              0.0105299049            0.000612483873           
       1.316230              0.0103330849            0.000647468084           
       1.318871              0.0122702514            0.000691003257           
       1.321511               0.010686024            0.000632901508           
       1.324151              0.0104623335            0.000607676435           
       1.326792              0.0110059261            0.000627116354           
       1.329432              0.0103708397            0.000604458092           
       1.332072              0.0118243257            0.000635808598           
       1.334713              0.0108682326            0.000629128164           
       1.337353              0.0111372999            0.000610769389           
       1.339994              0.0106017666            0.000625342062           
       1.342634               0.012273457            0.000645211561           
       1.345274              0.0112826955            0.000640215281           
       1.347915              0.0113885462            0.000625449218           
       1.350555              0.0119181685             0.00065103299           
       1.353195              0.0103824563            0.000610627143           
       1.355836              0.0123063359            0.000654432821           
       1.358476              0.0119668165            0.000626725169           
       1.361117              0.0115474987            0.000616492069           
       1.363757              0.0116130465            0.000637116969           
       1.366397              0.0110722048            0.000603278589           
       1.369038              0.0110300457            0.000608124492           
       1.371678              0.0113564106             0.00061161572           
       1.374319              0.0109247719            0.000594714386           
       1.376959              0.0114430018            0.000602535486           
       1.379599              0.0114734319            0.000646593603           
       1.382240              0.0121925972            0.000626457105           
       1.384880              0.0119387623            0.000656616832           
       1.387520              0.0124793189            0.000637570696           
       1.390161              0.0111833861            0.000573235841           
       1.392801              0.0118218229            0.000614067651           
       1.395442              0.0121074585             0.00062992931           
       1.398082              0.0105117233            0.000549654588           
       1.400722              0.0111101022            0.000591911035           
       1.403363              0.0104793927            0.000605114698           
       1.406003               0.011312281            0.000588380485           
       1.408644              0.0112292328            0.000614100144           
       1.411284              0.0101706909            0.000553412129           
       1.413924              0.0108659153            0.000569893321           
       1.416565              0.0120106625            0.000596807915           
       1.419205              0.0108448112            0.000591579119           
       1.421845              0.0109213814            0.000593315291           
       1.424486              0.0107174962            0.000564963874           
       1.427126              0.0112053015            0.000600095662           
       1.429767              0.0117627322            0.000578490642           
       1.432407              0.0117410041            0.000604844562           
       1.435047              0.0109310521            0.000548105921           
       1.437688              0.0109551341            0.000556913518           
       1.440328              0.0113848937            0.000579434269           
       1.442968             0.00978794879            0.000549298908           
       1.445609              0.0104184532            0.000548737037           
       1.448249              0.0113523217            0.000587305596           
       1.450890              0.0108295575            0.000569879766           
       1.453530              0.0100252845             0.00057364263           
       1.456170              0.0112029413            0.000588525293           
       1.458811              0.0119016212            0.000580043497           
       1.461451              0.0114156295            0.000569567503           
       1.464092               0.011658355            0.000579353994           
       1.466732              0.0108991726            0.000555359242           
       1.469372              0.0104941916            0.000532190463           
       1.472013              0.0103514685            0.000570061582           
       1.474653              0.0102654632            0.000558931144           
       1.477293              0.0106229991            0.000580565143           
       1.479934              0.0112686379            0.000570566886           
       1.482574              0.0112401997            0.000551237431           
       1.485215              0.0108753371            0.000552315815           
       1.487855              0.0117788897            0.000582384616           
       1.490495              0.0114445924            0.000571946571           
       1.493136              0.0111092915            0.000555782003           
       1.495776              0.0118208648            0.000570694808           
       1.498416              0.0108350011            0.000564254677           
       1.501057              0.0105354639            0.000544138269           
       1.503697              0.0107171907            0.000536550428           
       1.506338              0.0109481874             0.00055221172           
       1.508978              0.0104203574            0.000533437686           
       1.511618              0.0100889029            0.000559000217           
       1.514259             0.00961397905             0.00052683279           
       1.516899             0.00955809459            0.000511467446           
       1.519540              0.0103359047            0.000540448154           
       1.522180              0.0112104891            0.000567793564           
       1.524820              0.0107390962            0.000552609816           
       1.527461              0.0102764786            0.000543249675           
       1.530101              0.0104972038            0.000543561707           
       1.532741              0.0112369276            0.000559123974           
       1.535382              0.0109065273            0.000559710554           
       1.538022              0.0111826512            0.000533909869           
       1.540663              0.0102780235            0.000550535987           
       1.543303              0.0111808351            0.000533160012           
       1.545943             0.00991152322            0.000531313947           
       1.548584              0.0107674639            0.000563721292           
       1.551224              0.0101366568            0.000505715665           
       1.553864              0.0109080632            0.000554343762           
       1.556505              0.0106421379            0.000528942603           
       1.559145              0.0101071821            0.000521791376           
       1.561786              0.0113044518            0.000552256645           
       1.564426             0.00993491636            0.000501620654           
       1.567066              0.0111283185             0.00055627531           
       1.569707              0.0103121647            0.000525869181           
       1.572347             0.00972135411            0.000527483078           
       1.574988              0.0104675068            0.000520987413           
       1.577628              0.0101664442            0.000535391869           
       1.580268              0.0105730482            0.000529009387           
       1.582909             0.00948155785            0.000530997767           
       1.585549             0.00959022837            0.000518528049           
       1.588189               0.010252883            0.000524441644           
       1.590830               0.010023092            0.000517880547           
       1.593470             0.00924393863            0.000517037233           
       1.596111             0.00931162102            0.000506633575           
       1.598751             0.00954684418            0.000497072793           
       1.601391             0.00985155223            0.000516083496           
       1.604032             0.00982361299            0.000526124665           
       1.606672              0.0101121375            0.000518632545           
       1.609312             0.00949549846            0.000524625036           
       1.611953              0.0101282537            0.000530207553           
       1.614593             0.00908021655            0.000492448333           
       1.617234             0.00843818911            0.000491988388           
       1.619874             0.00926346225            0.000513449721           
       1.622514             0.00990228597            0.000523617062           
       1.625155             0.00989179302             0.00052643119           
       1.627795             0.00937221649            0.000499863854           
       1.630436             0.00967200222            0.000505143871           
       1.633076             0.00961344185            0.000510217398           
       1.635716             0.00906822237            0.000487827771           
       1.638357              0.0101845504            0.000518345815           
       1.640997             0.00881631817            0.000496881278           
       1.643637             0.00901420135            0.000488917722           
       1.646278             0.00875890221            0.000497087201           
       1.648918             0.00905342787            0.000506754227           
       1.651559             0.00935751683            0.000519193109           
       1.654199              0.0084278491            0.000479220978           
       1.656839             0.00928972015            0.000503303943           
       1.659480             0.00910340636            0.000516940786           
       1.662120             0.00917220572            0.000488709379           
       1.664761             0.00860356822            0.000491655302           
       1.667401                0.00847573            0.000466412942           
       1.670041             0.00958275011            0.000503499624           
       1.672682              0.0088014012             0.00048055298           
       1.675322             0.00802803054            0.000456003454           
       1.677962             0.00849385889            0.000463872578           
       1.680603             0.00882069477            0.000474167689           
       1.683243             0.00985652562            0.000522946565           
       1.685884             0.00928806019            0.000511391168           
       1.688524             0.00849760239            0.000479691192           
       1.691164             0.00855967009            0.000481549146           
       1.693805             0.00966688971            0.000517368958           
       1.696445             0.00816472325            0.000478233131           
       1.699085             0.00888244278            0.000482095798           
       1.701726             0.00957285042            0.000482126274           
       1.704366             0.00809278871            0.000466995292           
       1.707007             0.00797967409            0.000453383339           
       1.709647             0.00916429997            0.000491359848           
       1.712287             0.00895085989            0.000489830975           
       1.714928             0.00806693852            0.000468765605           
       1.717568             0.00855926296            0.000454854276           
       1.720209             0.00829346475            0.000468972494           
       1.722849             0.00901143685            0.000486337638           
       1.725489             0.00968346483            0.000504569237           
       1.728130             0.00914584081            0.000521117862           
       1.730770             0.00853078681             0.00047799066           
       1.733410             0.00853169283            0.000470502094           
       1.736051             0.00840796604            0.000470329094           
       1.738691             0.00898318426            0.000476296463           
       1.741332             0.00818677948            0.000467989039           
       1.743972             0.00833166176            0.000487535714           
       1.746612             0.00880196839            0.000481190527           
       1.749253             0.00861263419            0.000485387061           
       1.751893             0.00816486304            0.000469132035           
       1.754533             0.00879715079            0.000486503408           
       1.757174             0.00907763801            0.000489570444           
       1.759814             0.00867309123            0.000471283519           
       1.762455             0.00845481103             0.00047385938           
       1.765095             0.00786921045            0.000437323971           
       1.767735              0.0085765667            0.000470641161           
       1.770376               0.008346822            0.000465518731           
       1.773016             0.00836573802            0.000462924223           
       1.775657             0.00810185909            0.000449009802           
       1.778297             0.00845681396            0.000454790118           
       1.780937             0.00808928482            0.000469483986           
       1.783578              0.0085738454            0.000471255327           
       1.786218             0.00749040349            0.000459683632           
       1.788858             0.00854724395            0.000466372322           
       1.791499             0.00883720573            0.000468891193           
       1.794139             0.00925956299             0.00047607125           
       1.796780             0.00922459803            0.000472880798           
       1.799420             0.00895575914            0.000463358843           
       1.802060             0.00905834413            0.000469769153           
       1.804701             0.00922373711            0.000454908844           
       1.807341             0.00931430631            0.000480351341           
       1.809981             0.00997735553            0.000498812146           
       1.812622              0.0099389792            0.000488888972           
       1.815262             0.00914907248            0.000479023347           
       1.817903             0.00922662809            0.000473921727           
       1.820543             0.00908485218            0.000477594315           
       1.823183             0.00950829664            0.000488329273           
       1.825824             0.00878282521            0.000448379079           
       1.828464             0.00902481351            0.000473850575           
       1.831105             0.00875491982            0.000453807797           
       1.833745             0.00925341908            0.000476512765           
       1.836385              0.0087878149            0.000477622088           
       1.839026             0.00789051771            0.000451151492           
       1.841666             0.00857245144            0.000468575364           
       1.844306             0.00923531536            0.000473083928           
       1.846947             0.00948012337            0.000483514659           
       1.849587             0.00827300638            0.000498768201           
       1.852228             0.00736850354            0.000425641722           
       1.854868             0.00880207117            0.000491423231           
       1.857508             0.00790164895            0.000461043145           
       1.860149             0.00858154838            0.000489198614           
       1.862789             0.00865517863             0.00047421118           
       1.865429             0.00893809788            0.000503029171           
       1.868070             0.00889508873            0.000495129105           
       1.870710             0.00817159433            0.000463625178           
       1.873351             0.00823761766            0.000471248939           
       1.875991             0.00835614616            0.000482373171           
       1.878631             0.00858361689            0.000479531247           
       1.881272             0.00821381683            0.000465944907           
       1.883912             0.00836289665            0.000489293897           
       1.886553             0.00699950163            0.000442631409           
       1.889193             0.00940569861             0.00051222586           
       1.891833             0.00892125316            0.000518085827           
       1.894474             0.00824836943            0.000493826052           
       1.897114             0.00832147627            0.000479978196           
       1.899754             0.00783761368            0.000467763767           
       1.902395             0.00839091963            0.000474530741           
       1.905035             0.00799503259            0.000490607722           
       1.907676             0.00828077673            0.000470589804           
       1.910316             0.00791108821            0.000472178185           
       1.912956             0.00854253326            0.000479865962           
       1.915597             0.00781331366            0.000461492546           
       1.918237             0.00793376905            0.000480269328           
       1.920878             0.00823807874            0.000487389924           
       1.923518               0.009463071            0.000522593323           
       1.926158             0.00868119207            0.000494043273           
       1.928799             0.00840050479            0.000480365269           
       1.931439             0.00912192032             0.00051369616           
       1.934079             0.00842537566            0.000514663813           
       1.936720             0.00846826804            0.000478063222           
       1.939360             0.00850833645             0.00051123199           
       1.942001             0.00875367786             0.00047527801           
       1.944641             0.00776918715            0.000456574547           
       1.947281             0.00897062057            0.000486086408           
       1.949922             0.00824459523            0.000481337873           
       1.952562             0.00811838797            0.000492611442           
       1.955202             0.00804862686            0.000489892486           
       1.957843             0.00801938921            0.000476320652           
       1.960483             0.00722479811            0.000472677689           
       1.963124             0.00870956665            0.000508332785           
       1.965764             0.00850740978            0.000473776066           
       1.968404             0.00805973041            0.000456784973           
       1.971045             0.00710179161            0.000437164756           
       1.973685             0.00793993581            0.000484857654           
       1.976326              0.0071969928            0.000455272137           
       1.978966              0.0076994579            0.000475029181           
       1.981606             0.00718270479            0.000468380231           
       1.984247             0.00749643555            0.000475354108           
       1.986887             0.00729283959            0.000463238263           
       1.989527             0.00696317912            0.000447772508           
       1.992168             0.00827355969            0.000506434665           
       1.994808             0.00785804106            0.000491437995           
       1.997449             0.00827615922            0.000493985551           
       2.000089             0.00864002668            0.000502726886           
       2.002729             0.00792262979            0.000481692125           
       2.005370             0.00779186794            0.000472560546           
       2.008010             0.00826418934            0.000507912504           
       2.010650             0.00715062634            0.000475980785           
       2.013291             0.00810544725            0.000486212137           
       2.015931             0.00829836044            0.000488486501           
       2.018572              0.0085090599            0.000529073974           
       2.021212             0.00827631537            0.000512413221           
       2.023852             0.00747358738            0.000460856135           
       2.026493             0.00753305322            0.000483357816           
       2.029133             0.00725788178            0.000464899713           
       2.031774             0.00738419163            0.000492129115           
       2.034414             0.00816373117             0.00047612976           
       2.037054              0.0084034721            0.000495314573           
       2.039695             0.00684269421            0.000443580867           
       2.042335             0.00692066995            0.000463596992           
       2.044975             0.00834188826            0.000502805158           
       2.047616             0.00786932009            0.000487142464           
       2.050256               0.007272948            0.000472751888           
       2.052897             0.00719355251            0.000478832151           
       2.055537             0.00764003801            0.000476918455           
       2.058177             0.00761675396            0.000466319554           
       2.060818             0.00776641192            0.000493281715           
       2.063458              0.0075469411            0.000506733254           
       2.066098             0.00717431492            0.000466068857           
       2.068739             0.00717352599            0.000473287401           
       2.071379             0.00804694613             0.00051434617           
       2.074020             0.00723464726            0.000477096405           
       2.076660             0.00782486987            0.000500187377           
       2.079300             0.00727035632            0.000493952091           
       2.081941             0.00785379729            0.000470066401           
       2.084581             0.00641327885            0.000448354653           
       2.087222             0.00707823506            0.000454258753           
       2.089862             0.00767093938            0.000515055248           
       2.092502             0.00734592241            0.000488580994           
       2.095143             0.00733735685            0.000504238713           
       2.097783              0.0075732051            0.000495971923           
       2.100423             0.00715601307            0.000464564481           
       2.103064             0.00658527265            0.000462425393           
       2.105704              0.0063267084            0.000451011053           
       2.108345             0.00712374824            0.000459785304           
       2.110985             0.00730915735            0.000497433624           
       2.113625             0.00744185033            0.000506308662           
       2.116266             0.00786541935             0.00052790302           
       2.118906             0.00686628624            0.000459667673           
       2.121546             0.00713042165            0.000459481908           
       2.124187             0.00776277467            0.000503246588           
       2.126827             0.00797225586            0.000515683414           
       2.129468             0.00755251715              0.0005032066           
       2.132108             0.00838695919              0.0005159191           
       2.134748             0.00783298918            0.000496655054           
       2.137389             0.00750657404            0.000507223897           
       2.140029             0.00758929918            0.000456593094           
       2.142670             0.00809474928            0.000503958492           
       2.145310             0.00704246468            0.000457520041           
       2.147950             0.00737487146            0.000481898291           
       2.150591             0.00654403064            0.000449354903           
       2.153231             0.00808086565            0.000513992197           
       2.155871             0.00777684635            0.000487120454           
       2.158512             0.00777609878            0.000508251222           
       2.161152             0.00776916477             0.00049210429           
       2.163793             0.00742013703            0.000478758375           
       2.166433             0.00824878564            0.000518359811           
       2.169073             0.00807381187            0.000501415206           
       2.171714             0.00684691489            0.000458296878           
       2.174354             0.00665209247            0.000472015731           
       2.176995             0.00724423877            0.000490503883           
       2.179635              0.0069139919            0.000506370564           
       2.182275             0.00706265252            0.000483206677           
       2.184916             0.00629216992            0.000440522361           
       2.187556             0.00706813075            0.000462216235           
       2.190196             0.00713955078            0.000485443894           
       2.192837             0.00678464761              0.0004706498           
       2.195477             0.00690827382            0.000452778294           
       2.198118             0.00661414315             0.00045438669           
       2.200758              0.0068023073            0.000472757685           
       2.203398             0.00775028238            0.000507853818           
       2.206039             0.00721238299             0.00046366159           
       2.208679             0.00749118848            0.000483535667           
       2.211319             0.00785699445            0.000498056167           
       2.213960             0.00729932723            0.000486487515           
       2.216600             0.00669720883            0.000482056936           
       2.219241             0.00729514295            0.000480843157           
       2.221881              0.0080912229            0.000507441098           
       2.224521              0.0071642856             0.00048334189           
       2.227162               0.007397489            0.000481311605           
       2.229802             0.00725883184            0.000491704552           
       2.232443             0.00774444743            0.000499874974           
       2.235083             0.00772834439            0.000514084616           
       2.237723             0.00710469238            0.000473014771           
       2.240364             0.00738053777            0.000493987056           
       2.243004             0.00683134518            0.000471459087           
       2.245644             0.00738739092            0.000495178598           
       2.248285             0.00759375159            0.000491989673           
       2.250925             0.00778240803            0.000501089125           
       2.253566             0.00718204796            0.000514625064           
       2.256206             0.00745253369            0.000513744301           
       2.258846             0.00789782201            0.000503101411           
       2.261487             0.00725314905            0.000506041336           
       2.264127             0.00748331475            0.000496420586           
       2.266767             0.00805697552            0.000528820325           
       2.269408             0.00820535427            0.000535852918           
       2.272048             0.00667621441            0.000480465207           
       2.274689             0.00739129352            0.000512202937           
       2.277329             0.00783975729            0.000496687465           
       2.279969             0.00745692913            0.000515625277           
       2.282610               0.007013618            0.000486155471           
       2.285250             0.00774784245            0.000489066724           
       2.287891             0.00799556326            0.000532669961           
       2.290531             0.00777673612            0.000532392035           
       2.293171             0.00803796619            0.000527236211           
       2.295812             0.00717051858            0.000495973179           
       2.298452             0.00772726612            0.000538415032           
       2.301092             0.00679932894            0.000469256633           
       2.303733             0.00736515372            0.000508098011           
       2.306373             0.00650797916            0.000485138628           
       2.309014             0.00673852542            0.000484026771           
       2.311654             0.00704000782            0.000516280501           
       2.314294             0.00747160381            0.000490014441           
       2.316935             0.00674669531            0.000467560773           
       2.319575             0.00718195131            0.000505451053           
       2.322215             0.00775968386            0.000547542665           
       2.324856             0.00696311902            0.000476870666           
       2.327496             0.00586062392            0.000465191921           
       2.330137             0.00679440082            0.000479307038           
       2.332777             0.00672339805            0.000491627546           
       2.335417             0.00675989574            0.000478245034           
       2.338058             0.00722054599            0.000509036377           
       2.340698             0.00678156415            0.000489443306           
       2.343339             0.00686611237            0.000503322478           
       2.345979             0.00715850365             0.00048621645           
       2.348619             0.00782198552            0.000526827919           
       2.351260             0.00714874057             0.00050071124           
       2.353900             0.00655370057            0.000477900992           
       2.356540             0.00641891081            0.000472289593           
       2.359181             0.00763322718            0.000507808686           
       2.361821             0.00756178239            0.000488228654           
       2.364462             0.00669779461            0.000480570182           
       2.367102             0.00751771403            0.000523218685           
       2.369742             0.00666638741            0.000518604429           
       2.372383             0.00715511563            0.000486504148           
       2.375023             0.00765148909            0.000528863323           
       2.377663              0.0066862428            0.000472700575           
       2.380304             0.00704475989            0.000493298493           
       2.382944             0.00753150182            0.000485811775           
       2.385585             0.00680104961            0.000492360375           
       2.388225             0.00759226222            0.000517767971           
       2.390865             0.00753989102             0.00051067885           
       2.393506             0.00775736489            0.000508218766           
       2.396146             0.00697545487            0.000521079533           
       2.398787              0.0067422362            0.000472119177           
       2.401427             0.00682934301            0.000458638152           
       2.404067             0.00789562088            0.000504143994           
       2.406708             0.00732437785            0.000479741677           
       2.409348             0.00774679361            0.000523327852           
       2.411988             0.00614297472            0.000456594053           
       2.414629             0.00714300209            0.000507692242           
       2.417269             0.00761965682            0.000530479956           
       2.419910             0.00794905358            0.000543082211           
       2.422550             0.00727657796            0.000497123894           
       2.425190             0.00710259103            0.000517717785           
       2.427831             0.00642037778            0.000489459501           
       2.430471             0.00715381259            0.000492218917           
       2.433112             0.00677839375            0.000466557931           
       2.435752             0.00676818141            0.000493391861           
       2.438392             0.00729160519            0.000494295694           
       2.441033             0.00669240627            0.000501868465           
       2.443673             0.00726857314            0.000523428167           
       2.446313             0.00624638629            0.000485657021           
       2.448954             0.00656047415            0.000473896586           
       2.451594             0.00714164685            0.000531640439           
       2.454235             0.00696148768            0.000492482594           
       2.456875             0.00751460733            0.000535393968           
       2.459515             0.00685673455            0.000524660861           
       2.462156             0.00808783416            0.000537987494           
       2.464796             0.00820493982            0.000534877324           
       2.467436             0.00742141063            0.000526053099           
       2.470077              0.0072237236            0.000491917294           
       2.472717             0.00750238082            0.000503487035           
       2.475358             0.00668278375            0.000480145003           
       2.477998             0.00834283813             0.00052743217           
       2.480638             0.00669003511            0.000480698929           
       2.483279             0.00698861313            0.000513495915           
       2.485919             0.00702964959            0.000496321507           
       2.488560             0.00800346917            0.000528104915           
       2.491200              0.0072865143            0.000518879796           
       2.493840             0.00694703501            0.000536100255           
       2.496481             0.00743961036            0.000545705725           
       2.499121             0.00695399323            0.000513170251           
       2.501761             0.00734019897             0.00053421325           
       2.504402             0.00736321155            0.000527232962           
       2.507042              0.0068102605              0.0005032938           
       2.509683             0.00749883633            0.000520053317           
       2.512323             0.00715762458             0.00053361427           
       2.514963             0.00678897631            0.000513270409           
       2.517604             0.00760862332            0.000563831843           
       2.520244             0.00734498618            0.000519354826           
       2.522884             0.00774360799            0.000540887806           
       2.525525             0.00764395276            0.000543495649           
       2.528165             0.00702705618            0.000512980459           
       2.530806             0.00685564034            0.000515516728           
       2.533446             0.00707989967              0.0005126987           
       2.536086             0.00722198536            0.000513183123           
       2.538727             0.00674169456            0.000475668917           
       2.541367             0.00679282436            0.000482172574           
       2.544008               0.006325964            0.000480549745           
       2.546648             0.00645729519            0.000493840228           
       2.549288             0.00751166134            0.000543487185           
       2.551929             0.00693144696            0.000513753472           
       2.554569             0.00720022984            0.000504463778           
       2.557209             0.00733210378             0.00051373762           
       2.559850             0.00639952436            0.000481496676           
       2.562490             0.00665839787            0.000507618405           
       2.565131             0.00699167319            0.000539332881           
       2.567771             0.00707108631            0.000522942666           
       2.570411             0.00703936667            0.000516122969           
       2.573052              0.0077551449            0.000548550396           
       2.575692             0.00685940341            0.000512775047           
       2.578332             0.00652548473            0.000502206484           
       2.580973             0.00782359409            0.000544662065           
       2.583613             0.00599293377            0.000465347783           
       2.586254             0.00695375264            0.000500568531           
       2.588894             0.00799713604            0.000557452293           
       2.591534             0.00708661228            0.000543223915           
       2.594175             0.00773958957            0.000556986699           
       2.596815             0.00665380562            0.000519486304           
       2.599456             0.00664124672            0.000492161319           
       2.602096             0.00655176567            0.000492554687           
       2.604736             0.00802725025            0.000558131524           
       2.607377             0.00705646577            0.000509504685           
       2.610017              0.0069901389            0.000498230354           
       2.612657             0.00747048747            0.000547848928           
       2.615298             0.00681557587            0.000510890001           
       2.617938              0.0063975457            0.000529496216           
       2.620579             0.00782512364            0.000562170975           
       2.623219             0.00660233114            0.000515646351           
       2.625859             0.00608387091             0.00048126565           
       2.628500             0.00698906785            0.000512446462           
       2.631140              0.0071158285            0.000525039908           
       2.633780             0.00720076073            0.000527704823           
       2.636421             0.00661217164            0.000518113438           
       2.639061              0.0068342976            0.000495869095           
       2.641702             0.00593408553            0.000472755478           
       2.644342             0.00698607685            0.000515137225           
       2.646982             0.00730282775            0.000518812176           
       2.649623             0.00654876272            0.000514859703           
       2.652263             0.00657060684            0.000510542467           
       2.654904             0.00791120212            0.000560772963           
       2.657544             0.00630180671            0.000471412881           
       2.660184             0.00790063722            0.000558605427           
       2.662825             0.00747763834            0.000556053759           
       2.665465              0.0070013365            0.000520385839           
       2.668105             0.00777892148            0.000578164064           
       2.670746             0.00739577518            0.000520780818           
       2.673386             0.00994777202            0.000622454801           
       2.676027             0.00905918635            0.000584470843           
       2.678667              0.0102293224            0.000606010646           
       2.681307             0.00973389586            0.000580841807           
       2.683948              0.0161505647            0.000768724308           
       2.686588              0.0125648217            0.000666795058           
       2.689229               0.011768053            0.000630567516           
       2.691869             0.00961146457            0.000602293535           
       2.694509             0.00942439435            0.000596731159           
       2.697150             0.00830727207            0.000551159667           
       2.699790             0.00830588521            0.000577763499           
       2.702430             0.00800413021            0.000542147539           
       2.705071             0.00676355081            0.000514966485           
       2.707711             0.00650520955            0.000490175167           
       2.710352             0.00662855291            0.000522818529           
       2.712992             0.00693087562            0.000544493175           
       2.715632             0.00678006302            0.000499655154           
       2.718273             0.00671865336            0.000515474914           
       2.720913             0.00738094794             0.00053874719           
       2.723553             0.00741676942            0.000543676433           
       2.726194             0.00674104662            0.000541813773           
       2.728834             0.00726995103            0.000562931859           
       2.731475             0.00673928336            0.000500215776           
       2.734115             0.00731891736             0.00053746172           
       2.736755               0.008226634            0.000574506789           
       2.739396             0.00689104444            0.000522760842           
       2.742036             0.00702928448            0.000552562827           
       2.744677             0.00767637712            0.000560272615           
       2.747317              0.0066565724            0.000518010594           
       2.749957             0.00869931226            0.000596338613           
       2.752598             0.00742411242            0.000556878631           
       2.755238             0.00669967498            0.000538561398           
       2.757878             0.00783973489            0.000577490978           
       2.760519             0.00765638014            0.000564646639           
       2.763159             0.00786811413            0.000566680787           
       2.765800             0.00749252957            0.000526990987           
       2.768440             0.00740797348            0.000527869216           
       2.771080             0.00836444901            0.000565594724           
       2.773721             0.00699118487               0.000530424           
       2.776361             0.00682060369            0.000531140906           
       2.779001             0.00760513579            0.000580823827           
       2.781642             0.00668212917            0.000540425686           
       2.784282             0.00725570592            0.000572402889           
       2.786923             0.00772025481            0.000595641479           
       2.789563             0.00714322604            0.000551817622           
       2.792203             0.00590214155            0.000479166439           
       2.794844             0.00704235688            0.000573646936           
       2.797484             0.00648128504            0.000519368925           
       2.800125             0.00685268427            0.000561545801           
       2.802765             0.00670211882            0.000545788698           
       2.805405             0.00723789619            0.000569104589           
       2.808046             0.00657558525             0.00055197763           
       2.810686             0.00606300221            0.000487033334           
       2.813326              0.0067587338            0.000534130856           
       2.815967             0.00699986297            0.000559030779           
       2.818607             0.00657382847            0.000516979461           
       2.821248             0.00708445434            0.000525540316           
       2.823888             0.00764022934            0.000566518361           
       2.826528             0.00790478441            0.000558063059           
       2.829169             0.00639470482            0.000525750028           
       2.831809             0.00590777786            0.000512210724           
       2.834449             0.00673019907            0.000550156845           
       2.837090             0.00721030126            0.000549990374           
       2.839730             0.00685129334             0.00053350569           
       2.842371             0.00682604239            0.000533290205           
       2.845011             0.00700875637            0.000544687779           
       2.847651             0.00674572405            0.000535025507           
       2.850292             0.00652109533            0.000531204715           
       2.852932             0.00627930181            0.000532623586           
       2.855573             0.00679787004            0.000537570593           
       2.858213              0.0071295721            0.000578123023           
       2.860853             0.00647469616            0.000512493601           
       2.863494             0.00702169071            0.000552574935           
       2.866134             0.00633018541            0.000545319781           
       2.868774             0.00725851261            0.000573891512           
       2.871415             0.00710997361            0.000576836326           
       2.874055             0.00650041232             0.00052721828           
       2.876696             0.00717398645            0.000568841505           
       2.879336             0.00625762515            0.000512042703           
       2.881976              0.0068208484            0.000551392448           
       2.884617             0.00608350298            0.000513089233           
       2.887257              0.0081350693            0.000596393002           
       2.889897             0.00771506421            0.000568840113           
       2.892538             0.00799743646            0.000634467921           
       2.895178             0.00818510122            0.000579885732           
       2.897819              0.0066982985            0.000535122858           
       2.900459             0.00632134537            0.000509734886           
       2.903099             0.00708472663              0.0005341125           
       2.905740             0.00588169914             0.00049924746           
       2.908380             0.00788856625            0.000584750051           
       2.911021             0.00689016561            0.000555379956           
       2.913661             0.00684472616            0.000553379771           
       2.916301             0.00687008635             0.00055493268           
       2.918942             0.00668430551            0.000523580531           
       2.921582             0.00701006208            0.000561006069           
       2.924222              0.0077598158            0.000571833908           
       2.926863              0.0063150793            0.000537329895           
       2.929503             0.00683082862            0.000565461873           
       2.932144             0.00849704012            0.000605402253           
       2.934784             0.00654972043            0.000522806966           
       2.937424             0.00724841933            0.000555632604           
       2.940065             0.00698361202            0.000520249272           
       2.942705             0.00704064458            0.000521713935           
       2.945346             0.00749492453            0.000571253432           
       2.947986             0.00566360176            0.000506342457           
       2.950626             0.00720176961            0.000567760873           
       2.953267             0.00802404811            0.000589614651           
       2.955907             0.00756652348            0.000593950524           
       2.958547             0.00664155918            0.000525330599           
       2.961188             0.00695075098            0.000560678744           
       2.963828             0.00675190497            0.000540545585           
       2.966469             0.00703944576              0.0005414469           
       2.969109             0.00660745036            0.000532342481           
       2.971749             0.00763273789            0.000568586548           
       2.974390             0.00766340736            0.000559861758           
       2.977030             0.00594298448             0.00050404695           
       2.979670             0.00820243808            0.000575991084           
       2.982311             0.00889927646            0.000621827397           
       2.984951             0.00865566159            0.000583261526           
       2.987592             0.00928750477            0.000616276083           
       2.990232              0.0080839014            0.000597950363           
       2.992872             0.00794540516            0.000558389831           
       2.995513             0.00927703609            0.000590294986           
       2.998153              0.0117249881             0.00067477154           
       3.000794              0.0121092972             0.00066421046           
       3.003434             0.00916203193            0.000578625246           
       3.006074              0.0191460886            0.000824729274           
       3.008715              0.0680682877             0.00150110891           
       3.011355               0.253918295             0.00279582077           
       3.013995               0.210588057              0.0025530493           
       3.016636               0.121343111             0.00189774422           
       3.019276               0.142283845             0.00202000498           
       3.021917               0.517515992             0.00370431339           
       3.024557                1.15733738              0.0054463532           
       3.027197                1.07089104             0.00510774989           
       3.029838               0.725178629             0.00426281493           
       3.032478               0.275723861             0.00263119184           
       3.035118              0.0725753932             0.00136803693           
       3.037759              0.0678664963             0.00132120479           
       3.040399              0.0884629446             0.00155597594           
       3.043040               0.286509943             0.00283454252           
       3.045680               0.363844693             0.00300535173           
       3.048320               0.144405466             0.00193453355           
       3.050961               0.155853149             0.00204516322           
       3.053601                0.10330623             0.00160366777           
       3.056242              0.0995525355              0.0016737761           
       3.058882               0.103623844             0.00183181062           
       3.061522              0.0766359859              0.0015455707           
       3.064163              0.0985125587             0.00173027355           
       3.066803               0.162153176             0.00233706748           
       3.069443               0.100161307             0.00192174849           
       3.072084              0.0416002926             0.00120596493           
       3.074724               0.043981404             0.00138479476           
       3.077365               0.035835994             0.00129396991           
       3.080005             0.00910543833            0.000655947161           
       3.082645               0.016191634            0.000918902611           
       3.085286              0.0144546012            0.000875064752           
       3.087926              0.0114118386            0.000771533524           
       3.090566              0.0104055908            0.000721856546           
       3.093207              0.0122907505            0.000816379337           
       3.095847             0.00876237236             0.00066069166           
       3.098488             0.00947778933            0.000761914106           
       3.101128              0.0108568007            0.000820705724           
       3.103768              0.0085979229            0.000716613272           
       3.106409               0.010063598            0.000825118112           
       3.109049             0.00901407023            0.000749398869           
       3.111690             0.00860012241            0.000719423587           
       3.114330             0.00852389341            0.000731464638           
       3.116970             0.00866154089            0.000743007697           
       3.119611             0.00985888863            0.000843778525           
       3.122251              0.0154254108             0.00110402391           
       3.124891              0.0300967574             0.00155649084           
       3.127532              0.0284017268             0.00147920098           
       3.130172              0.0204701361             0.00127748386           
       3.132813              0.0113749261            0.000937496937           
       3.135453             0.00734261159            0.000747013861           
       3.138093             0.00622414709            0.000745223263           
       3.140734             0.00591376279            0.000670163927           
       3.143374             0.00739365421             0.00079245936           
       3.146014              0.0081617127            0.000896335327           
       3.148655             0.00739384024            0.000793062747           
       3.151295             0.00511409172            0.000702868268           
       3.153936             0.00783346051            0.000840291708           
       3.156576             0.00595799421            0.000722862097           
       3.159216             0.00716532664            0.000796691623           
       3.161857             0.00673839501            0.000769448217           
       3.164497             0.00647660982            0.000792608388           
       3.167138             0.00763375921            0.000889112964           
       3.169778             0.00639566894            0.000800403346           
       3.172418             0.00646130707            0.000796317024           
       3.175059             0.00608527117            0.000685117808           
       3.177699             0.00553010088             0.00069161271           
       3.180339             0.00665512893            0.000812896814           
       3.182980             0.00594366198            0.000794258907           
       3.185620             0.00593431142            0.000808248565           
       3.188261               0.005814153            0.000814300703           
       3.190901             0.00666197343            0.000801666675           
       3.193541             0.00713156083            0.000871540808           
       3.196182             0.00659929282            0.000873718707           
       3.198822             0.00565217204            0.000808865219           
       3.201463             0.00535703906            0.000773897411           
       3.204103              0.0055040656            0.000779672861           
       3.206743             0.00552951879            0.000781400206           
       3.209384             0.00501307407             0.00080384509           
       3.212024             0.00537935919            0.000776332219           
       3.214664             0.00561300418            0.000901768175           
       3.217305             0.00496340428            0.000806066226           
       3.219945             0.00399151569            0.000744002025           
       3.222586             0.00640330047            0.000897562185           
       3.225226             0.00541718892             0.00091583224           
       3.227866             0.00697622262            0.000949905766           
       3.230507             0.00581561551            0.000899048796           
       3.233147             0.00324670799            0.000677173288           
       3.235787             0.00529561621            0.000885057078           
       3.238428             0.00618783209             0.00103241585           
       3.241068             0.00526686548            0.000890627719           
       3.243709             0.00691906312             0.00105465607           
       3.246349              0.0065607296            0.000936190813           
       3.248989             0.00595675304             0.00105332188           
       3.251630             0.00605241303             0.00102243232           
       3.254270             0.00634086751            0.000935298858           
       3.256911             0.00525175269            0.000928746354           
       3.259551              0.0047356042            0.000949473177           
       3.262191             0.00474422122              0.0009707214           
       3.264832             0.00562280245             0.00110418686           
       3.267472             0.00551331226             0.00102571114           
       3.270112             0.00625228403             0.00120712012           
       3.272753                 0.0068175             0.00115376802           
       3.275393             0.00530811385             0.00103878223           
       3.278034             0.00526381149             0.00103502062           
       3.280674             0.00620709173             0.00121963038           
       3.283314             0.00536242176             0.00101385127           
       3.285955             0.00572456784             0.00108081759           
       3.288595             0.00456082505             0.00107329077           
       3.291235             0.00746072613             0.00141115831           
       3.293876               0.006027371             0.00128660582           
       3.296516             0.00456371303             0.00107478623           
       3.299157             0.00467937995             0.00107464628           
       3.301797             0.00572730354             0.00135616378           
       3.304437             0.00603023571             0.00120562728           
       3.307078              0.0058385223             0.00130679114           
       3.309718              0.0040258336             0.00112005131           
       3.312359             0.00623246884             0.00139393724           
       3.314999             0.00422557674             0.00113007686           
       3.317639             0.00443453843             0.00110718036           
       3.320280             0.00593706531             0.00136206441           
       3.322920              0.0058159372             0.00137078818           
       3.325560             0.00450343847              0.0012070564           
       3.328201             0.00548115179             0.00119931483           
       3.330841             0.00426646221             0.00128778727           
       3.333482             0.00412528099             0.00119694514           
       3.336122               0.005554679             0.00138955759           
       3.338762             0.00504397759             0.00152958585           
       3.341403             0.00509667053             0.00146919499           
       3.344043             0.00424064182             0.00128665021           
       3.346683             0.00526442276             0.00146356207           
       3.349324              0.0108184962             0.00235891686           
       3.351964             0.00801545747             0.00214713031           
       3.354605             0.00680412354             0.00226242688           
       3.357245              0.0066727959              0.0020211574           
       3.359885             0.00354619464             0.00117926952           
       3.362526              0.0073057981             0.00211672214           
       3.365166             0.00981324157              0.0023138601           
       3.367807             0.00353321449             0.00177687492           
       3.370447             0.00367981003             0.00150420899           
       3.373087              0.0042118874              0.0017209217           
       3.375728             0.00352795989             0.00177755802           
       3.378368             0.00588755096             0.00340799699           
       3.381008             0.00546968938             0.00244901436           
       3.383649             0.00706653979               0.002233047           
       3.386289             0.00492836913              0.0022071234           
       3.388930             0.00499704368             0.00351540113           
       3.391570             0.00370201386             0.00214042406           
       3.394210             0.00195519562             0.00196854741           
       3.396851             0.00490872508              0.0034890639           
       3.399491             0.00246376958             0.00247255923           
       3.402131             0.00483203451             0.00489900814           
       3.404772           -2.65480283e-05                         0           
       3.407412                       nan                       nan           
       3.410053           -2.66134163e-05                         0           
       3.412693                       nan                       nan           
       3.415333            -2.6664274e-05                         0           
