################################################################################
# EDF_DataBlockID                     0.Image.Psd
# EDF_BinarySize                      2105344
# EDF_HeaderSize                      2560
# ByteOrder                           LowByteFirst
# DataType                            FloatValue
# Dim_1                               512
# Dim_2                               1028
# Image                               0
# HeaderID                            EH:000000:000000:000000
# Size                                2105344
# Center_1                            304.9000
# Center_2                            588.7000
# Comment                             Xenocs_Cell_Window - 20251028_20perc_iodine_1.23mg
# DDummy                              0.6
# Date                                2025-10-31T11:59:34
# Delta                               21.910000
# Dummy                               -1.5
# ExposureTime                        360
# Gamma                               15.360000
# Intensity1                          8.51738e-10
# PSize_1                             7.5e-05
# PSize_2                             7.5e-05
# Pressure                            0.0326958
# SampleDistance                      0.115750
# SampleEnvKind                       large
# SampleEnvPN                         ElectroChemical cell
# SampleEnvSN                         1141
# Thickness                           0
# Wavelength                          1.541891e-10
# Wavelength                          1.54189e-10
# aux                                 0
# aux_dial                            0.002375
# beamx                               588.434
# beamx_dial                          588.434
# beamz                               657.808
# beamz_dial                          657.808
# det0x                               0
# det0x_dial                          6.36945
# det0xvd                             0
# det0xvd_dial                        0
# det0y                               450.002
# det0y_dial                          481.635
# det0z                               0
# det0z_dial                          1.23302
# det0zvd                             0
# det0zvd_dial                        0
# mag                                 1.818
# mag_dial                            1.818
# om                                  0.2499
# om_dial                             -0.610199
# phi                                 -0.0120535
# phi_dial                            0
# ry                                  0.599993
# ry_dial                             0.599993
# s1bot                               0.8
# s1bot_dial                          -1.66094
# s1hl                                0.8
# s1hl_dial                           -0.608437
# s1hr                                0.8
# s1hr_dial                           0.970938
# s1top                               0.8
# s1top_dial                          -0.461562
# s2bot                               0.45
# s2bot_dial                          1.36109
# s2hl                                0.45
# s2hl_dial                           -0.83375
# s2hr                                0.45
# s2hr_dial                           -0.118594
# s2top                               0.45
# s2top_dial                          1.44734
# w2theta                             32
# w2theta_dial                        32
# waxsch                              19.2605
# waxsch_dial                         -32.7355
# waxsh                               137.085
# waxsh_dial                          -43.5338
# waxsth                              26.0607
# waxsth_dial                         -19.4086
# waxsz                               67.0407
# waxsz_dial                          -23.7954
# wind                                65.9854
# wind_dial                           66.0041
# wpsi                                124
# wpsi_dial                           124
# wstod                               115
# wstod_dial                          115
# x                                   0
# x_dial                              1.00969
# z                                   0
# z_dial                              13.3172
# CountCutoff                         6807993
# DetectorModel                       Dectris EIGER2 Si 500K, S/N E-01-0554
# ThresholdSetting                    4023.88989258
# Saturation                          0
# FlatField                           Corrected
# BackgroundReductionExtra            0.02
# BackgroundCorrectionConstant        0.0026712
# Detector                            0
# Monitor                             0
# Pil_Roi0                            0
# SumForIntensity1                    3.06626e+08
# TransmittedFlux                     851738
# det                                 0
# mon                                 0
# pilai0                              3.06626e+08
# pilai1                              780877
# pilct0                              5.30959e+08
# pilct1                              780877
# pilroi0                             0
# pilroi1                             0
# sec                                 1
# title                               20251028_20perc_iodine_1.23mg_1_00633.edf
# usaxs0                              0
# Operation                           Azimuthal average I(q)
# Error_model                         ErrorModel.poisson
# Geometrical_correction              True
# Transmission_correction             True
# Thickness_correction                False
# Binning mode                        Uniform
# Binning factor                      1.0
# Psi                                 0.0
# Omega                               0.2499
# MaskInvalidPixels                   True
# DetectorEdge                        3
# MaskFiles                           ['WAXS_corrected.edf']
################################################################################
    q(A⁻¹)                Intensity(a.u.)            Sigma_I(a.u.)            
       0.693100             0.00413485557             0.00429527752           
       0.695741             0.00561782828             0.00408557329           
       0.698381           -2.38176923e-05                         0           
       0.701021             0.00884997425             0.00887983346           
       0.703662             0.00852611222             0.00503093612           
       0.706302             0.00699117262              0.0035269999           
       0.708942             0.00576272567             0.00413300055           
       0.711583             0.00892517806             0.00445395401           
       0.714223              0.0028915405             0.00292685928           
       0.716864             0.00879037538              0.0033389637           
       0.719504               0.010350242             0.00390976897           
       0.722144              0.0101272542             0.00358152937           
       0.724785             0.00639119959             0.00226957874           
       0.727425              0.0044673809             0.00256696888           
       0.730065             0.00726026607                0.00231479           
       0.732706             0.00618503377             0.00179413497           
       0.735346             0.00792211785             0.00264684698           
       0.737987             0.00436231609             0.00138791804           
       0.740627             0.00684555515             0.00259415592           
       0.743267              0.0087739114             0.00196711849           
       0.745908             0.00677046192             0.00187478631           
       0.748548             0.00747687519             0.00181600534           
       0.751189             0.00643019715             0.00226926769           
       0.753829             0.00474506913             0.00179192555           
       0.756469             0.00612713795             0.00164195355           
       0.759110             0.00781237289             0.00195386276           
       0.761750             0.00842847444             0.00179447629           
       0.764390             0.00830586649              0.0018644948           
       0.767031             0.00783205671             0.00156785457           
       0.769671              0.0122721909             0.00244818118           
       0.772312             0.00650547806             0.00135698005           
       0.774952             0.00566828103             0.00171048495           
       0.777592             0.00681595745             0.00136619973           
       0.780233             0.00635258279             0.00159129134           
       0.782873             0.00800431906             0.00170835986           
       0.785513              0.0074959322             0.00176739557           
       0.788154             0.00900082769              0.0016201157           
       0.790794             0.00705234444             0.00171447281           
       0.793435             0.00539991056             0.00134774381           
       0.796075             0.00622849116             0.00139434952           
       0.798715             0.00518927919             0.00150399533           
       0.801356             0.00671592533             0.00147258988           
       0.803996             0.00808068295              0.0016468181           
       0.806637             0.00720979459             0.00123792766           
       0.809277             0.00546383578             0.00116644421           
       0.811917             0.00719249369              0.0012511015           
       0.814558             0.00583574385             0.00117125314           
       0.817198             0.00720683163             0.00123657336           
       0.819838             0.00828979551             0.00134224508           
       0.822479              0.0054102727             0.00127332301           
       0.825119             0.00582844615             0.00112486169           
       0.827760             0.00669860545             0.00122154021           
       0.830400             0.00902592741             0.00133455566           
       0.833040             0.00582481053             0.00112322131           
       0.835681             0.00783657179             0.00148109386           
       0.838321             0.00848237201             0.00129333758           
       0.840961             0.00676851791             0.00125876895           
       0.843602             0.00884367599             0.00131948459           
       0.846242             0.00648091703              0.0011293833           
       0.848883             0.00575590882             0.00108919806           
       0.851523             0.00781877516             0.00125369167           
       0.854163             0.00591514535             0.00115964019           
       0.856804             0.00626853102             0.00107336981           
       0.859444               0.006862661             0.00110040664           
       0.862085             0.00900971827             0.00131411862           
       0.864725             0.00741688392             0.00122020768           
       0.867365             0.00896802869               0.001244192           
       0.870006              0.0078053805             0.00110609858           
       0.872646              0.0092990845             0.00126602606           
       0.875286             0.00669119604             0.00103318343           
       0.877927             0.00607085462            0.000949635196           
       0.880567             0.00751089124             0.00109432393           
       0.883208             0.00703994146             0.00104947922           
       0.885848              0.0077169078             0.00114086488           
       0.888488             0.00576225826            0.000924662352           
       0.891129             0.00656194174             0.00101317668           
       0.893769             0.00772975462             0.00105238729           
       0.896410             0.00782865149            0.000987450615           
       0.899050             0.00874262033             0.00114756699           
       0.901690             0.00623262995             0.00105544755           
       0.904331             0.00645857476            0.000952522055           
       0.906971             0.00780210808             0.00111374833           
       0.909611             0.00738079518            0.000986113208           
       0.912252             0.00812853615             0.00106890113           
       0.914892             0.00721339669             0.00110036489           
       0.917533             0.00700852759              0.0010260527           
       0.920173             0.00943017496             0.00110426195           
       0.922813             0.00995677283             0.00119071372           
       0.925454             0.00575381637            0.000815072959           
       0.928094              0.0066642663            0.000936476414           
       0.930734             0.00700882049             0.00103395536           
       0.933375             0.00775572866             0.00107696133           
       0.936015             0.00875325416             0.00103911044           
       0.938656             0.00740322388             0.00102515953           
       0.941296             0.00712352355            0.000911357179           
       0.943936             0.00751186765            0.000917764804           
       0.946577             0.00938453732             0.00101902102           
       0.949217             0.00624878405             0.00076466117           
       0.951858             0.00797936217            0.000904522254           
       0.954498             0.00769840486             0.00102837122           
       0.957138             0.00591189284            0.000853747212           
       0.959779             0.00707613852            0.000920768727           
       0.962419             0.00719184087            0.000922091457           
       0.965059              0.0084955012             0.00105403778           
       0.967700              0.0101407653             0.00117945439           
       0.970340             0.00685639151            0.000858199565           
       0.972981             0.00655306934            0.000764411098           
       0.975621             0.00666931451            0.000820382694           
       0.978261             0.00800026317            0.000853752557           
       0.980902             0.00855905006              0.0010565432           
       0.983542              0.0070600033            0.000849762295           
       0.986182             0.00869035374            0.000925622799           
       0.988823             0.00547629314            0.000713474842           
       0.991463             0.00943627065            0.000999211596           
       0.994104             0.00804422867            0.000899981545           
       0.996744              0.0080782997            0.000919915948           
       0.999384             0.00821522774            0.000829655822           
       1.002025             0.00721350362            0.000867714575           
       1.004665             0.00803744847            0.000837047816           
       1.007306             0.00655747222            0.000752195496           
       1.009946             0.00817883219            0.000856739413           
       1.012586             0.00841848127            0.000846550108           
       1.015227             0.00785345905            0.000878409744           
       1.017867              0.0092709683            0.000917241803           
       1.020507             0.00819179563            0.000835163308           
       1.023148             0.00863251693            0.000925087943           
       1.025788             0.00774325483            0.000803356044           
       1.028429             0.00676617204            0.000786755921           
       1.031069             0.00900115808            0.000853935484           
       1.033709             0.00820445741            0.000866632695           
       1.036350             0.00731129563            0.000734767192           
       1.038990             0.00840910176            0.000802482754           
       1.041630             0.00950420298            0.000889830467           
       1.044271             0.00750528993            0.000743661305           
       1.046911             0.00783985599            0.000799479575           
       1.049552             0.00674490488            0.000779093807           
       1.052192             0.00819244284            0.000784042525           
       1.054832             0.00969946912              0.0008608743           
       1.057473             0.00772317693            0.000757264617           
       1.060113              0.0088404171            0.000790154052           
       1.062754             0.00794193565            0.000764639656           
       1.065394             0.00779464037            0.000800889985           
       1.068034              0.0076984845            0.000724191442           
       1.070675             0.00786464061            0.000763529238           
       1.073315             0.00792743059            0.000777558911           
       1.075955             0.00701117759            0.000690336532           
       1.078596             0.00821730637            0.000794295892           
       1.081236             0.00738671315            0.000721126701           
       1.083877             0.00739420749            0.000715020183           
       1.086517             0.00922291792            0.000856288249           
       1.089157             0.00916604986            0.000885751546           
       1.091798              0.0089886294            0.000769000672           
       1.094438              0.0101407542            0.000814162564           
       1.097078             0.00932435545            0.000748775344           
       1.099719             0.00907611443            0.000799061162           
       1.102359             0.00845323097            0.000722195433           
       1.105000             0.00956112634            0.000858846198           
       1.107640             0.00725480536            0.000715328467           
       1.110280              0.0100858985            0.000769567103           
       1.112921              0.0102333324             0.00083270169           
       1.115561             0.00964401917            0.000768287563           
       1.118202             0.00889958023            0.000738734806           
       1.120842             0.00934202692            0.000795480886           
       1.123482             0.00757024594            0.000712956771           
       1.126123             0.00931441194            0.000758543341           
       1.128763             0.00844446018            0.000727203776           
       1.131403              0.0085375996            0.000704576889           
       1.134044             0.00825370277            0.000712855193           
       1.136684             0.00930810922            0.000807115117           
       1.139325              0.0083587169            0.000704576174           
       1.141965              0.0092015438             0.00074413223           
       1.144605             0.00962470033            0.000725663734           
       1.147246             0.00902577091            0.000719175867           
       1.149886              0.0100127994            0.000754790189           
       1.152527             0.00900892758            0.000726365263           
       1.155167             0.00784588794            0.000644747455           
       1.157807              0.0098620153            0.000775029763           
       1.160448             0.00948830213            0.000742358065           
       1.163088             0.00998383625            0.000726355589           
       1.165728             0.00847005458            0.000686902695           
       1.168369              0.0100281092            0.000754319771           
       1.171009              0.0102469253            0.000739990507           
       1.173650             0.00871111413            0.000700187721           
       1.176290             0.00880408278            0.000687882034           
       1.178930              0.0101070854             0.00072235602           
       1.181571             0.00960432695            0.000718124483           
       1.184211             0.00950427049            0.000716906901           
       1.186851              0.0107011342            0.000743733741           
       1.189492             0.00913687113            0.000682605421           
       1.192132             0.00956445282            0.000690558878           
       1.194773               0.010416575            0.000723813258           
       1.197413             0.00983993259            0.000674046424           
       1.200053             0.00922415543            0.000669196954           
       1.202694             0.00995027404            0.000660940789           
       1.205334              0.0097783363            0.000706106432           
       1.207975              0.0103479666            0.000693352292           
       1.210615               0.010226686            0.000760389858           
       1.213255             0.00983417151            0.000667716595           
       1.215896              0.0090677277            0.000652786334           
       1.218536             0.00961525622            0.000646354637           
       1.221176             0.00986306705            0.000711717983           
       1.223817              0.0105811205            0.000691994184           
       1.226457              0.0103557276            0.000698376109           
       1.229098             0.00950662462            0.000669100077           
       1.231738              0.0106576691            0.000711936438           
       1.234378               0.010402438            0.000660912442           
       1.237019               0.011194071            0.000706503627           
       1.239659             0.00994227327            0.000660029729           
       1.242299              0.0101463617            0.000658298248           
       1.244940              0.0101394597            0.000640018522           
       1.247580             0.00978114399            0.000647832033           
       1.250221              0.0108379228            0.000677723527           
       1.252861              0.0094706703            0.000603127369           
       1.255501             0.00991453436            0.000670051558           
       1.258142             0.00905475808            0.000601714114           
       1.260782              0.0110557351            0.000679269801           
       1.263423              0.0105531616              0.0006376936           
       1.266063              0.0103485594            0.000647250561           
       1.268703              0.0102179627            0.000637816583           
       1.271344              0.0104592018            0.000667171615           
       1.273984              0.0103576793            0.000641221313           
       1.276624              0.0114839098            0.000662498814           
       1.279265              0.0113661709            0.000670039213           
       1.281905                0.01110571            0.000665257062           
       1.284546             0.00979577787             0.00060391859           
       1.287186              0.0100932567            0.000601437599           
       1.289826                0.01031346            0.000640743164           
       1.292467              0.0113481592            0.000657312491           
       1.295107              0.0106265623            0.000629752491           
       1.297747             0.00943726521            0.000567898632           
       1.300388              0.0111114009            0.000671751963           
       1.303028              0.0112908603            0.000646452751           
       1.305669              0.0103882948            0.000634841282           
       1.308309             0.00958302848            0.000603735119           
       1.310949              0.0104544295             0.00062995358           
       1.313590               0.010429313            0.000609528427           
       1.316230               0.011132305            0.000672015975           
       1.318871              0.0112290317            0.000661010259           
       1.321511              0.0101295986            0.000616180369           
       1.324151              0.0101526875            0.000598593929           
       1.326792              0.0113537786            0.000636925627           
       1.329432              0.0107610448            0.000615701394           
       1.332072              0.0118447164            0.000636332672           
       1.334713              0.0106941574            0.000624046043           
       1.337353              0.0114321062            0.000618776928           
       1.339994              0.0104894767            0.000621998183           
       1.342634              0.0111145172            0.000613970735           
       1.345274              0.0110593837            0.000633824102           
       1.347915              0.0104019484            0.000597721586           
       1.350555              0.0108777889            0.000621945359           
       1.353195              0.0111875559            0.000633836642           
       1.355836               0.011345248             0.00062833517           
       1.358476              0.0118029614            0.000622396293           
       1.361117              0.0116154054            0.000618278867           
       1.363757              0.0110595322            0.000621724741           
       1.366397              0.0108068527             0.00059598339           
       1.369038              0.0119286004            0.000632386028           
       1.371678               0.010130879            0.000577650752           
       1.374319              0.0126475815            0.000639866953           
       1.376959              0.0117291611            0.000609999956           
       1.379599               0.011315147            0.000642093858           
       1.382240              0.0111304796            0.000598527138           
       1.384880              0.0126748828            0.000676531493           
       1.387520               0.011569163            0.000613857489           
       1.390161              0.0106591621            0.000559618281           
       1.392801              0.0110166222            0.000592764118           
       1.395442              0.0103849285             0.00058337896           
       1.398082              0.0119249398            0.000585416122           
       1.400722              0.0106844317            0.000580439294           
       1.403363               0.010251254            0.000598469229           
       1.406003                 0.0109727            0.000579460188           
       1.408644              0.0121757302            0.000639433446           
       1.411284              0.0118332477            0.000596910345           
       1.413924              0.0108748384            0.000570105852           
       1.416565              0.0111928682            0.000576110073           
       1.419205              0.0120070933            0.000622449989           
       1.421845              0.0111990605            0.000600787975           
       1.424486              0.0107093312            0.000564727408           
       1.427126              0.0109021086            0.000591899059           
       1.429767              0.0108846135            0.000556458041           
       1.432407              0.0107898907            0.000579806883           
       1.435047              0.0113960038            0.000559620335           
       1.437688               0.011302481            0.000565652207           
       1.440328              0.0104984266            0.000556397895           
       1.442968              0.0112574801            0.000589070355           
       1.445609              0.0102793577            0.000545041188           
       1.448249              0.0110190633            0.000578599183           
       1.450890              0.0107336387            0.000567329086           
       1.453530               0.011337779            0.000610015321           
       1.456170              0.0116664084            0.000600553046           
       1.458811              0.0117322591            0.000575880013           
       1.461451              0.0109590275            0.000558039527           
       1.464092              0.0103585801            0.000546083639           
       1.466732              0.0112930942            0.000565284915           
       1.469372              0.0113033707            0.000552306636           
       1.472013              0.0109890221            0.000587332451           
       1.474653              0.0105912769            0.000567710438           
       1.477293                0.01027795            0.000571037092           
       1.479934              0.0111159728            0.000566667457           
       1.482574              0.0115355879            0.000558412633           
       1.485215               0.010090399             0.00053199061           
       1.487855              0.0105382988            0.000550841503           
       1.490495              0.0108527352            0.000556940219           
       1.493136              0.0101297054            0.000530693038           
       1.495776              0.0119798684            0.000574498636           
       1.498416              0.0109287801            0.000566669991           
       1.501057              0.0103530523            0.000539386813           
       1.503697              0.0114959564            0.000555681967           
       1.506338               0.011744031            0.000571908811           
       1.508978              0.0107188055            0.000541002491           
       1.511618              0.0109498377            0.000582341216           
       1.514259              0.0109087473            0.000561167274           
       1.516899               0.010595001            0.000538476207           
       1.519540              0.0100659686             0.00053332416           
       1.522180              0.0106018511             0.00055214446           
       1.524820              0.0102819313            0.000540699242           
       1.527461              0.0105974803            0.000551648327           
       1.530101              0.0108675767            0.000553047048           
       1.532741              0.0108729151            0.000549972538           
       1.535382              0.0105693694            0.000550970659           
       1.538022               0.010630805             0.00052054984           
       1.540663              0.0105525981             0.00055782027           
       1.543303              0.0105152359            0.000517027498           
       1.545943              0.0111429106            0.000563331479           
       1.548584              0.0107728668            0.000563841522           
       1.551224              0.0110245333             0.00052737899           
       1.553864              0.0100522557             0.00053213373           
       1.556505             0.00943122675            0.000497922651           
       1.559145             0.00991107746            0.000516685137           
       1.561786              0.0101316922            0.000522806374           
       1.564426              0.0102313531            0.000509030169           
       1.567066              0.0101814826            0.000532064406           
       1.569707              0.0103682454            0.000527277351           
       1.572347              0.0106170866            0.000551228308           
       1.574988             0.00949915941            0.000496285829           
       1.577628             0.00900745551            0.000503932046           
       1.580268             0.00996347622            0.000513514133           
       1.582909             0.00948561071            0.000531091287           
       1.585549                0.00979145            0.000523919987           
       1.588189             0.00948977021            0.000504528496           
       1.590830             0.00931937809             0.00049935096           
       1.593470             0.00988364835            0.000534608202           
       1.596111              0.0101904635             0.00052998304           
       1.598751             0.00921733708            0.000488400943           
       1.601391             0.00878534795            0.000487338593           
       1.604032             0.00936973455            0.000513807414           
       1.606672             0.00826783485            0.000468940629           
       1.609312              0.0101898694            0.000543448155           
       1.611953             0.00926393733            0.000507060886           
       1.614593             0.00833188095            0.000471702067           
       1.617234             0.00915691367            0.000512493626           
       1.619874             0.00867422634             0.00049683286           
       1.622514             0.00881687544            0.000494068418           
       1.625155             0.00887909771            0.000498737705           
       1.627795             0.00837749927             0.00047257578           
       1.630436             0.00916699457            0.000491760979           
       1.633076             0.00911741565            0.000496861529           
       1.635716             0.00947393772            0.000498602423           
       1.638357             0.00918285281            0.000492176825           
       1.640997             0.00839345211            0.000484800431           
       1.643637             0.00975755312            0.000508658489           
       1.646278             0.00960452933            0.000520510468           
       1.648918             0.00922392207            0.000511484353           
       1.651559             0.00855145252              0.0004963091           
       1.654199             0.00830968949             0.00047583187           
       1.656839             0.00867164669            0.000486254336           
       1.659480             0.00878158234            0.000507702037           
       1.662120             0.00924231424            0.000490555138           
       1.664761             0.00862768292            0.000492325346           
       1.667401             0.00852303616             0.00046769517           
       1.670041             0.00880530824            0.000482625243           
       1.672682             0.00881643451            0.000480945141           
       1.675322             0.00920514992            0.000488273034           
       1.677962             0.00891654031            0.000475256484           
       1.680603             0.00866898225            0.000470054591           
       1.683243              0.0090203908            0.000500255356           
       1.685884             0.00967421526            0.000521893957           
       1.688524             0.00866300832            0.000484319092           
       1.691164             0.00804154511            0.000466729807           
       1.693805             0.00825581263            0.000478102024           
       1.696445             0.00843154878            0.000485966449           
       1.699085             0.00929573666            0.000493165544           
       1.701726             0.00844387325            0.000452787782           
       1.704366             0.00852104981            0.000479174432           
       1.707007             0.00886128854            0.000477754846           
       1.709647             0.00948241383            0.000499796433           
       1.712287             0.00809068744            0.000465682867           
       1.714928             0.00953021654            0.000509490901           
       1.717568             0.00898770543            0.000466081854           
       1.720209             0.00882512785            0.000483752872           
       1.722849             0.00835198302            0.000468186992           
       1.725489             0.00861421534            0.000475879421           
       1.728130             0.00893462481            0.000515045958           
       1.730770             0.00817609951            0.000467930801           
       1.733410             0.00808933238            0.000458124985           
       1.736051             0.00893930072            0.000484944264           
       1.738691             0.00828543934            0.000457407895           
       1.741332             0.00912202675            0.000493979003           
       1.743972              0.0082957234            0.000486464815           
       1.746612             0.00849491577            0.000472705209           
       1.749253             0.00894540205            0.000494656601           
       1.751893             0.00892522579            0.000490471669           
       1.754533             0.00854923966            0.000479581362           
       1.757174             0.00897310854             0.00048672528           
       1.759814             0.00926033114             0.00048695882           
       1.762455             0.00822623566             0.00046739255           
       1.765095             0.00869515243            0.000459684633           
       1.767735             0.00810900378            0.000457615373           
       1.770376             0.00820094214            0.000461415459           
       1.773016             0.00884812124            0.000476065809           
       1.775657             0.00763568317            0.000435884185           
       1.778297             0.00897552061            0.000468512453           
       1.780937              0.0083141205            0.000475945867           
       1.783578             0.00828487901            0.000463228441           
       1.786218             0.00816788741            0.000480004145           
       1.788858               0.008530629            0.000465901307           
       1.791499             0.00864021243            0.000463618209           
       1.794139             0.00850655105            0.000456286005           
       1.796780             0.00970625541              0.0004850511           
       1.799420             0.00964866029            0.000480931745           
       1.802060             0.00925330478            0.000474779769           
       1.804701             0.00930862585            0.000456980209           
       1.807341             0.00905991712            0.000473728534           
       1.809981             0.00943251761            0.000484983308           
       1.812622             0.00960029442             0.00048046893           
       1.815262             0.00864153741            0.000465529639           
       1.817903              0.0091301129            0.000471418768           
       1.820543             0.00843468987            0.000460170165           
       1.823183             0.00881753496            0.000470239033           
       1.825824             0.00958255656            0.000468330669           
       1.828464             0.00800392939            0.000446228805           
       1.831105             0.00883717701            0.000455917567           
       1.833745             0.00826830973            0.000450417727           
       1.836385             0.00803063666            0.000456565009           
       1.839026             0.00951256834            0.000495338662           
       1.841666             0.00900633993            0.000480269254           
       1.844306             0.00862527547            0.000457175027           
       1.846947             0.00891806283            0.000468944664           
       1.849587             0.00823114487            0.000497486023           
       1.852228             0.00796030363              0.0004423877           
       1.854868              0.0091723278            0.000501633707           
       1.857508             0.00927628643            0.000499520667           
       1.860149             0.00825370699            0.000479745155           
       1.862789               0.008543479            0.000471123569           
       1.865429             0.00875199374            0.000497746024           
       1.868070               0.008016999            0.000470037937           
       1.870710             0.00955713783            0.000501373321           
       1.873351             0.00874565858            0.000485545029           
       1.875991              0.0087448281            0.000493445794           
       1.878631             0.00930240722            0.000499186815           
       1.881272             0.00836603707            0.000470224915           
       1.883912             0.00916222038            0.000512124418           
       1.886553             0.00867706343            0.000492809122           
       1.889193             0.00948120347            0.000514258392           
       1.891833             0.00916328952            0.000525046983           
       1.894474             0.00842743274            0.000499138738           
       1.897114             0.00926780243            0.000506516253           
       1.899754             0.00872733957            0.000493581952           
       1.902395             0.00934251567             0.00050069721           
       1.905035             0.00878382867            0.000514221074           
       1.907676             0.00918996618            0.000495732755           
       1.910316             0.00927632569            0.000511280798           
       1.912956             0.00842783741            0.000476615721           
       1.915597             0.00868949339            0.000486662601           
       1.918237             0.00975726256            0.000532589687           
       1.920878             0.00937370075            0.000519879632           
       1.923518             0.00967474202            0.000528385859           
       1.926158             0.00842027426            0.000486543987           
       1.928799             0.00875502969            0.000490378479           
       1.931439             0.00869170404            0.000501417318           
       1.934079             0.00920733006            0.000537996604           
       1.936720             0.00874645592            0.000485833855           
       1.939360             0.00754278141            0.000481332446           
       1.942001             0.00926889913            0.000489046553           
       1.944641             0.00819773069            0.000468980096           
       1.947281             0.00850704739            0.000473342328           
       1.949922              0.0089556716            0.000501646894           
       1.952562              0.0086476109             0.00050839509           
       1.955202             0.00779770839            0.000482177632           
       1.957843             0.00867089656             0.00049527277           
       1.960483              0.0085847708            0.000515228978           
       1.963124             0.00805751245            0.000488915744           
       1.965764             0.00777814782            0.000452997933           
       1.968404             0.00811608806            0.000458362003           
       1.971045             0.00853852683            0.000479331903           
       1.973685             0.00921264903            0.000522253917           
       1.976326              0.0088078228            0.000503632219           
       1.978966             0.00875807818            0.000506615305           
       1.981606             0.00851606746             0.00050998544           
       1.984247             0.00853309659            0.000507138824           
       1.986887             0.00788134216            0.000481548315           
       1.989527             0.00823615369            0.000486967016           
       1.992168             0.00851848044            0.000513856638           
       1.994808             0.00786420152            0.000491612122           
       1.997449             0.00756690665             0.00047232692           
       2.000089             0.00842822801            0.000496508161           
       2.002729             0.00752125971            0.000469314357           
       2.005370             0.00755641418            0.000465348404           
       2.008010             0.00776373475            0.000492275025           
       2.010650             0.00886963371            0.000530095239           
       2.013291             0.00839549198            0.000494816374           
       2.015931             0.00651975257            0.000432967861           
       2.018572             0.00742198871            0.000494105213           
       2.021212             0.00760727364            0.000491247116           
       2.023852             0.00794722454            0.000475217297           
       2.026493              0.0075350955            0.000483405171           
       2.029133             0.00799888792            0.000488037082           
       2.031774             0.00741668074            0.000493192036           
       2.034414             0.00786431154            0.000467299179           
       2.037054             0.00785234066            0.000478778868           
       2.039695             0.00721716272            0.000455539636           
       2.042335             0.00765904118            0.000487682785           
       2.044975             0.00809148705            0.000495182622           
       2.047616             0.00719411294            0.000465757323           
       2.050256             0.00831309084            0.000505409006           
       2.052897             0.00741997544            0.000486291312           
       2.055537             0.00783067625            0.000482813813           
       2.058177             0.00744700245            0.000461076614           
       2.060818             0.00740472715            0.000481640524           
       2.063458             0.00801681011            0.000522249949           
       2.066098             0.00828619526            0.000500865514           
       2.068739             0.00754942198            0.000485511072           
       2.071379             0.00788825195            0.000509230061           
       2.074020             0.00785289454            0.000497045366           
       2.076660             0.00702454816            0.000473900367           
       2.079300             0.00741956793             0.00049897636           
       2.081941              0.0077897036            0.000468126811           
       2.084581             0.00770195924             0.00049132166           
       2.087222             0.00798956463            0.000482598595           
       2.089862             0.00721606276            0.000499532069           
       2.092502             0.00718564669            0.000483203434           
       2.095143             0.00655218248            0.000476478205           
       2.097783             0.00821848351            0.000516650387           
       2.100423              0.0079353808            0.000489190494           
       2.103064             0.00830562105            0.000519307426           
       2.105704             0.00668167158            0.000463473088           
       2.108345             0.00804845546            0.000488698223           
       2.110985             0.00788939383             0.00051678153           
       2.113625             0.00914137027            0.000561130952           
       2.116266             0.00783683792              0.0005269232           
       2.118906             0.00744455585            0.000478614762           
       2.121546             0.00733374755            0.000465969479           
       2.124187             0.00707494349            0.000480416062           
       2.126827             0.00736914565            0.000495775204           
       2.129468             0.00845097949            0.000532276969           
       2.132108             0.00678953997            0.000464176553           
       2.134748             0.00713660432            0.000474046111           
       2.137389             0.00729837477            0.000500121567           
       2.140029              0.0083016131            0.000477522049           
       2.142670              0.0082842282            0.000509803458           
       2.145310             0.00862515526            0.000506308161           
       2.147950             0.00742836822            0.000483624789           
       2.150591             0.00855792129            0.000513847975           
       2.153231             0.00733789466            0.000489775439           
       2.155871             0.00759214657            0.000481283066           
       2.158512             0.00780426503            0.000509151743           
       2.161152             0.00841447286            0.000512114561           
       2.163793             0.00701506439            0.000465489549           
       2.166433              0.0073950826             0.00049078526           
       2.169073             0.00738178907            0.000479427218           
       2.171714             0.00766341674            0.000484835418           
       2.174354              0.0075349783            0.000502344925           
       2.176995             0.00770532348            0.000505854004           
       2.179635             0.00657997633            0.000493969195           
       2.182275             0.00742419636            0.000495401611           
       2.184916             0.00725022787            0.000472854197           
       2.187556             0.00743349961            0.000473994445           
       2.190196             0.00666468571            0.000469004619           
       2.192837             0.00731882731            0.000488808404           
       2.195477             0.00741609078            0.000469107124           
       2.198118             0.00783334703            0.000494477087           
       2.200758             0.00752017144            0.000497059097           
       2.203398             0.00734882447            0.000494507154           
       2.206039              0.0074185676            0.000470224705           
       2.208679             0.00730399128            0.000477437974           
       2.211319             0.00775643164            0.000494839964           
       2.213960             0.00736488705            0.000488648996           
       2.216600             0.00701484315            0.000493337446           
       2.219241             0.00745826743            0.000486171163           
       2.221881             0.00710190923            0.000475389732           
       2.224521             0.00848678475            0.000526045449           
       2.227162             0.00746051804            0.000483339562           
       2.229802             0.00763653156            0.000504315852           
       2.232443             0.00813797875            0.000512398837           
       2.235083             0.00728631683            0.000499147711           
       2.237723             0.00683418908              0.0004639052           
       2.240364             0.00744398243            0.000496087082           
       2.243004             0.00725749545             0.00048592357           
       2.245644             0.00734708836            0.000493807452           
       2.248285             0.00711493217            0.000476208189           
       2.250925             0.00677577524            0.000467542568           
       2.253566             0.00706152432            0.000510269601           
       2.256206             0.00648155084            0.000479091199           
       2.258846             0.00750348229            0.000490362193           
       2.261487             0.00653114872            0.000480176788           
       2.264127             0.00675249529            0.000471540071           
       2.266767             0.00795046196            0.000525293445           
       2.269408             0.00704685387            0.000496567449           
       2.272048             0.00746864234            0.000508160987           
       2.274689               0.007674394            0.000521900327           
       2.277329             0.00729571319            0.000479125681           
       2.279969             0.00706929717             0.00050202575           
       2.282610             0.00780874825            0.000512954114           
       2.285250              0.0079083489            0.000494088013           
       2.287891             0.00742545113            0.000513308882           
       2.290531             0.00813064567            0.000544351055           
       2.293171             0.00723963422            0.000500350269           
       2.295812              0.0070958587            0.000493365834           
       2.298452             0.00645013728            0.000491894995           
       2.301092             0.00767721994            0.000498612393           
       2.303733             0.00676498942            0.000486938183           
       2.306373             0.00767089765            0.000526683309           
       2.309014             0.00687789043            0.000488988062           
       2.311654             0.00749845653            0.000532805591           
       2.314294             0.00726537522            0.000483186363           
       2.316935             0.00703459072            0.000477414516           
       2.319575             0.00668388604            0.000487591446           
       2.322215             0.00698625479            0.000519519489           
       2.324856             0.00738889865            0.000491215697           
       2.327496             0.00730608063             0.00051938111           
       2.330137             0.00781785741            0.000514121516           
       2.332777             0.00721701202             0.00050933579           
       2.335417             0.00663551103            0.000473806856           
       2.338058             0.00721133783            0.000508692581           
       2.340698             0.00699097591            0.000496924079           
       2.343339             0.00760248507            0.000529605325           
       2.345979             0.00740460689            0.000494485098           
       2.348619             0.00709717856            0.000501807129           
       2.351260             0.00704348093            0.000496992605           
       2.353900             0.00778208271            0.000520746354           
       2.356540             0.00667282955            0.000481522299           
       2.359181             0.00708939899            0.000489366712           
       2.361821             0.00642273954            0.000449940425           
       2.364462             0.00721610261            0.000498799421           
       2.367102              0.0074663912             0.00052141005           
       2.369742             0.00703030911            0.000532551779           
       2.372383             0.00748406475            0.000497543057           
       2.375023             0.00647485102            0.000486484537           
       2.377663             0.00651168612            0.000466471883           
       2.380304             0.00639426902            0.000469954515           
       2.382944               0.006075085            0.000436301902           
       2.385585             0.00691237263            0.000496354971           
       2.388225             0.00646266108            0.000477682087           
       2.390865             0.00789192102            0.000522444769           
       2.393506             0.00701996563            0.000483442429           
       2.396146             0.00682137864            0.000515273146           
       2.398787             0.00683585016            0.000475367635           
       2.401427             0.00695399331            0.000462787407           
       2.404067             0.00702059772            0.000475370449           
       2.406708             0.00660642118            0.000455605429           
       2.409348              0.0067486053            0.000488431374           
       2.411988             0.00671140021            0.000477233738           
       2.414629             0.00631399354            0.000477304894           
       2.417269              0.0069408854             0.00050628189           
       2.419910             0.00761204207            0.000531425192           
       2.422550             0.00733593755            0.000499128697           
       2.425190             0.00733037603            0.000525934294           
       2.427831             0.00667042991            0.000498881118           
       2.430471             0.00773497747            0.000511802886           
       2.433112             0.00654983763            0.000458607476           
       2.435752             0.00824025854            0.000544389936           
       2.438392             0.00662533665            0.000471154033           
       2.441033             0.00719928873            0.000520507794           
       2.443673              0.0077881321             0.00054179232           
       2.446313             0.00713052099            0.000518871201           
       2.448954             0.00725200149            0.000498228527           
       2.451594             0.00751004066            0.000545159581           
       2.454235             0.00704069043            0.000495257617           
       2.456875             0.00746032311            0.000533436624           
       2.459515              0.0081024892            0.000570312529           
       2.462156             0.00743037823            0.000515638344           
       2.464796             0.00862156448            0.000548268392           
       2.467436             0.00826602681            0.000555160349           
       2.470077             0.00722417353            0.000491914131           
       2.472717             0.00752601716            0.000504260587           
       2.475358             0.00761391726            0.000512485367           
       2.477998             0.00686475759            0.000478416327           
       2.480638             0.00775121985             0.00051740148           
       2.483279             0.00784073564            0.000543880617           
       2.485919             0.00728305779            0.000505169145           
       2.488560             0.00810405688            0.000531393202           
       2.491200             0.00727554411             0.00051846957           
       2.493840             0.00691222648            0.000534735396           
       2.496481             0.00746775315            0.000546716366           
       2.499121             0.00673337738            0.000504945494           
       2.501761             0.00683343852            0.000515423325           
       2.504402              0.0077314932            0.000540236953           
       2.507042             0.00609307827            0.000476038173           
       2.509683             0.00717245065            0.000508590684           
       2.512323              0.0064716878            0.000507382448           
       2.514963             0.00779549362             0.00054998339           
       2.517604             0.00651544833            0.000521737908           
       2.520244             0.00708524095            0.000510069875           
       2.522884             0.00705367174            0.000516210478           
       2.525525             0.00834562585            0.000567871682           
       2.528165             0.00707683684            0.000514774924           
       2.530806              0.0083361938            0.000568442229           
       2.533446             0.00879395681            0.000571379312           
       2.536086             0.00859632441            0.000559866065           
       2.538727             0.00805633734             0.00051996336           
       2.541367             0.00706651268            0.000491771737           
       2.544008             0.00758062208             0.00052603071           
       2.546648             0.00653702865            0.000496861128           
       2.549288             0.00765743665             0.00054871483           
       2.551929             0.00712311241            0.000520788517           
       2.554569             0.00731127578            0.000508319855           
       2.557209             0.00736870681            0.000514999005           
       2.559850             0.00640010975            0.000481500607           
       2.562490             0.00777558033             0.00054853277           
       2.565131             0.00736409583            0.000553489947           
       2.567771             0.00761991244            0.000542837299           
       2.570411             0.00684525564            0.000508938039           
       2.573052             0.00678364547            0.000513022991           
       2.575692             0.00716682185            0.000524119959           
       2.578332              0.0074187708            0.000535458216           
       2.580973             0.00747281488            0.000532291791           
       2.583613             0.00718854949            0.000509638498           
       2.586254             0.00757812814            0.000522538844           
       2.588894             0.00711977679            0.000525965595           
       2.591534             0.00608193069            0.000503227031           
       2.594175             0.00737867684            0.000543824522           
       2.596815             0.00648759509            0.000512937674           
       2.599456             0.00733423162            0.000517182313           
       2.602096             0.00713660171            0.000514049203           
       2.604736             0.00608323582            0.000485852185           
       2.607377             0.00621550117             0.00047816339           
       2.610017             0.00724084735            0.000507067363           
       2.612657             0.00570086124            0.000478564262           
       2.615298             0.00785255515            0.000548359416           
       2.617938             0.00767050394            0.000579764733           
       2.620579             0.00709480795            0.000535274827           
       2.623219              0.0072588678            0.000540656494           
       2.625859              0.0073159421            0.000527732308           
       2.628500             0.00721653382            0.000520699163           
       2.631140             0.00751788164            0.000539648536           
       2.633780             0.00757741663            0.000541310111           
       2.636421             0.00632347671             0.00050665746           
       2.639061             0.00650785797            0.000483863446           
       2.641702             0.00726324466             0.00052300843           
       2.644342             0.00778544578             0.00054379058           
       2.646982             0.00636228583            0.000484233579           
       2.649623             0.00816897169            0.000575011662           
       2.652263             0.00657860754             0.00051083401           
       2.654904             0.00715928805            0.000533438586           
       2.657544             0.00690826576            0.000493556762           
       2.660184             0.00762496524            0.000548752747           
       2.662825             0.00730979563            0.000549757108           
       2.665465             0.00618539474            0.000489105321           
       2.668105             0.00734635099            0.000561837755           
       2.670746             0.00836734906            0.000553911976           
       2.673386             0.00835686675            0.000570493015           
       2.676027             0.00928989834             0.00059184423           
       2.678667             0.00921155712            0.000575051881           
       2.681307              0.0112300519            0.000623862791           
       2.683948              0.0158925909            0.000762531508           
       2.686588              0.0116274172            0.000641415598           
       2.689229              0.0107258854            0.000601976511           
       2.691869             0.00930862561            0.000592706761           
       2.694509             0.00982060187            0.000609122618           
       2.697150             0.00788670093            0.000537006548           
       2.699790             0.00722975399            0.000539017148           
       2.702430             0.00694306984            0.000504916855           
       2.705071             0.00797589959            0.000559197355           
       2.707711             0.00631912339            0.000483095243           
       2.710352             0.00688816405            0.000532938422           
       2.712992             0.00640797045            0.000523530901           
       2.715632             0.00724470889            0.000516473043           
       2.718273             0.00664772489             0.00051272751           
       2.720913             0.00655193867            0.000507571866           
       2.723553             0.00669657013            0.000516586453           
       2.726194             0.00714284726            0.000557706543           
       2.728834             0.00790072195             0.00058682304           
       2.731475             0.00738887989            0.000523749369           
       2.734115             0.00788270647            0.000557757573           
       2.736755             0.00765642945            0.000554218351           
       2.739396             0.00735582416            0.000540082215           
       2.742036             0.00625664118            0.000521291222           
       2.744677             0.00771869874             0.00056179384           
       2.747317             0.00684718033            0.000525355009           
       2.749957             0.00780894207            0.000564976331           
       2.752598             0.00739688096              0.0005558355           
       2.755238             0.00847348946            0.000605652039           
       2.757878              0.0070918047            0.000549232948           
       2.760519             0.00781872304            0.000570580074           
       2.763159             0.00936811426            0.000618319489           
       2.765800             0.00807251606            0.000546987115           
       2.768440             0.00850272062            0.000565508665           
       2.771080             0.00843569479            0.000567977057           
       2.773721             0.00627169205            0.000502370141           
       2.776361             0.00810516912            0.000578979338           
       2.779001             0.00701755867            0.000557914498           
       2.781642             0.00642087253            0.000529735717           
       2.784282             0.00671394874            0.000550598057           
       2.786923             0.00615942062            0.000532013595           
       2.789563             0.00732233044            0.000558671753           
       2.792203             0.00691330883            0.000518571021           
       2.794844             0.00648898948            0.000550627479           
       2.797484              0.0068064961            0.000532219623           
       2.800125             0.00693659046            0.000564951977           
       2.802765             0.00701404416            0.000558324142           
       2.805405             0.00706137306            0.000562100761           
       2.808046             0.00716887179            0.000576319562           
       2.810686             0.00718341987            0.000530107724           
       2.813326             0.00657795497            0.000526919325           
       2.815967             0.00755247764            0.000580656588           
       2.818607             0.00772572747            0.000560424975           
       2.821248             0.00699590313            0.000522225905           
       2.823888             0.00722276644            0.000550802955           
       2.826528             0.00743599082            0.000541241845           
       2.829169             0.00729570709            0.000561547413           
       2.831809             0.00684199036            0.000551202908           
       2.834449             0.00669230469            0.000548585218           
       2.837090             0.00750104318            0.000560948381           
       2.839730             0.00698318552            0.000538596153           
       2.842371              0.0071582758            0.000546093507           
       2.845011             0.00653627858             0.00052598833           
       2.847651             0.00691823048             0.00054180299           
       2.850292             0.00613728985            0.000515316024           
       2.852932             0.00695030641            0.000560338385           
       2.855573             0.00681089682            0.000538065204           
       2.858213             0.00694824193            0.000570702377           
       2.860853             0.00738150707             0.00054718597           
       2.863494             0.00725359643             0.00056160467           
       2.866134             0.00783882508            0.000606809268           
       2.868774             0.00648094748            0.000542261683           
       2.871415             0.00613548377            0.000535829594           
       2.874055             0.00635631226              0.0005213223           
       2.876696             0.00663960815            0.000547224973           
       2.879336             0.00839228818            0.000592959849           
       2.881976             0.00731250001            0.000570897627           
       2.884617             0.00660641395            0.000534666055           
       2.887257             0.00716450725            0.000559665784           
       2.889897             0.00763301338            0.000565785921           
       2.892538             0.00680462768            0.000585221315           
       2.895178             0.00694877081            0.000534278961           
       2.897819              0.0070884918            0.000550467721           
       2.900459             0.00731231718            0.000548214845           
       2.903099             0.00676383891            0.000521856989           
       2.905740             0.00771001391             0.00057157829           
       2.908380             0.00680220974             0.00054297511           
       2.911021             0.00721188496            0.000568176739           
       2.913661             0.00710046474            0.000563601721           
       2.916301             0.00681856458            0.000552827152           
       2.918942             0.00660148584            0.000520307246           
       2.921582             0.00726901038            0.000571252291           
       2.924222             0.00670467506            0.000531516496           
       2.926863              0.0076411493             0.00059103694           
       2.929503             0.00810034702             0.00061574675           
       2.932144             0.00731985018            0.000561881816           
       2.934784              0.0066769419            0.000527840203           
       2.937424             0.00638755526            0.000521575382           
       2.940065             0.00709955528            0.000524530425           
       2.942705             0.00719336496            0.000527322081           
       2.945346             0.00762113044            0.000576021336           
       2.947986              0.0068380793             0.00055635083           
       2.950626             0.00644157771            0.000536939874           
       2.953267             0.00801642859            0.000589312497           
       2.955907             0.00791830933            0.000607577933           
       2.958547              0.0066809867            0.000526867804           
       2.961188             0.00727749222            0.000573684062           
       2.963828              0.0073243624            0.000562973249           
       2.966469             0.00742051203            0.000555887947           
       2.969109             0.00785563914            0.000580428348           
       2.971749             0.00677135711            0.000535522778           
       2.974390             0.00773741764            0.000562537593           
       2.977030             0.00710037587            0.000550925718           
       2.979670             0.00840509144             0.00058304112           
       2.982311              0.0095542186              0.0006442787           
       2.984951             0.00715821084            0.000530394634           
       2.987592             0.00604999139            0.000497378319           
       2.990232             0.00690579548             0.00055264363           
       2.992872             0.00705501414            0.000526153064           
       2.995513             0.00825830873             0.00055692115           
       2.998153              0.0120670279            0.000684517245           
       3.000794              0.0124863579            0.000674446979           
       3.003434              0.0122304452            0.000668507515           
       3.006074              0.0517920818             0.00135639676           
       3.008715               0.125745047             0.00204018202           
       3.011355               0.184116028             0.00238062951           
       3.013995              0.0884024518             0.00165408632           
       3.016636              0.0627651546             0.00136481284           
       3.019276               0.136287774             0.00197690944           
       3.021917               0.525131581             0.00373132936           
       3.024557                1.72428482              0.0066475865           
       3.027197                1.09812955             0.00517210643           
       3.029838               0.521328068             0.00361420862           
       3.032478               0.254609159             0.00252834324           
       3.035118              0.0676524786             0.00132077446           
       3.037759               0.101348994             0.00161449175           
       3.040399               0.138870986             0.00194944786           
       3.043040               0.561756676             0.00396890708           
       3.045680                0.37237743             0.00304027341           
       3.048320              0.0822068779             0.00145956087           
       3.050961               0.110863247             0.00172483543           
       3.053601              0.0874436512             0.00147536327           
       3.056242              0.0568374075             0.00126465485           
       3.058882              0.0512304905             0.00128794899           
       3.061522              0.0424852531             0.00115073491           
       3.064163              0.0508078529             0.00124256202           
       3.066803               0.109606598             0.00192136801           
       3.069443               0.110466607             0.00201811424           
       3.072084               0.045640247             0.00126311869           
       3.074724               0.041115707             0.00133887006           
       3.077365              0.0843057374             0.00198461696           
       3.080005              0.0157584444            0.000862896649           
       3.082645              0.0109280089            0.000754880747           
       3.085286              0.0122091154            0.000804197867           
       3.087926             0.00987515659            0.000717683018           
       3.090566              0.0111072195            0.000745768246           
       3.093207               0.011527042            0.000790579271           
       3.095847             0.00885380284            0.000664104738           
       3.098488             0.00790148327            0.000695649511           
       3.101128             0.00930803094            0.000759887187           
       3.103768              0.0118232432            0.000840311039           
       3.106409              0.0111022461            0.000866619765           
       3.109049             0.00864399692            0.000733826768           
       3.111690             0.00884008499            0.000729363891           
       3.114330               0.008405968            0.000726359932           
       3.116970              0.0079628379            0.000712382682           
       3.119611              0.0126220733            0.000954692519           
       3.122251              0.0217614472             0.00131125658           
       3.124891              0.0361096594             0.00170483398           
       3.127532              0.0233329102             0.00134067327           
       3.130172              0.0136520306             0.00104322351           
       3.132813             0.00948405691            0.000856005044           
       3.135453             0.00681233733            0.000719507189           
       3.138093             0.00810225631            0.000850223592           
       3.140734             0.00653156564             0.00070427363           
       3.143374             0.00713393832            0.000778387386           
       3.146014             0.00619689029            0.000780998948           
       3.148655             0.00764692282            0.000806491055           
       3.151295             0.00733730579            0.000841863485           
       3.153936              0.0065889508            0.000770628496           
       3.156576             0.00717298929            0.000793120525           
       3.159216             0.00665046201            0.000767506117           
       3.161857             0.00543163429            0.000690796467           
       3.164497              0.0078502821            0.000872591769           
       3.167138             0.00931038093            0.000981872558           
       3.169778             0.00600420719            0.000775492186           
       3.172418             0.00579378709            0.000754033704           
       3.175059             0.00739674137            0.000755316875           
       3.177699             0.00674097903            0.000763557258           
       3.180339             0.00755238851            0.000865930484           
       3.182980              0.0066702915            0.000841377961           
       3.185620             0.00815329997            0.000947349366           
       3.188261             0.00605171825             0.00083073903           
       3.190901             0.00520093407            0.000708299181           
       3.193541             0.00468242386            0.000706178476           
       3.196182             0.00566749233            0.000809658889           
       3.198822             0.00578648704            0.000818388749           
       3.201463             0.00591878106            0.000813431166           
       3.204103             0.00740929851            0.000904571387           
       3.206743             0.00717829121            0.000890274781           
       3.209384              0.0060545285            0.000883373058           
       3.212024             0.00626292757            0.000837634808           
       3.214664             0.00580328545            0.000916891339           
       3.217305             0.00403407849            0.000726669202           
       3.219945             0.00653439691            0.000951900676           
       3.222586             0.00780427677            0.000990860739           
       3.225226              0.0058862995            0.000954627185           
       3.227866             0.00645666052            0.000913814443           
       3.230507              0.0067967776            0.000971897876           
       3.233147             0.00579145495            0.000904389949           
       3.235787             0.00530143599            0.000885510004           
       3.238428             0.00534257183            0.000959277531           
       3.241068             0.00644809485             0.00098541572           
       3.243709             0.00690138857             0.00105326859           
       3.246349             0.00600912002            0.000895936908           
       3.248989             0.00538850453             0.00100178406           
       3.251630             0.00621934601             0.00103639745           
       3.254270             0.00646998965             0.00094473834           
       3.256911             0.00508978856            0.000914278574           
       3.259551             0.00512973683            0.000988157627           
       3.262191             0.00475751273            0.000972043723           
       3.264832             0.00519679788             0.00106149452           
       3.267472             0.00456082647            0.000932876678           
       3.270112              0.0048585301             0.00106406283           
       3.272753             0.00546235402             0.00103271273           
       3.275393             0.00609643172             0.00111320703           
       3.278034              0.0042724357            0.000932438701           
       3.280674              0.0071823015             0.00131189673           
       3.283314             0.00575564077             0.00105032642           
       3.285955              0.0055294447             0.00106219803           
       3.288595             0.00506768168             0.00113131627           
       3.291235             0.00906045171             0.00155504799           
       3.293876             0.00519040491             0.00119389423           
       3.296516              0.0055593239             0.00118619913           
       3.299157             0.00964883212             0.00154309421           
       3.301797             0.00708248255             0.00150804215           
       3.304437              0.0038147938            0.000958881938           
       3.307078             0.00347600221             0.00100827364           
       3.309718             0.00718946796             0.00149672519           
       3.312359             0.00372081127             0.00107699991           
       3.314999             0.00240455419            0.000852444186           
       3.317639             0.00664383466             0.00135514964           
       3.320280             0.00467969237             0.00120921651           
       3.322920             0.00547640997             0.00133012408           
       3.325560              0.0064199562             0.00144113665           
       3.328201             0.00522032943             0.00117038818           
       3.330841             0.00499582116             0.00139346896           
       3.333482              0.0055488865             0.00138814259           
       3.336122             0.00519948683             0.00134434579           
       3.338762             0.00645808472             0.00173070415           
       3.341403             0.00379716206             0.00126808805           
       3.344043             0.00388369565             0.00123126342           
       3.346683             0.00978125077              0.0019948794           
       3.349324             0.00463007999             0.00154314635           
       3.351964             0.00571526287             0.00181299261           
       3.354605             0.00148361275             0.00105640979           
       3.357245             0.00366601087              0.0014980516           
       3.359885             0.00470596932             0.00135843861           
       3.362526             0.00422526241              0.0016096837           
       3.365166             0.00546071903             0.00172599467           
       3.367807             0.00447688427             0.00200006206           
       3.370447             0.00796168072             0.00221249114           
       3.373087             0.00697160526             0.00221397551           
       3.375728             0.00267690351             0.00154832457           
       3.378368             0.00381543395             0.00274338978           
       3.381008              0.0033061637              0.0019039514           
       3.383649              0.0070433901             0.00222930255           
       3.386289             0.00687955007             0.00260758636           
       3.388930             0.00248134772             0.00247711296           
       3.391570             0.00488128736             0.00245771587           
       3.394210             0.00195675009             0.00196925581           
       3.396851              0.0122741572             0.00551701407           
       3.399491           -2.65110601e-05                         0           
       3.402131             0.00968987569             0.00693722745           
       3.404772              0.0194181317               0.013891538           
       3.407412                       nan                       nan           
       3.410053             0.00929891958             0.00962491787           
       3.412693                       nan                       nan           
       3.415333             0.00903394355             0.00949585427           
