################################################################################
# EDF_DataBlockID                     0.Image.Psd
# EDF_BinarySize                      2105344
# EDF_HeaderSize                      2560
# ByteOrder                           LowByteFirst
# DataType                            FloatValue
# Dim_1                               512
# Dim_2                               1028
# Image                               0
# HeaderID                            EH:000000:000000:000000
# Size                                2105344
# Center_1                            304.9000
# Center_2                            588.7000
# Comment                             Xenocs_Cell_Window - 20251028_20perc_iodine_1.23mg
# DDummy                              0.6
# Date                                2025-11-02T07:54:44
# Delta                               21.910000
# Dummy                               -1.5
# ExposureTime                        360
# Gamma                               15.360000
# Intensity1                          8.76371e-10
# PSize_1                             7.5e-05
# PSize_2                             7.5e-05
# Pressure                            0.0326672
# SampleDistance                      0.115750
# SampleEnvKind                       large
# SampleEnvPN                         ElectroChemical cell
# SampleEnvSN                         1141
# Thickness                           0
# Wavelength                          1.541891e-10
# Wavelength                          1.54189e-10
# aux                                 0
# aux_dial                            0.002375
# beamx                               588.434
# beamx_dial                          588.434
# beamz                               657.808
# beamz_dial                          657.808
# det0x                               0
# det0x_dial                          6.36945
# det0xvd                             0
# det0xvd_dial                        0
# det0y                               450.002
# det0y_dial                          481.635
# det0z                               0
# det0z_dial                          1.23302
# det0zvd                             0
# det0zvd_dial                        0
# mag                                 1.818
# mag_dial                            1.818
# om                                  0.2499
# om_dial                             -0.610199
# phi                                 -0.0120535
# phi_dial                            0
# ry                                  0.599993
# ry_dial                             0.599993
# s1bot                               0.8
# s1bot_dial                          -1.66094
# s1hl                                0.8
# s1hl_dial                           -0.608437
# s1hr                                0.8
# s1hr_dial                           0.970938
# s1top                               0.8
# s1top_dial                          -0.461562
# s2bot                               0.45
# s2bot_dial                          1.36109
# s2hl                                0.45
# s2hl_dial                           -0.83375
# s2hr                                0.45
# s2hr_dial                           -0.118594
# s2top                               0.45
# s2top_dial                          1.44734
# w2theta                             32
# w2theta_dial                        32
# waxsch                              19.2605
# waxsch_dial                         -32.7355
# waxsh                               137.085
# waxsh_dial                          -43.5338
# waxsth                              26.0607
# waxsth_dial                         -19.4086
# waxsz                               67.0407
# waxsz_dial                          -23.7954
# wind                                65.9854
# wind_dial                           66.0041
# wpsi                                124
# wpsi_dial                           124
# wstod                               115
# wstod_dial                          115
# x                                   0
# x_dial                              1.00969
# z                                   0
# z_dial                              13.3172
# CountCutoff                         6807993
# DetectorModel                       Dectris EIGER2 Si 500K, S/N E-01-0554
# ThresholdSetting                    4023.88989258
# Saturation                          0
# FlatField                           Corrected
# BackgroundReductionExtra            0.02
# BackgroundCorrectionConstant        0.0026712
# Detector                            0
# Monitor                             0
# Pil_Roi0                            0
# SumForIntensity1                    3.15494e+08
# TransmittedFlux                     876371
# det                                 0
# mon                                 0
# pilai0                              3.15494e+08
# pilai1                              793567
# pilct0                              5.45203e+08
# pilct1                              793567
# pilroi0                             0
# pilroi1                             0
# sec                                 1
# title                               20251028_20perc_iodine_1.23mg_1_01032.edf
# usaxs0                              0
# Operation                           Azimuthal average I(q)
# Error_model                         ErrorModel.poisson
# Geometrical_correction              True
# Transmission_correction             True
# Thickness_correction                False
# Binning mode                        Uniform
# Binning factor                      1.0
# Psi                                 0.0
# Omega                               0.2499
# MaskInvalidPixels                   True
# DetectorEdge                        3
# MaskFiles                           ['WAXS_corrected.edf']
################################################################################
    q(A⁻¹)                Intensity(a.u.)            Sigma_I(a.u.)            
       0.693100             0.00402575656             0.00417824425           
       0.695741             0.00822856027             0.00487460821           
       0.698381               0.012451316             0.00734510948           
       0.701021             0.00860121954             0.00863023947           
       0.703662              0.0110585118             0.00564846753           
       0.706302             0.00844910835             0.00382247706           
       0.708942             0.00838771665             0.00491566613           
       0.711583             0.00642364278             0.00372509186           
       0.714223             0.00569128233             0.00404810046           
       0.716864             0.00856227726             0.00324871522           
       0.719504              0.0172044542             0.00496941545           
       0.722144             0.00858957452             0.00325175262           
       0.724785             0.00935924691             0.00270759392           
       0.727425             0.00860945076             0.00351310272           
       0.730065             0.00855327681             0.00247691216           
       0.732706             0.00794224434             0.00200430914           
       0.735346             0.00514105748             0.00210205187           
       0.737987             0.00601326305             0.00160645798           
       0.740627             0.00759712932              0.0026941732           
       0.743267             0.00598747892             0.00160200885           
       0.745908             0.00963679797             0.00220504783           
       0.748548              0.0102876993             0.00210002856           
       0.751189             0.00780561557             0.00246482549           
       0.753829             0.00987544182             0.00254850782           
       0.756469             0.00508362997              0.0014744431           
       0.759110              0.0089648755             0.00206340138           
       0.761750             0.00405207221             0.00122662225           
       0.764390             0.00724575998             0.00171679993           
       0.767031             0.00914646806             0.00167033502           
       0.769671              0.0109796332             0.00228289235           
       0.772312             0.00630901478             0.00131741814           
       0.774952             0.00802313705             0.00200620214           
       0.777592             0.00956189002             0.00159526063           
       0.780233             0.00692361817              0.0016377594           
       0.782873             0.00775886597             0.00165815567           
       0.785513             0.00399590207             0.00127214721           
       0.788154              0.0064748341             0.00135465325           
       0.790794             0.00807214308             0.00180828668           
       0.793435             0.00521919622             0.00130624574           
       0.796075             0.00545018401             0.00128586335           
       0.798715             0.00632758824             0.00163727295           
       0.801356             0.00713668088             0.00149653209           
       0.803996             0.00516420697              0.0012978737           
       0.806637             0.00677487572             0.00118302385           
       0.809277             0.00922410143             0.00149412248           
       0.811917             0.00591430807             0.00111844282           
       0.814558             0.00752281442             0.00131099745           
       0.817198             0.00993857348             0.00143159026           
       0.819838             0.00800131674             0.00130001887           
       0.822479              0.0110966784             0.00179777163           
       0.825119             0.00822789729             0.00131757752           
       0.827760             0.00560489609             0.00110156053           
       0.830400             0.00572190532              0.0010475388           
       0.833040              0.0088331781             0.00136361553           
       0.835681             0.00818576545             0.00149230703           
       0.838321             0.00612884753             0.00108380628           
       0.840961             0.00724278182             0.00128369233           
       0.843602             0.00987446609             0.00137452846           
       0.846242             0.00818043693             0.00125089367           
       0.848883             0.00642628495             0.00113458988           
       0.851523             0.00742719449              0.0012045998           
       0.854163              0.0075060724             0.00128782228           
       0.856804             0.00660129799             0.00108590083           
       0.859444             0.00840788139             0.00120076834           
       0.862085             0.00859559365             0.00126539442           
       0.864725              0.0066486088               0.001138931           
       0.867365             0.00873795532             0.00121074542           
       0.870006             0.00666595688             0.00100771346           
       0.872646             0.00754573405             0.00112430025           
       0.875286               0.010051565             0.00124839325           
       0.877927             0.00603505374            0.000933429387           
       0.880567             0.00807224639             0.00111842374           
       0.883208             0.00834279504             0.00112630009           
       0.885848             0.00948940715             0.00124721438           
       0.888488             0.00762450286             0.00104858006           
       0.891129             0.00925985151             0.00118653355           
       0.893769             0.00738120072             0.00101383029           
       0.896410             0.00748025421            0.000951566394           
       0.899050             0.00849102077             0.00111492641           
       0.901690             0.00727313852             0.00112401194           
       0.904331             0.00832870524             0.00106636149           
       0.906971             0.00727904637              0.0010605407           
       0.909611             0.00716176407            0.000957622224           
       0.912252             0.00750590097             0.00101260902           
       0.914892             0.00846534341             0.00117516303           
       0.917533             0.00801128046             0.00108147443           
       0.920173             0.00702510485            0.000939610047           
       0.922813             0.00785150756             0.00104239807           
       0.925454             0.00717029285            0.000897007234           
       0.928094             0.00750674663            0.000979840901           
       0.930734             0.00696700484             0.00101627534           
       0.933375             0.00783287534             0.00106698528           
       0.936015             0.00660083275            0.000889580628           
       0.938656             0.00731942938              0.0010049134           
       0.941296             0.00724699334            0.000906210585           
       0.943936             0.00685205471            0.000864125575           
       0.946577             0.00741906015             0.00089322356           
       0.949217             0.00862288147            0.000885536568           
       0.951858             0.00767907139            0.000874779371           
       0.954498             0.00895713481             0.00109356124           
       0.957138             0.00849877129             0.00100914391           
       0.959779             0.00721811424            0.000916797216           
       0.962419             0.00710943444            0.000903816996           
       0.965059             0.00635048735            0.000898409251           
       0.967700             0.00772023382             0.00101454198           
       0.970340             0.00708602607            0.000860103811           
       0.972981             0.00691773299            0.000774275491           
       0.975621              0.0078729472            0.000878726196           
       0.978261             0.00697611428            0.000785951392           
       0.980902             0.00808022441             0.00101203423           
       0.983542             0.00736160855            0.000855441623           
       0.986182             0.00748990828            0.000847154414           
       0.988823             0.00714390423            0.000803363591           
       0.991463             0.00646573129            0.000815408266           
       0.994104             0.00743082077            0.000852744263           
       0.996744             0.00630057502            0.000800916561           
       0.999384             0.00799069208            0.000806657864           
       1.002025             0.00884006111            0.000946979138           
       1.004665             0.00601422971            0.000713822422           
       1.007306             0.00804463888            0.000821343432           
       1.009946             0.00697139897            0.000779779977           
       1.012586             0.00785110848            0.000805954077           
       1.015227             0.00658170329            0.000792765634           
       1.017867             0.00697271122            0.000784207775           
       1.020507             0.00894623708            0.000860421127           
       1.023148             0.00702902564            0.000822945126           
       1.025788             0.00775260211            0.000792463101           
       1.028429             0.00924519834            0.000906641577           
       1.031069             0.00850242385            0.000818193932           
       1.033709             0.00709584699            0.000794550071           
       1.036350             0.00760466219            0.000738756918           
       1.038990             0.00789164374            0.000766396746           
       1.041630             0.00712341834            0.000759456071           
       1.044271             0.00708654626            0.000712389933           
       1.046911             0.00808460203            0.000800371594           
       1.049552             0.00840258679            0.000857269463           
       1.052192             0.00832825839            0.000779325734           
       1.054832             0.00832564522            0.000786291758           
       1.057473             0.00853361357            0.000784738883           
       1.060113              0.0076831962            0.000726198535           
       1.062754             0.00821944979            0.000766874015           
       1.065394             0.00871663144            0.000834945592           
       1.068034             0.00907874147            0.000775305037           
       1.070675             0.00685106532            0.000702545245           
       1.073315             0.00792853035            0.000766606395           
       1.075955             0.00996087513            0.000811191018           
       1.078596             0.00871731129            0.000806525061           
       1.081236              0.0081349898            0.000746059523           
       1.083877             0.00967611351            0.000806365566           
       1.086517             0.00895535043            0.000831832947           
       1.089157             0.00890560699             0.00086071939           
       1.091798             0.00912982966            0.000764047453           
       1.094438             0.00997247031            0.000795951106           
       1.097078             0.00852913221            0.000705998147           
       1.099719              0.0106592046            0.000853692476           
       1.102359             0.00743641144            0.000667781045           
       1.105000             0.00906788701             0.00082456127           
       1.107640             0.00807550404            0.000744023167           
       1.110280             0.00740989936            0.000650285943           
       1.112921             0.00776574814            0.000715124356           
       1.115561             0.00912386842            0.000736704445           
       1.118202             0.00972621322             0.00076135062           
       1.120842             0.00907005651            0.000772721865           
       1.123482              0.0090106048            0.000766821334           
       1.126123             0.00930025509            0.000747238299           
       1.128763             0.00857540088            0.000722447691           
       1.131403             0.00870436902            0.000701355427           
       1.134044             0.00862731263            0.000718494893           
       1.136684             0.00885596422            0.000776125022           
       1.139325             0.00819681225            0.000687843521           
       1.141965             0.00907054199            0.000728358845           
       1.144605             0.00888131049             0.00068720981           
       1.147246             0.00800517424              0.0006677092           
       1.149886              0.0090751438            0.000708409307           
       1.152527             0.00893386771            0.000713094835           
       1.155167             0.00879200935            0.000672855287           
       1.157807             0.00781279613            0.000680060896           
       1.160448             0.00772512438            0.000660360263           
       1.163088             0.00933472748            0.000692405315           
       1.165728             0.00995136332            0.000734010749           
       1.168369              0.0104050166             0.00075748906           
       1.171009             0.00917286387            0.000690225263           
       1.173650             0.00835310944            0.000675944031           
       1.176290             0.00925164467            0.000695168993           
       1.178930             0.00812740604            0.000638591775           
       1.181571             0.00850161817            0.000666079513           
       1.184211             0.00950776244            0.000706889516           
       1.186851             0.00989501294            0.000705049772           
       1.189492             0.00912573319            0.000672533434           
       1.192132             0.00871291557            0.000649772631           
       1.194773             0.00997881581            0.000698413421           
       1.197413             0.00920126437             0.00064257898           
       1.200053             0.00925706603              0.0006609009           
       1.202694             0.00878829844            0.000612359478           
       1.205334             0.00999847876            0.000703904367           
       1.207975              0.0104603818            0.000687241266           
       1.210615             0.00818136804            0.000670487726           
       1.213255             0.00959528767            0.000650221452           
       1.215896             0.00931993035            0.000652434872           
       1.218536             0.00985646208            0.000645148926           
       1.221176             0.00928070553            0.000680614906           
       1.223817              0.0100604536            0.000665203322           
       1.226457             0.00909191738            0.000645113038           
       1.229098             0.00920249069            0.000648992404           
       1.231738              0.0103472285            0.000691562025           
       1.234378               0.009412644            0.000619785183           
       1.237019               0.010604609             0.00067791729           
       1.239659             0.00936334869             0.00063145915           
       1.242299             0.00951939383             0.00062860986           
       1.244940              0.0107144031            0.000648601787           
       1.247580             0.00929486474            0.000622584268           
       1.250221              0.0100480864            0.000643324704           
       1.252861               0.010600066            0.000629045378           
       1.255501              0.0084980928            0.000611563853           
       1.258142              0.0102806016            0.000632077091           
       1.260782             0.00993723695            0.000634878076           
       1.263423              0.0104476221             0.00062551612           
       1.266063              0.0108457695            0.000653238368           
       1.268703              0.0107431053            0.000644744403           
       1.271344              0.0103732458            0.000655020116           
       1.273984             0.00956135769             0.00060735906           
       1.276624              0.0104759433            0.000623800619           
       1.279265             0.00995403723            0.000618161242           
       1.281905              0.0104787879            0.000637060776           
       1.284546              0.0113593701            0.000641128483           
       1.287186              0.0104017842            0.000601918716           
       1.289826             0.00928536974            0.000599363651           
       1.292467              0.0100932713            0.000611130785           
       1.295107             0.00957094324            0.000589196124           
       1.297747              0.0112309794            0.000610752947           
       1.300388              0.0108374002            0.000654027644           
       1.303028              0.0107230374            0.000621070918           
       1.305669              0.0107811555            0.000637580014           
       1.308309              0.0114232741            0.000649829409           
       1.310949             0.00962191142            0.000595796666           
       1.313590              0.0114873318            0.000630644643           
       1.316230               0.010793187             0.00065233535           
       1.318871              0.0101617366            0.000619911976           
       1.321511              0.0106576764            0.000623091776           
       1.324151              0.0107626712            0.000607590322           
       1.326792              0.0107211743            0.000610166985           
       1.329432              0.0105192435            0.000600128409           
       1.332072              0.0116535216            0.000622242247           
       1.334713              0.0105708066            0.000611654851           
       1.337353              0.0107149092            0.000590573897           
       1.339994              0.0116589196            0.000646472971           
       1.342634              0.0120405281            0.000629990717           
       1.345274              0.0119513619            0.000649562578           
       1.347915              0.0106943172            0.000597485176           
       1.350555              0.0102921248            0.000596407989           
       1.353195              0.0115006271            0.000633547974           
       1.355836              0.0124982629            0.000650156956           
       1.358476              0.0121870646            0.000623490833           
       1.361117              0.0121560752            0.000623552345           
       1.363757              0.0107120998            0.000603220496           
       1.366397              0.0106665226            0.000583720549           
       1.369038                0.01208288            0.000627453817           
       1.371678              0.0117399973            0.000613034322           
       1.374319              0.0110865138            0.000590598652           
       1.376959              0.0116446785            0.000599196259           
       1.379599              0.0122710848            0.000659202592           
       1.382240              0.0109763561            0.000585956013           
       1.384880              0.0109418479            0.000619684153           
       1.387520              0.0112117831            0.000595748482           
       1.390161              0.0110679117             0.00056217589           
       1.392801                0.01044785            0.000569088953           
       1.395442              0.0108606651            0.000588147465           
       1.398082              0.0113911674            0.000564065724           
       1.400722              0.0123245876            0.000614576999           
       1.403363              0.0102566533            0.000590153758           
       1.406003              0.0118582664             0.00059386327           
       1.408644              0.0121206272            0.000628954748           
       1.411284              0.0107979475            0.000562129979           
       1.413924              0.0116847793            0.000582590451           
       1.416565              0.0110693674            0.000564813656           
       1.419205              0.0116040985            0.000603254038           
       1.421845               0.010695923            0.000578826737           
       1.424486               0.011630749            0.000580190411           
       1.427126              0.0104789839            0.000572085574           
       1.429767              0.0104575348            0.000537711825           
       1.432407               0.011838929             0.00059874247           
       1.435047              0.0117758723            0.000560819041           
       1.437688              0.0107413956             0.00054362818           
       1.440328              0.0121204378            0.000589374763           
       1.442968              0.0106147338            0.000563910448           
       1.445609              0.0120056963            0.000580696252           
       1.448249               0.011610041            0.000585506023           
       1.450890              0.0112971522            0.000573792764           
       1.453530              0.0101568649            0.000569200929           
       1.456170              0.0120368147            0.000601378068           
       1.458811              0.0101899015            0.000529096866           
       1.461451              0.0113633127             0.00056019657           
       1.464092              0.0109920874            0.000554572272           
       1.466732              0.0117712422            0.000568959145           
       1.469372              0.0117407733            0.000554924168           
       1.472013              0.0116609287            0.000596458259           
       1.474653              0.0109687035            0.000569559864           
       1.477293              0.0111539645            0.000586455023           
       1.479934              0.0122739161            0.000587023007           
       1.482574              0.0104539337             0.00052406391           
       1.485215               0.011760466            0.000566201578           
       1.487855              0.0103263935             0.00053755728           
       1.490495              0.0112113793            0.000558055657           
       1.493136              0.0119923102            0.000569253122           
       1.495776              0.0109479306            0.000541424632           
       1.498416              0.0117888768            0.000580215863           
       1.501057              0.0112909642            0.000555316593           
       1.503697               0.011099918            0.000538297853           
       1.506338               0.011031287            0.000546437249           
       1.508978              0.0105567284            0.000529297396           
       1.511618              0.0108303813            0.000570958543           
       1.514259              0.0117656259            0.000574541527           
       1.516899              0.0106528896            0.000532302791           
       1.519540              0.0112864836            0.000556739214           
       1.522180             0.00990924747            0.000526248921           
       1.524820               0.010043459            0.000526828281           
       1.527461              0.0104962522            0.000541236577           
       1.530101              0.0101162098            0.000526033799           
       1.532741              0.0114731691            0.000556953216           
       1.535382              0.0111178396             0.00055708716           
       1.538022              0.0105824443            0.000512013309           
       1.540663              0.0120061847            0.000586578465           
       1.543303              0.0111096671            0.000523918418           
       1.545943             0.00981432455            0.000521199414           
       1.548584             0.00992263482            0.000533474821           
       1.551224             0.00974960106            0.000488928274           
       1.553864              0.0104799712            0.000535646266           
       1.556505              0.0103952986            0.000515353569           
       1.559145               0.010375023            0.000521157607           
       1.561786             0.00974399133            0.000505448995           
       1.564426              0.0108034606             0.00051566475           
       1.567066              0.0102976664            0.000527517799           
       1.569707             0.00985252682            0.000506721472           
       1.572347              0.0106352646            0.000543891154           
       1.574988               0.010306073            0.000509618172           
       1.577628             0.00993832752            0.000521839056           
       1.580268             0.00902085501             0.00048170352           
       1.582909             0.00924658076            0.000516935222           
       1.585549             0.00950011901            0.000508762389           
       1.588189              0.0103129839            0.000518512266           
       1.590830              0.0103306322            0.000518304389           
       1.593470             0.00996582309            0.000529227709           
       1.596111              0.0098125649            0.000512702326           
       1.598751             0.00948238789            0.000488361737           
       1.601391              0.0103973606            0.000522663157           
       1.604032             0.00921615291            0.000502366385           
       1.606672             0.00925938826            0.000489240189           
       1.609312              0.0103832734            0.000540816544           
       1.611953             0.00932949415            0.000501649482           
       1.614593             0.00962677823            0.000499856965           
       1.617234             0.00875354561            0.000493986318           
       1.619874             0.00956519044            0.000514340545           
       1.622514             0.00971286559            0.000511225423           
       1.625155             0.00950190021            0.000508630068           
       1.627795             0.00957676313            0.000498118471           
       1.630436             0.00986835377            0.000503004587           
       1.633076             0.00883442211            0.000482167107           
       1.635716             0.00931649426            0.000487443625           
       1.638357             0.00935711496            0.000489792741           
       1.640997              0.0088327646            0.000490286607           
       1.643637              0.0093201194            0.000490089712           
       1.646278             0.00905582876            0.000498269769           
       1.648918              0.0086522558            0.000488369157           
       1.651559             0.00816344622            0.000478055231           
       1.654199             0.00849906768            0.000474412131           
       1.656839             0.00912346814             0.00049170168           
       1.659480             0.00985350632            0.000530184381           
       1.662120             0.00952143756            0.000490860108           
       1.664761             0.00900966557              0.0004959849           
       1.667401             0.00839517539            0.000457603796           
       1.670041             0.00935966597            0.000490542838           
       1.672682             0.00917785944            0.000483758671           
       1.675322             0.00972652682            0.000494806293           
       1.677962             0.00928313425            0.000478064165           
       1.680603              0.0084222134            0.000456758224           
       1.683243             0.00927866236            0.000500185121           
       1.685884             0.00894220774            0.000494658852           
       1.688524              0.0095029926            0.000500076484           
       1.691164             0.00867938885            0.000478023637           
       1.693805             0.00817545858             0.00046903553           
       1.696445             0.00892029494            0.000492777907           
       1.699085             0.00912918726             0.00048181009           
       1.701726             0.00881773098            0.000456153784           
       1.704366             0.00864767478            0.000475889115           
       1.707007             0.00830533389            0.000455978351           
       1.709647             0.00873447517            0.000472891078           
       1.712287              0.0080968578            0.000459266552           
       1.714928             0.00834331516            0.000469962694           
       1.717568             0.00897692804            0.000459209289           
       1.720209             0.00865477617             0.00047228047           
       1.722849             0.00868470304            0.000470664065           
       1.725489               0.008576866            0.000468125595           
       1.728130              0.0089410497            0.000507938451           
       1.730770             0.00782552604            0.000451309351           
       1.733410             0.00851831582            0.000463461347           
       1.736051             0.00899565399             0.00047958483           
       1.738691             0.00787113379            0.000439514842           
       1.741332             0.00910727107            0.000486593118           
       1.743972             0.00829440662            0.000479541256           
       1.746612             0.00809557768             0.00045492917           
       1.749253             0.00836862566            0.000471671853           
       1.751893              0.0086827413            0.000476915859           
       1.754533             0.00859378018            0.000474023295           
       1.757174             0.00864689649            0.000471033273           
       1.759814             0.00835207407            0.000455916342           
       1.762455             0.00859276452             0.00047093035           
       1.765095             0.00871155001            0.000453605295           
       1.767735             0.00843718348            0.000460176688           
       1.770376             0.00849735945            0.000463032287           
       1.773016             0.00787613472            0.000442799417           
       1.775657             0.00896278219            0.000465562076           
       1.778297             0.00849903201            0.000449453803           
       1.780937             0.00872100941            0.000480553553           
       1.783578             0.00911746063            0.000479069026           
       1.786218             0.00787928266            0.000464774689           
       1.788858             0.00843456894            0.000456713511           
       1.791499             0.00861384874            0.000456358253           
       1.794139             0.00886746333            0.000459271087           
       1.796780             0.00844899198            0.000446141988           
       1.799420             0.00966342949            0.000474487297           
       1.802060             0.00952331666            0.000474839563           
       1.804701             0.00881301413            0.000438354885           
       1.807341             0.00924776169            0.000471840005           
       1.809981             0.00911279258            0.000469945759           
       1.812622              0.0100543415            0.000484740003           
       1.815262             0.00840766708            0.000452687597           
       1.817903             0.00785452519            0.000431060051           
       1.820543             0.00833864976            0.000451066712           
       1.823183             0.00891332476            0.000466094478           
       1.825824              0.0101541455            0.000475272414           
       1.828464             0.00915637369            0.000470518544           
       1.831105             0.00797074047            0.000426862395           
       1.833745             0.00827733711            0.000444284785           
       1.836385             0.00806389587            0.000451033815           
       1.839026             0.00910107613             0.00047764883           
       1.841666             0.00947946579            0.000485748605           
       1.844306             0.00869228088            0.000452451363           
       1.846947             0.00876351465              0.0004582838           
       1.849587             0.00761245534            0.000471652513           
       1.852228             0.00805367202            0.000438676338           
       1.854868             0.00903828968            0.000490906823           
       1.857508             0.00835971941            0.000467488842           
       1.860149             0.00767158618            0.000455971471           
       1.862789             0.00869143248            0.000468459603           
       1.865429             0.00829814093             0.00047780833           
       1.868070              0.0091117015            0.000494010013           
       1.870710             0.00872427261            0.000472248865           
       1.873351              0.0078697285              0.0004540693           
       1.875991             0.00827877434            0.000473321082           
       1.878631             0.00826871948            0.000463973925           
       1.881272             0.00804917727             0.00045470581           
       1.883912              0.0075295806            0.000457687996           
       1.886553             0.00794492754            0.000464885858           
       1.889193             0.00850776347            0.000480248891           
       1.891833             0.00817678807            0.000488959453           
       1.894474             0.00816634271            0.000484391421           
       1.897114             0.00812450464            0.000467533205           
       1.899754             0.00810013046            0.000468784619           
       1.902395             0.00842865773            0.000468847362           
       1.905035             0.00830910504            0.000493053539           
       1.907676             0.00800100053            0.000456007328           
       1.910316             0.00758685398            0.000455838879           
       1.912956             0.00843315505            0.000470017842           
       1.915597             0.00867888632            0.000479481391           
       1.918237             0.00796967568            0.000474523903           
       1.920878             0.00836858652            0.000484264159           
       1.923518             0.00847436025            0.000487521714           
       1.926158             0.00805564977            0.000469157099           
       1.928799             0.00773815559            0.000454496279           
       1.931439             0.00817698233            0.000479460029           
       1.934079             0.00805556783            0.000496100621           
       1.936720             0.00871631552            0.000478131331           
       1.939360             0.00746085208            0.000471935454           
       1.942001             0.00773180234            0.000440337334           
       1.944641             0.00724208763             0.00043455874           
       1.947281             0.00814309006            0.000456551262           
       1.949922             0.00807687761            0.000469655932           
       1.952562              0.0073504676            0.000462082769           
       1.955202             0.00682743269            0.000444796428           
       1.957843             0.00730654547            0.000448205836           
       1.960483             0.00786858515            0.000486287679           
       1.963124             0.00729049063            0.000458480555           
       1.965764             0.00834965401               0.000462702           
       1.968404             0.00786019163            0.000444693533           
       1.971045             0.00744984949            0.000441395219           
       1.973685             0.00763755833             0.00046878718           
       1.976326              0.0078234902            0.000467938205           
       1.978966              0.0068661969            0.000442222705           
       1.981606             0.00753544311            0.000472935203           
       1.984247             0.00778847104            0.000477648751           
       1.986887             0.00841052816             0.00049041125           
       1.989527             0.00741260582            0.000455440651           
       1.992168             0.00725763032            0.000467592289           
       1.994808             0.00683188092            0.000451725309           
       1.997449             0.00767509739            0.000468958564           
       2.000089             0.00725673347            0.000454190297           
       2.002729             0.00786402878            0.000473096906           
       2.005370             0.00779743798             0.00046602083           
       2.008010             0.00745686939            0.000475619596           
       2.010650              0.0072661324            0.000473000639           
       2.013291             0.00812904794             0.00048000951           
       2.015931             0.00736573989            0.000453688013           
       2.018572             0.00702108912            0.000473773262           
       2.021212             0.00763693424            0.000485237138           
       2.023852             0.00786929421            0.000466188335           
       2.026493              0.0077781333            0.000484187546           
       2.029133             0.00830496689             0.00049024817           
       2.031774             0.00780392107            0.000498742881           
       2.034414             0.00712497426            0.000438495687           
       2.037054             0.00760407362            0.000464480597           
       2.039695             0.00765838892            0.000462615994           
       2.042335             0.00671655751            0.000450228108           
       2.044975             0.00735422263            0.000465402404           
       2.047616             0.00776161771            0.000476931715           
       2.050256             0.00719223029            0.000463449607           
       2.052897             0.00719962181            0.000472236043           
       2.055537             0.00809487417            0.000483942892           
       2.058177             0.00773628429            0.000463294954           
       2.060818             0.00754477939            0.000479292657           
       2.063458             0.00749483955            0.000497814785           
       2.066098              0.0078199142            0.000479682148           
       2.068739             0.00752092552            0.000477734873           
       2.071379             0.00759223251            0.000492512672           
       2.074020             0.00733869418            0.000473695822           
       2.076660             0.00767044957            0.000488199433           
       2.079300             0.00811226152            0.000514364097           
       2.081941             0.00746339918            0.000451731522           
       2.084581             0.00764336378            0.000482521401           
       2.087222              0.0077214836            0.000467717787           
       2.089862              0.0068167497            0.000478642117           
       2.092502             0.00726366154            0.000478943072           
       2.095143             0.00642209335            0.000465047558           
       2.097783             0.00706466436            0.000472232307           
       2.100423             0.00738448219            0.000465225123           
       2.103064             0.00709834371            0.000473288554           
       2.105704             0.00724475091            0.000475776186           
       2.108345             0.00764261513            0.000469477189           
       2.110985              0.0080660406             0.00051513894           
       2.113625             0.00794384433             0.00051568316           
       2.116266             0.00706344016            0.000493167032           
       2.118906             0.00711244186            0.000461195511           
       2.121546              0.0070738692            0.000451161486           
       2.124187             0.00705754053            0.000473033322           
       2.126827             0.00729956888            0.000486445119           
       2.129468             0.00720966958            0.000484675252           
       2.132108             0.00703438583            0.000465784604           
       2.134748             0.00773063141            0.000486397434           
       2.137389             0.00715196005            0.000488072182           
       2.140029             0.00708537788            0.000434913317           
       2.142670             0.00814068551            0.000498214372           
       2.145310             0.00762967808            0.000469454587           
       2.147950             0.00775837883            0.000487255046           
       2.150591             0.00687236255            0.000453954734           
       2.153231              0.0074084992            0.000485160458           
       2.155871             0.00743580343            0.000469560172           
       2.158512             0.00729590199            0.000485321732           
       2.161152             0.00715715538            0.000465621369           
       2.163793             0.00765568701            0.000479396879           
       2.166433             0.00748089544            0.000486637757           
       2.169073             0.00778422701            0.000485354018           
       2.171714             0.00713089222            0.000461067028           
       2.174354             0.00738027116            0.000490124247           
       2.176995             0.00755998142            0.000493968359           
       2.179635             0.00837413693            0.000549372281           
       2.182275               0.007111305            0.000477987298           
       2.184916              0.0073269622            0.000468621714           
       2.187556             0.00814173687            0.000489039721           
       2.190196             0.00761026746            0.000494078841           
       2.192837             0.00790529136            0.000500824847           
       2.195477             0.00718056352            0.000455064321           
       2.198118             0.00770566961            0.000483489107           
       2.200758             0.00773688812            0.000497034262           
       2.203398             0.00734139886            0.000487261463           
       2.206039             0.00784933964            0.000476838142           
       2.208679             0.00752048907            0.000477605028           
       2.211319             0.00717266198             0.00046911895           
       2.213960             0.00725025883            0.000477969004           
       2.216600             0.00677772255             0.00047806396           
       2.219241             0.00660231726            0.000450948999           
       2.221881             0.00745578381            0.000480195299           
       2.224521             0.00635978823              0.0004489335           
       2.227162             0.00760675144            0.000481145554           
       2.229802             0.00794293907            0.000507053952           
       2.232443             0.00740483685            0.000481855277           
       2.235083             0.00681389129            0.000475862707           
       2.237723             0.00670913385            0.000453135395           
       2.240364             0.00662679382            0.000461440799           
       2.243004             0.00822542823            0.000509991397           
       2.245644             0.00646196891            0.000456553265           
       2.248285             0.00691949723            0.000462975234           
       2.250925             0.00737389893            0.000480838535           
       2.253566             0.00734034414            0.000512882275           
       2.256206              0.0072380301            0.000499111908           
       2.258846             0.00626512069            0.000441732427           
       2.261487             0.00688189466            0.000485925174           
       2.264127             0.00699288135            0.000473067979           
       2.266767             0.00762450996            0.000507131726           
       2.269408             0.00681385145            0.000481377689           
       2.272048             0.00770679416            0.000508892888           
       2.274689             0.00775484225            0.000517202981           
       2.277329             0.00711920332            0.000466595219           
       2.279969             0.00673235484            0.000482981378           
       2.282610             0.00667724225            0.000467622485           
       2.285250             0.00749892847            0.000474318458           
       2.287891              0.0072141358            0.000498790906           
       2.290531             0.00708741463            0.000501036638           
       2.293171             0.00622284736            0.000457319177           
       2.295812             0.00771503486            0.000507159483           
       2.298452             0.00649981762            0.000486796585           
       2.301092             0.00730846587            0.000479604447           
       2.303733             0.00691609372            0.000485377586           
       2.306373             0.00756254419            0.000515548393           
       2.309014             0.00694335219            0.000484355505           
       2.311654             0.00751031033            0.000525679194           
       2.314294             0.00678707768            0.000460400798           
       2.316935             0.00734107404            0.000480800618           
       2.319575             0.00740195838             0.00050585249           
       2.322215             0.00593342875            0.000471999472           
       2.324856             0.00638923006            0.000450314216           
       2.327496             0.00735950942            0.000513898518           
       2.330137             0.00776347946            0.000505078782           
       2.332777             0.00811284931            0.000532379345           
       2.335417             0.00740266149            0.000493363607           
       2.338058              0.0069764885            0.000493258908           
       2.340698             0.00703076232            0.000491282574           
       2.343339             0.00756728414            0.000520899078           
       2.345979             0.00594308135            0.000436734052           
       2.348619             0.00693219219            0.000488920527           
       2.351260             0.00656678706            0.000473087785           
       2.353900             0.00725382339            0.000495645102           
       2.356540             0.00675139324            0.000477493103           
       2.359181             0.00804475502             0.00051391955           
       2.361821             0.00702338233             0.00046384943           
       2.364462             0.00726037598            0.000493245531           
       2.367102             0.00675779534            0.000489030063           
       2.369742             0.00750019552             0.00054227544           
       2.372383             0.00730427653            0.000484573342           
       2.375023             0.00742699522             0.00051365289           
       2.377663             0.00740852636            0.000490516556           
       2.380304             0.00816468945            0.000523527166           
       2.382944             0.00627695824            0.000437214503           
       2.385585             0.00723800023            0.000500722508           
       2.388225             0.00710882217            0.000493902362           
       2.390865              0.0074623011            0.000500834707           
       2.393506             0.00724611726            0.000484215806           
       2.396146             0.00676929678            0.000506036941           
       2.398787             0.00681784996            0.000468021792           
       2.401427             0.00664146607            0.000445867062           
       2.404067              0.0073293927             0.00047883749           
       2.406708             0.00608518934            0.000431073993           
       2.409348             0.00721782634            0.000497976405           
       2.411988             0.00638925836            0.000459048748           
       2.414629             0.00673830805            0.000486102959           
       2.417269             0.00717210326            0.000507361181           
       2.419910             0.00689737228            0.000498703476           
       2.422550             0.00765366751            0.000502607003           
       2.425190             0.00694149572            0.000504549647           
       2.427831             0.00681121016            0.000496982742           
       2.430471             0.00668712058            0.000469139277           
       2.433112             0.00708524419            0.000470232116           
       2.435752              0.0067866534             0.00048705333           
       2.438392             0.00650268001            0.000460165592           
       2.441033             0.00669492837            0.000494839571           
       2.443673             0.00689826297            0.000502684016           
       2.446313             0.00704097642            0.000508305014           
       2.448954              0.0067657718            0.000474424746           
       2.451594             0.00583062251            0.000473553423           
       2.454235              0.0066611623            0.000474905894           
       2.456875             0.00754257395            0.000528777311           
       2.459515             0.00702351659            0.000523467835           
       2.462156             0.00723392521            0.000501574864           
       2.464796             0.00660308657            0.000473023457           
       2.467436             0.00684884861             0.00049818177           
       2.470077             0.00764853323            0.000498991681           
       2.472717             0.00707995884            0.000482166243           
       2.475358             0.00823939587            0.000525574263           
       2.477998              0.0072910667            0.000486069016           
       2.480638             0.00817669885            0.000523890657           
       2.483279             0.00729696663            0.000517255799           
       2.485919             0.00619012402            0.000459133125           
       2.488560              0.0076108802             0.00050768135           
       2.491200             0.00726077873            0.000510612153           
       2.493840             0.00683104178            0.000524061718           
       2.496481             0.00784558903            0.000552444797           
       2.499121             0.00665522177            0.000494900967           
       2.501761             0.00569404771            0.000463835502           
       2.504402             0.00766820287            0.000530405975           
       2.507042             0.00701303209            0.000503483598           
       2.509683             0.00845405535            0.000544347424           
       2.512323             0.00781177446            0.000549554187           
       2.514963             0.00689428651            0.000509895806           
       2.517604             0.00690172021            0.000529380485           
       2.520244             0.00777719828            0.000526832989           
       2.522884             0.00829325692            0.000551811524           
       2.525525               0.011202271            0.000648608756           
       2.528165             0.00771460605            0.000529863107           
       2.530806             0.00737959771            0.000527263598           
       2.533446             0.00696043862            0.000501140688           
       2.536086              0.0077660326            0.000524609757           
       2.538727               0.007968629            0.000509805758           
       2.541367             0.00614505994            0.000452098502           
       2.544008             0.00745323469            0.000514209489           
       2.546648             0.00649150584            0.000488119959           
       2.549288             0.00755454194            0.000537301524           
       2.551929             0.00732551827            0.000520660572           
       2.554569             0.00604186557            0.000455548932           
       2.557209             0.00703337011             0.00049602264           
       2.559850             0.00680826377            0.000489587507           
       2.562490             0.00717782675            0.000519567133           
       2.565131             0.00740211279            0.000547062421           
       2.567771             0.00714275008            0.000518127246           
       2.570411             0.00739994621            0.000521667007           
       2.573052             0.00670638649            0.000502873279           
       2.575692             0.00681548875            0.000503877434           
       2.578332             0.00686987773            0.000507975921           
       2.580973             0.00751943285            0.000526391917           
       2.583613              0.0070976119             0.00049923696           
       2.586254             0.00710225331            0.000498706122           
       2.588894             0.00676239503            0.000505339712           
       2.591534             0.00753168455            0.000552075281           
       2.594175             0.00700765475            0.000522474265           
       2.596815             0.00677910083            0.000516913399           
       2.599456             0.00702224702            0.000498899901           
       2.602096             0.00675715396            0.000493116893           
       2.604736             0.00768960945            0.000538515228           
       2.607377             0.00628926022            0.000474184158           
       2.610017             0.00783416739            0.000519967739           
       2.612657             0.00651484891             0.00050434906           
       2.615298             0.00707377197            0.000513090942           
       2.617938             0.00721019015            0.000554143467           
       2.620579             0.00623930639              0.0004948615           
       2.623219             0.00703494876            0.000524718604           
       2.625859             0.00699267461            0.000508638495           
       2.628500             0.00671453384            0.000495153097           
       2.631140             0.00642909714            0.000491979796           
       2.633780             0.00710707215            0.000516820737           
       2.636421             0.00800454014            0.000561970717           
       2.639061             0.00694593764             0.00049280855           
       2.641702             0.00760982213            0.000527763824           
       2.644342             0.00641731766            0.000486716107           
       2.646982             0.00749201109            0.000518031935           
       2.649623             0.00785409444            0.000555840298           
       2.652263             0.00685574077            0.000514101678           
       2.654904             0.00692039753            0.000517039881           
       2.657544             0.00671528492            0.000479726625           
       2.660184             0.00706312016            0.000520673031           
       2.662825             0.00650287176             0.00051118705           
       2.665465             0.00729720861            0.000523728335           
       2.668105             0.00789893358            0.000574339026           
       2.670746             0.00679613812            0.000492138026           
       2.673386             0.00838633455            0.000563408892           
       2.676027             0.00693059093            0.000503960018           
       2.678667              0.0103477257            0.000600858171           
       2.681307              0.0116920362            0.000627555717           
       2.683948              0.0140301679            0.000706318999           
       2.686588              0.0107137118            0.000606983495           
       2.689229              0.0104528477            0.000585853858           
       2.691869              0.0106693024            0.000625567423           
       2.694509             0.00896246536            0.000573665102           
       2.697150             0.00782120324            0.000527202782           
       2.699790             0.00714149416            0.000528134304           
       2.702430             0.00903164379            0.000567723034           
       2.705071             0.00653731206            0.000499095772           
       2.707711             0.00747322401            0.000517925574           
       2.710352             0.00773786681            0.000556858596           
       2.712992             0.00757649885            0.000561209952           
       2.715632             0.00672433509            0.000490535989           
       2.718273             0.00660267077            0.000503754495           
       2.720913             0.00671487485            0.000506571327           
       2.723553             0.00628570725            0.000493404255           
       2.726194             0.00765900256            0.000569331454           
       2.728834             0.00640059655             0.00052070651           
       2.731475             0.00670049094             0.00049169584           
       2.734115             0.00665958194            0.000505405885           
       2.736755             0.00702783524             0.00052346489           
       2.739396             0.00654347554            0.000502177744           
       2.742036             0.00704974148            0.000545513366           
       2.744677              0.0072279995            0.000535948422           
       2.747317             0.00719669971            0.000530973318           
       2.749957             0.00765888449             0.00055160212           
       2.752598             0.00742119815            0.000548868103           
       2.755238             0.00722378424            0.000551294212           
       2.757878             0.00765859158            0.000562680243           
       2.760519             0.00837001774             0.00058199719           
       2.763159              0.0102241426            0.000636809169           
       2.765800             0.00869029343            0.000559498428           
       2.768440             0.00848274175               0.000556849           
       2.771080             0.00828439228            0.000554893585           
       2.773721             0.00682785347            0.000516752474           
       2.776361              0.0071535352            0.000536230357           
       2.779001             0.00683186384            0.000542691769           
       2.781642             0.00648950526             0.00052502144           
       2.784282             0.00595603532            0.000511249986           
       2.786923             0.00688359183             0.00055445891           
       2.789563             0.00711352284            0.000542854484           
       2.792203             0.00669056729            0.000502927923           
       2.794844             0.00765570555            0.000589618321           
       2.797484             0.00779934683            0.000561651874           
       2.800125             0.00643155594            0.000536297218           
       2.802765             0.00703540412            0.000551259005           
       2.805405             0.00704146686            0.000553363077           
       2.808046             0.00561843338             0.00050298448           
       2.810686             0.00718815322            0.000522776651           
       2.813326              0.0072186347            0.000544170788           
       2.815967             0.00745427991            0.000568704278           
       2.818607             0.00662921224            0.000511785248           
       2.821248             0.00639180064            0.000492104278           
       2.823888             0.00590667783            0.000491049338           
       2.826528             0.00688129253            0.000513293739           
       2.829169             0.00654965916            0.000524530926           
       2.831809             0.00677531518            0.000540746897           
       2.834449              0.0068136108            0.000545699961           
       2.837090             0.00705896831            0.000536465373           
       2.839730             0.00637712826            0.000507408859           
       2.842371             0.00744892984            0.000549185111           
       2.845011              0.0063203855            0.000509907768           
       2.847651             0.00714794441            0.000542929551           
       2.850292             0.00723066427            0.000551421177           
       2.852932             0.00656893266            0.000537037752           
       2.855573             0.00668802886            0.000525642944           
       2.858213             0.00742450777            0.000581587497           
       2.860853             0.00721060595            0.000533159716           
       2.863494             0.00737228828            0.000558167034           
       2.866134             0.00624510088            0.000533955988           
       2.868774             0.00674260843            0.000545271312           
       2.871415             0.00695304779            0.000562339914           
       2.874055             0.00657693817            0.000522786764           
       2.876696             0.00679285217            0.000545669623           
       2.879336             0.00702120241            0.000534687279           
       2.881976             0.00697301121            0.000549597176           
       2.884617             0.00726618186            0.000552792148           
       2.887257             0.00717722962            0.000552233854           
       2.889897             0.00619093048            0.000502332296           
       2.892538              0.0076807108            0.000612953701           
       2.895178             0.00666418772            0.000515818249           
       2.897819             0.00597904785            0.000498402215           
       2.900459             0.00746450128            0.000546050353           
       2.903099             0.00716020532            0.000529330145           
       2.905740             0.00679572849            0.000529023746           
       2.908380             0.00644317267            0.000520971314           
       2.911021             0.00739998132            0.000567392224           
       2.913661             0.00595828785            0.000508977608           
       2.916301             0.00648485089             0.00053149832           
       2.918942             0.00741243596            0.000543536253           
       2.921582             0.00825746284            0.000600236827           
       2.924222             0.00708364212            0.000538598574           
       2.926863             0.00752083391            0.000578065824           
       2.929503             0.00731937826            0.000577027384           
       2.932144             0.00687703376            0.000536912447           
       2.934784             0.00615679274            0.000499689181           
       2.937424              0.0080724168             0.00057804354           
       2.940065             0.00795508871            0.000547377117           
       2.942705              0.0077792623            0.000540615048           
       2.945346             0.00800964545            0.000582162909           
       2.947986             0.00762771172            0.000579279049           
       2.950626             0.00718241087            0.000558950909           
       2.953267             0.00695265074            0.000541052498           
       2.955907              0.0074795243            0.000582145792           
       2.958547             0.00657173731            0.000515146161           
       2.961188             0.00593641651            0.000510802607           
       2.963828             0.00887564264            0.000610958573           
       2.966469              0.0059064912            0.000488927105           
       2.969109             0.00674631504            0.000530273806           
       2.971749             0.00728949906            0.000547769622           
       2.974390             0.00657051252            0.000511048558           
       2.977030             0.00760416858            0.000562065925           
       2.979670             0.00828352258            0.000570616738           
       2.982311              0.0087319409            0.000607212346           
       2.984951             0.00744757466            0.000533351259           
       2.987592             0.00719985267            0.000534909473           
       2.990232             0.00739470271            0.000563777429           
       2.992872             0.00785185219            0.000547215298           
       2.995513             0.00702902296            0.000506529388           
       2.998153               0.010111244            0.000617725521           
       3.000794              0.0121454639            0.000655761612           
       3.003434              0.0118512942             0.00064874954           
       3.006074              0.0474721856             0.00128021729           
       3.008715               0.121841401             0.00197983924           
       3.011355               0.180153167             0.00232153896           
       3.013995               0.094633497             0.00168716467           
       3.016636              0.0588738684             0.00130311906           
       3.019276                0.12818147             0.00189007903           
       3.021917               0.493014774             0.00356425278           
       3.024557                1.66055156              0.0064312396           
       3.027197                1.14520104             0.00520703556           
       3.029838               0.515711833             0.00354380832           
       3.032478               0.260758069             0.00252247524           
       3.035118               0.071329113              0.0013369933           
       3.037759              0.0977908764             0.00156345106           
       3.040399               0.134303869             0.00188998841           
       3.043040               0.527202481             0.00379048293           
       3.045680                0.40164868             0.00311281386           
       3.048320              0.0873490189             0.00148322201           
       3.050961                0.10669904             0.00166818087           
       3.053601                 0.0862097             0.00144418193           
       3.056242              0.0554166927             0.00123107411           
       3.058882               0.046060929             0.00120395364           
       3.061522              0.0338015017             0.00101188975           
       3.064163              0.0426034737             0.00112171924           
       3.066803               0.101940235             0.00182672863           
       3.069443               0.102595227             0.00191735633           
       3.072084              0.0556730092             0.00137531294           
       3.074724              0.0438208191             0.00136264839           
       3.077365              0.0832643999             0.00194440542           
       3.080005              0.0180746792            0.000911058833           
       3.082645              0.0103417135            0.000723957537           
       3.085286              0.0137853012            0.000842438023           
       3.087926             0.00954076567            0.000695442619           
       3.090566              0.0099101453            0.000694464794           
       3.093207              0.0115899331            0.000781512561           
       3.095847               0.008520825              0.0006422757           
       3.098488             0.00803610206            0.000691620578           
       3.101128              0.0105545087            0.000797715878           
       3.103768             0.00911291121            0.000727292885           
       3.106409             0.00914874437            0.000775555573           
       3.109049             0.00899935466            0.000738160742           
       3.111690             0.00794557723            0.000681691342           
       3.114330             0.00682146064            0.000645068322           
       3.116970             0.00805196483            0.000706218944           
       3.119611              0.0123410791            0.000930644362           
       3.122251              0.0218519311             0.00129538158           
       3.124891              0.0340828405              0.0016328538           
       3.127532              0.0240262331             0.00134119014           
       3.130172              0.0138812744             0.00103705651           
       3.132813             0.00974111161            0.000855248893           
       3.135453             0.00817959799            0.000777252375           
       3.138093             0.00622558999            0.000734732809           
       3.140734             0.00642239555            0.000688478397           
       3.143374             0.00782312184            0.000803581952           
       3.146014             0.00572498978            0.000740048045           
       3.148655             0.00660374792            0.000738857112           
       3.151295             0.00684699549            0.000801737868           
       3.153936             0.00586759907             0.00071692902           
       3.156576             0.00613489227            0.000723105361           
       3.159216             0.00636484599            0.000740216735           
       3.161857             0.00551580951            0.000686275492           
       3.164497              0.0079994015            0.000868372858           
       3.167138             0.00765012193            0.000877434262           
       3.169778             0.00679481279            0.000813293594           
       3.172418             0.00695529034             0.00081447196           
       3.175059              0.0065936188            0.000703039784           
       3.177699             0.00611934546            0.000717202212           
       3.180339             0.00617406451            0.000771854537           
       3.182980             0.00669468832            0.000830984492           
       3.185620             0.00600360521            0.000801416969           
       3.188261             0.00666564705            0.000859518907           
       3.190901             0.00476454428            0.000668337395           
       3.193541             0.00598572796            0.000787130271           
       3.196182             0.00652634058            0.000856545618           
       3.198822             0.00662727357            0.000863432954           
       3.201463             0.00630101061            0.000827406234           
       3.204103             0.00655729005            0.000838929585           
       3.206743             0.00546763117             0.00076598833           
       3.209384             0.00700861486            0.000936977358           
       3.212024             0.00599436981            0.000807879895           
       3.214664             0.00478158629            0.000820494956           
       3.217305             0.00621785754            0.000889393557           
       3.219945             0.00577569208            0.000882266743           
       3.222586             0.00683958989            0.000914471832           
       3.225226             0.00632107512            0.000975252581           
       3.227866             0.00577879383            0.000852278738           
       3.230507             0.00619588253            0.000914807473           
       3.233147             0.00786519452             0.00103902413           
       3.235787             0.00645299249            0.000963133089           
       3.238428             0.00669054389             0.00105830004           
       3.241068               0.005965632            0.000934417622           
       3.243709             0.00610024402             0.00097623306           
       3.246349              0.0062232226            0.000898852994           
       3.248989             0.00810198262             0.00121100143           
       3.251630             0.00519806011             0.00093407906           
       3.254270             0.00670824613            0.000948360058           
       3.256911               0.005571307            0.000943009851           
       3.259551             0.00611076632             0.00106325035           
       3.262191             0.00616774834             0.00109110905           
       3.264832             0.00776980576             0.00127956967           
       3.267472             0.00590487911             0.00104644638           
       3.270112             0.00539236526              0.0011051303           
       3.272753             0.00532283354             0.00100500926           
       3.275393             0.00633447951             0.00111867147           
       3.278034             0.00509658818             0.00100399444           
       3.280674             0.00465089066             0.00104074639           
       3.283314             0.00447354489            0.000912877202           
       3.285955             0.00636265309             0.00112329253           
       3.288595             0.00493274294             0.00110035451           
       3.291235             0.00621612903             0.00126980752           
       3.293876              0.0031591219            0.000918242603           
       3.296516             0.00564392509             0.00117827387           
       3.299157             0.00671574037             0.00126914437           
       3.301797             0.00839773474             0.00161886566           
       3.304437             0.00609050085             0.00119444215           
       3.307078             0.00594264992             0.00129968312           
       3.309718             0.00484304634             0.00121104984           
       3.312359             0.00394472053             0.00109323613           
       3.314999             0.00439081987             0.00113561336           
       3.317639             0.00320683954            0.000928165609           
       3.320280             0.00485266693             0.00121393287           
       3.322920             0.00471631084             0.00121689863           
       3.325560             0.00375775471             0.00108695698           
       3.328201             0.00355084613            0.000951603238           
       3.330841             0.00489337252             0.00135958702           
       3.333482              0.0057210107              0.0013895576           
       3.336122             0.00369722525             0.00111757767           
       3.338762             0.00722061959             0.00180412744           
       3.341403             0.00409514785             0.00129826589           
       3.344043             0.00528909695             0.00141653778           
       3.346683             0.00394757384             0.00124937725           
       3.349324             0.00902502333             0.00212395861           
       3.351964              0.0111295002             0.00249416265           
       3.354605             0.00438650394             0.00179077249           
       3.357245             0.00535368354             0.00178470014           
       3.359885             0.00767166361             0.00170989428           
       3.362526             0.00471327904             0.00167603966           
       3.365166             0.00586136707             0.00176288105           
       3.367807            0.000851238784            0.000859785769           
       3.370447             0.00777309993              0.0021551887           
       3.373087             0.00470396907             0.00179286529           
       3.375728             0.00515500958             0.00211821188           
       3.378368             0.00389339285             0.00273205018           
       3.381008             0.00528705094             0.00237361044           
       3.383649              0.0055102441             0.00194389398           
       3.386289           -2.56591232e-05                         0           
       3.388930             0.00484888391              0.0034137515           
       3.391570             0.00235962783             0.00168459402           
       3.394210             0.00968885491             0.00431995968           
       3.396851             0.00236275104             0.00238630661           
       3.399491           -2.57658883e-05                         0           
       3.402131           -2.57874324e-05                         0           
       3.404772             0.00942326428             0.00954017426           
       3.407412                       nan                       nan           
       3.410053             0.00903754593             0.00935438107           
       3.412693                       nan                       nan           
       3.415333           -2.59128484e-05                         0           
