################################################################################
# EDF_DataBlockID                     0.Image.Psd
# EDF_BinarySize                      2105344
# EDF_HeaderSize                      2560
# ByteOrder                           LowByteFirst
# DataType                            FloatValue
# Dim_1                               512
# Dim_2                               1028
# Image                               0
# HeaderID                            EH:000000:000000:000000
# Size                                2105344
# Center_1                            304.9000
# Center_2                            588.7000
# Comment                             Xenocs_Cell_Window - 20251028_20perc_iodine_1.23mg
# DDummy                              0.6
# Date                                2025-11-01T14:31:30
# Delta                               21.910000
# Dummy                               -1.5
# ExposureTime                        360
# Gamma                               15.360000
# Intensity1                          8.67247e-10
# PSize_1                             7.5e-05
# PSize_2                             7.5e-05
# Pressure                            0.0325365
# SampleDistance                      0.115750
# SampleEnvKind                       large
# SampleEnvPN                         ElectroChemical cell
# SampleEnvSN                         1141
# Thickness                           0
# Wavelength                          1.541891e-10
# Wavelength                          1.54189e-10
# aux                                 0
# aux_dial                            0.002375
# beamx                               588.434
# beamx_dial                          588.434
# beamz                               657.808
# beamz_dial                          657.808
# det0x                               0
# det0x_dial                          6.36945
# det0xvd                             0
# det0xvd_dial                        0
# det0y                               450.002
# det0y_dial                          481.635
# det0z                               0
# det0z_dial                          1.23302
# det0zvd                             0
# det0zvd_dial                        0
# mag                                 1.818
# mag_dial                            1.818
# om                                  0.2499
# om_dial                             -0.610199
# phi                                 -0.0120535
# phi_dial                            0
# ry                                  0.599993
# ry_dial                             0.599993
# s1bot                               0.8
# s1bot_dial                          -1.66094
# s1hl                                0.8
# s1hl_dial                           -0.608437
# s1hr                                0.8
# s1hr_dial                           0.970938
# s1top                               0.8
# s1top_dial                          -0.461562
# s2bot                               0.45
# s2bot_dial                          1.36109
# s2hl                                0.45
# s2hl_dial                           -0.83375
# s2hr                                0.45
# s2hr_dial                           -0.118594
# s2top                               0.45
# s2top_dial                          1.44734
# w2theta                             32
# w2theta_dial                        32
# waxsch                              19.2605
# waxsch_dial                         -32.7355
# waxsh                               137.085
# waxsh_dial                          -43.5338
# waxsth                              26.0607
# waxsth_dial                         -19.4086
# waxsz                               67.0407
# waxsz_dial                          -23.7954
# wind                                65.9854
# wind_dial                           66.0041
# wpsi                                124
# wpsi_dial                           124
# wstod                               115
# wstod_dial                          115
# x                                   0
# x_dial                              1.00969
# z                                   0
# z_dial                              13.3172
# CountCutoff                         6807993
# DetectorModel                       Dectris EIGER2 Si 500K, S/N E-01-0554
# ThresholdSetting                    4023.88989258
# Saturation                          0
# FlatField                           Corrected
# BackgroundReductionExtra            0.02
# BackgroundCorrectionConstant        0.0026712
# Detector                            0
# Monitor                             0
# Pil_Roi0                            0
# SumForIntensity1                    3.12209e+08
# TransmittedFlux                     867247
# det                                 0
# mon                                 0
# pilai0                              3.12209e+08
# pilai1                              786404
# pilct0                              5.39557e+08
# pilct1                              786404
# pilroi0                             0
# pilroi1                             0
# sec                                 1
# title                               20251028_20perc_iodine_1.23mg_1_00874.edf
# usaxs0                              0
# Operation                           Azimuthal average I(q)
# Error_model                         ErrorModel.poisson
# Geometrical_correction              True
# Transmission_correction             True
# Thickness_correction                False
# Binning mode                        Uniform
# Binning factor                      1.0
# Psi                                 0.0
# Omega                               0.2499
# MaskInvalidPixels                   True
# DetectorEdge                        3
# MaskFiles                           ['WAXS_corrected.edf']
################################################################################
    q(A⁻¹)                Intensity(a.u.)            Sigma_I(a.u.)            
       0.693100            -2.3411096e-05                         0           
       0.695741              0.0165374936             0.00694680694           
       0.698381             -2.339176e-05                         0           
       0.701021             0.00869170994             0.00872103518           
       0.703662              0.0139972926             0.00638817653           
       0.706302             0.00511030929             0.00298837873           
       0.708942              0.0084280284             0.00495331667           
       0.711583             0.00650341868             0.00376781655           
       0.714223              0.0115520135             0.00579759209           
       0.716864             0.00986937192             0.00350618117           
       0.719504             0.00572788291             0.00288240178           
       0.722144             0.00620508326              0.0027782932           
       0.724785             0.00551074313             0.00208853019           
       0.727425             0.00728580445             0.00324873641           
       0.730065             0.00356750884              0.0016080497           
       0.732706             0.00652962806              0.0018268795           
       0.735346             0.00694961149             0.00245680143           
       0.737987             0.00431262324             0.00136759538           
       0.740627             0.00859658102             0.00288095337           
       0.743267             0.00730297389             0.00177854714           
       0.745908             0.00306239589             0.00124955363           
       0.748548             0.00866284423             0.00193717528           
       0.751189             0.00868644274             0.00261382299           
       0.753829             0.00794294006             0.00229758159           
       0.756469             0.00561162212             0.00155724827           
       0.759110             0.00427567208             0.00143247278           
       0.761750             0.00826312393             0.00176082818           
       0.764390             0.00763683451              0.0017717686           
       0.767031             0.00671046483             0.00143822149           
       0.769671             0.00288939821              0.0011772476           
       0.772312             0.00801015495             0.00149223053           
       0.774952             0.00762864983             0.00196652295           
       0.777592             0.00696885566             0.00136903044           
       0.780233              0.0042931079             0.00129640902           
       0.782873              0.0103738401             0.00192738532           
       0.785513             0.00816165989             0.00182764479           
       0.788154             0.00997772385             0.00169044933           
       0.790794             0.00694457923             0.00168604213           
       0.793435             0.00692548102             0.00151258797           
       0.796075             0.00612797717             0.00137063053           
       0.798715             0.00848679113             0.00190610287           
       0.801356             0.00599773461             0.00137912653           
       0.803996              0.0068920053             0.00150721778           
       0.806637             0.00893258607             0.00136553876           
       0.809277             0.00660178446             0.00127065436           
       0.811917             0.00684463637             0.00120951038           
       0.814558             0.00895442554             0.00143781541           
       0.817198             0.00751295921             0.00125122329           
       0.819838             0.00576427734             0.00110921045           
       0.822479             0.00678614312             0.00141326019           
       0.825119             0.00787413758             0.00129570412           
       0.827760             0.00725052774             0.00125945306           
       0.830400             0.00595566843             0.00107432984           
       0.833040              0.0101801622             0.00147157835           
       0.835681             0.00963906088              0.0016278654           
       0.838321              0.0052241246             0.00100586944           
       0.840961             0.00527557162             0.00110132526           
       0.843602             0.00559729512             0.00104030006           
       0.846242             0.00655267567             0.00112541857           
       0.848883             0.00688330708             0.00118040241           
       0.851523             0.00809437404             0.00126413839           
       0.854163             0.00804720156             0.00134043141           
       0.856804             0.00505089157            0.000954843325           
       0.859444             0.00831209499             0.00120017282           
       0.862085             0.00752915344             0.00119051164           
       0.864725             0.00731122649             0.00120060387           
       0.867365             0.00982615114             0.00129066116           
       0.870006             0.00674733943             0.00101916543           
       0.872646              0.0072929353              0.0011111056           
       0.875286             0.00624692323            0.000989327882           
       0.877927             0.00771234506             0.00106073456           
       0.880567             0.00754176662             0.00108672163           
       0.883208             0.00782960633             0.00109683397           
       0.885848             0.00643136454             0.00103215692           
       0.888488             0.00739871302             0.00103835657           
       0.891129             0.00749644436             0.00107319408           
       0.893769             0.00702242559            0.000994072185           
       0.896410             0.00596833627            0.000854437214           
       0.899050             0.00754513567             0.00105650699           
       0.901690             0.00613524539              0.0010377639           
       0.904331             0.00869968892             0.00109557009           
       0.906971             0.00640265988             0.00099986855           
       0.909611             0.00633687516            0.000905512361           
       0.912252             0.00785926676             0.00104160723           
       0.914892             0.00804412468             0.00115156332           
       0.917533             0.00597500202            0.000938873135           
       0.920173             0.00813085054             0.00101615938           
       0.922813             0.00920406661              0.0011345393           
       0.925454             0.00804429294            0.000955089418           
       0.928094             0.00655842463            0.000920665877           
       0.930734             0.00599623863            0.000947764379           
       0.933375             0.00820593704             0.00109782851           
       0.936015             0.00872013211             0.00102782714           
       0.938656             0.00880970965             0.00110826449           
       0.941296              0.0087134134            0.000998888366           
       0.943936             0.00748889716            0.000908129904           
       0.946577             0.00813577608             0.00094028133           
       0.949217             0.00607202763            0.000746998547           
       0.951858             0.00745606484             0.00086650608           
       0.954498              0.0076868349             0.00101836843           
       0.957138             0.00909420475             0.00104937326           
       0.959779             0.00658073591            0.000879976831           
       0.962419             0.00741365792            0.000927794608           
       0.965059             0.00680064436            0.000934583943           
       0.967700             0.00807724179             0.00104317924           
       0.970340             0.00727431164            0.000876028118           
       0.972981             0.00759745408            0.000815680824           
       0.975621             0.00753453189            0.000864143042           
       0.978261             0.00821928546            0.000857587657           
       0.980902             0.00943956681             0.00109959339           
       0.983542             0.00823338875             0.00090942298           
       0.986182             0.00678695775            0.000810652072           
       0.988823             0.00831717063            0.000871374276           
       0.991463             0.00883752922            0.000958306229           
       0.994104             0.00818583672            0.000899714144           
       0.996744             0.00988513519             0.00100846559           
       0.999384             0.00741357269            0.000781058468           
       1.002025             0.00698458853            0.000846166422           
       1.004665             0.00891872974            0.000873824621           
       1.007306             0.00828889614             0.00083809347           
       1.009946             0.00732286206            0.000803387616           
       1.012586             0.00855033947            0.000845491181           
       1.015227             0.00742953464             0.00084669904           
       1.017867             0.00856585897            0.000873752357           
       1.020507             0.00787698165            0.000811602501           
       1.023148             0.00856006687            0.000912923714           
       1.025788             0.00669577592            0.000740335123           
       1.028429             0.00774198834            0.000834019811           
       1.031069             0.00676258724            0.000733523303           
       1.033709             0.00869192328            0.000883994754           
       1.036350             0.00709425406            0.000717278085           
       1.038990              0.0092574281            0.000834425728           
       1.041630             0.00869108901            0.000843272869           
       1.044271             0.00759063179            0.000741160078           
       1.046911             0.00841770356            0.000820978441           
       1.049552             0.00805313432            0.000843657007           
       1.052192             0.00780797586            0.000758549189           
       1.054832             0.00855853422            0.000801395805           
       1.057473             0.00737971875            0.000733586257           
       1.060113             0.00999011986            0.000832419704           
       1.062754             0.00815029217            0.000767647489           
       1.065394             0.00816581688            0.000812374436           
       1.068034             0.00709375991            0.000688922898           
       1.070675             0.00903882552            0.000811192341           
       1.073315             0.00770850404            0.000759860273           
       1.075955             0.00868183722             0.00076129469           
       1.078596              0.0104896215            0.000889363074           
       1.081236             0.00886078348            0.000782714952           
       1.083877             0.00854713068            0.000761840866           
       1.086517             0.00852282802            0.000815754134           
       1.089157             0.00958321984            0.000897548955           
       1.091798             0.00754406645             0.00069817508           
       1.094438             0.00969713253            0.000789004129           
       1.097078             0.00814656981             0.00069360326           
       1.099719             0.00828637666            0.000756648168           
       1.102359             0.00799637942            0.000696100066           
       1.105000              0.0106982201            0.000900322787           
       1.107640             0.00754018531            0.000722711964           
       1.110280              0.0090493433            0.000722402665           
       1.112921             0.00905694537            0.000776342548           
       1.115561             0.00777031512            0.000683432607           
       1.118202             0.00855544214            0.000717805262           
       1.120842              0.0091792905            0.000781439496           
       1.123482             0.00784225856             0.00071913494           
       1.126123             0.00848500852            0.000717481041           
       1.128763             0.00898405631            0.000743340885           
       1.131403             0.00907350006            0.000719829322           
       1.134044             0.00816263756             0.00070254439           
       1.136684             0.00914042974             0.00079262846           
       1.139325             0.00921148141            0.000733000875           
       1.141965             0.00891883518            0.000726031467           
       1.144605             0.00929597101            0.000706758109           
       1.147246             0.00848359942            0.000690978665           
       1.149886              0.0103513345            0.000760550872           
       1.152527             0.00929469962            0.000731169063           
       1.155167             0.00842844215            0.000662252871           
       1.157807             0.00933716522            0.000747351095           
       1.160448             0.00948143814            0.000735424163           
       1.163088             0.00871797948            0.000672651458           
       1.165728              0.0108896688            0.000771864487           
       1.168369               0.009747276            0.000737002911           
       1.171009              0.0107032401            0.000749494771           
       1.173650             0.00966281991            0.000730821289           
       1.176290              0.0103419667            0.000738847968           
       1.178930             0.00913572959             0.00068059939           
       1.181571             0.00980060464            0.000718909643           
       1.184211              0.0105605303            0.000748906912           
       1.186851               0.008323206            0.000650024178           
       1.189492             0.00881949316             0.00066462153           
       1.192132             0.00962745729            0.000686606732           
       1.194773              0.0102839475            0.000712730912           
       1.197413              0.0103842937            0.000686220735           
       1.200053              0.0083898079             0.00063248214           
       1.202694             0.00965900207            0.000645346222           
       1.205334             0.00985087433            0.000702355003           
       1.207975              0.0113031068            0.000718136453           
       1.210615             0.00942442791            0.000723399096           
       1.213255               0.009610696            0.000654157477           
       1.215896             0.00849282773            0.000626079647           
       1.218536             0.00995579826            0.000651793598           
       1.221176             0.00821186244             0.00064358274           
       1.223817             0.00971934991             0.00065725944           
       1.226457              0.0100691309            0.000682459161           
       1.229098              0.0110458328            0.000714757544           
       1.231738              0.0103125438            0.000694024205           
       1.234378              0.0105253479            0.000658834298           
       1.237019              0.0101498074            0.000666700645           
       1.239659             0.00872781305            0.000612851108           
       1.242299              0.0102018662            0.000654167477           
       1.244940             0.00946690583            0.000612873402           
       1.247580             0.00989443121            0.000645720564           
       1.250221             0.00993063101            0.000642909092           
       1.252861             0.00941774774            0.000596037814           
       1.255501              0.0101518784            0.000671934395           
       1.258142             0.00996167409            0.000625460008           
       1.260782              0.0105322845             0.00065703937           
       1.263423              0.0102857586            0.000623907976           
       1.266063              0.0113685204            0.000672304577           
       1.268703              0.0108367124            0.000650944608           
       1.271344              0.0103128754            0.000656537874           
       1.273984              0.0102143058            0.000631048525           
       1.276624              0.0109107326            0.000639954036           
       1.279265              0.0101130643            0.000626348614           
       1.281905             0.00894189177            0.000591578855           
       1.284546             0.00960985635            0.000592787437           
       1.287186              0.0113365365            0.000631679407           
       1.289826              0.0104297232            0.000638557172           
       1.292467              0.0109577064            0.000640104106           
       1.295107              0.0102941634            0.000614257738           
       1.297747              0.0103342024            0.000588935635           
       1.300388              0.0100742342            0.000633887469           
       1.303028              0.0111950875            0.000637923537           
       1.305669              0.0105386267            0.000633675109           
       1.308309             0.00914061799            0.000584338415           
       1.310949              0.0108913553            0.000637207604           
       1.313590              0.0100687969             0.00059352158           
       1.316230              0.0108503173            0.000657491097           
       1.318871               0.010636436            0.000637553627           
       1.321511              0.0104258145            0.000619510037           
       1.324151             0.00993787307            0.000586908134           
       1.326792              0.0105244545            0.000607714948           
       1.329432              0.0101910487            0.000593791485           
       1.332072              0.0113911608            0.000618425642           
       1.334713              0.0116543526            0.000645608194           
       1.337353              0.0108364419            0.000597029717           
       1.339994              0.0114880204            0.000645084212           
       1.342634              0.0121417893            0.000635953446           
       1.345274              0.0121407203            0.000658123079           
       1.347915              0.0103409319            0.000590613053           
       1.350555              0.0105102037            0.000605855555           
       1.353195              0.0105153275            0.000608979599           
       1.355836              0.0112677774            0.000620561904           
       1.358476               0.012108032            0.000624726447           
       1.361117              0.0107303015            0.000588917944           
       1.363757               0.011690847            0.000633482132           
       1.366397              0.0120707527            0.000624213741           
       1.369038               0.011257184            0.000608813131           
       1.371678              0.0107252469            0.000589015927           
       1.374319              0.0112972096            0.000599312229           
       1.376959              0.0111728821            0.000590011593           
       1.379599              0.0106494872            0.000617325721           
       1.382240              0.0112844818            0.000597240606           
       1.384880              0.0111330753            0.000628355215           
       1.387520              0.0111011413            0.000595911838           
       1.390161              0.0114201578            0.000574047755           
       1.392801               0.010998353            0.000586952712           
       1.395442              0.0120147832            0.000621854216           
       1.398082              0.0097010504            0.000523272087           
       1.400722              0.0111752119            0.000588288806           
       1.403363              0.0111807454            0.000619398737           
       1.406003              0.0114448126            0.000586479455           
       1.408644              0.0113333928            0.000611377454           
       1.411284              0.0103224175            0.000552496393           
       1.413924              0.0121935763             0.00059826177           
       1.416565              0.0103039326            0.000547794777           
       1.419205              0.0105841468            0.000579155328           
       1.421845              0.0110980341            0.000592700199           
       1.424486              0.0112726271            0.000574185037           
       1.427126              0.0110657968            0.000590969886           
       1.429767               0.011975369            0.000578431555           
       1.432407              0.0111647571            0.000584495392           
       1.435047              0.0109714412            0.000544165049           
       1.437688              0.0112637887            0.000559611266           
       1.440328              0.0115464043            0.000578266932           
       1.442968              0.0108516948            0.000573161444           
       1.445609               0.011452649             0.00057013922           
       1.448249              0.0115368034            0.000586718569           
       1.450890              0.0102399339            0.000549150962           
       1.453530              0.0114565419            0.000607694255           
       1.456170              0.0109141564            0.000575651288           
       1.458811              0.0107708582            0.000546824476           
       1.461451              0.0115418329            0.000567541931           
       1.464092              0.0113395139            0.000566223486           
       1.466732              0.0112009845            0.000557918327           
       1.469372              0.0115950548            0.000554363066           
       1.472013             0.00993686511            0.000553491275           
       1.474653              0.0113926432            0.000583507677           
       1.477293              0.0111774322             0.00059015175           
       1.479934              0.0114355565            0.000569593198           
       1.482574              0.0101380512            0.000518793131           
       1.485215              0.0101214468            0.000528022834           
       1.487855              0.0111738214            0.000562113312           
       1.490495              0.0106778015            0.000547471492           
       1.493136              0.0113289045            0.000556186633           
       1.495776              0.0108128611            0.000540897408           
       1.498416              0.0110484531              0.0005646466           
       1.501057              0.0107126933            0.000543747242           
       1.503697               0.010361277            0.000522807728           
       1.506338              0.0105660408            0.000537595893           
       1.508978              0.0103373567            0.000526517039           
       1.511618              0.0113122164            0.000586582564           
       1.514259              0.0109183633            0.000556372012           
       1.516899              0.0117319523            0.000561542681           
       1.519540              0.0105281697            0.000540532137           
       1.522180              0.0106917344            0.000549499825           
       1.524820              0.0108596389            0.000550690663           
       1.527461              0.0103775385            0.000540990679           
       1.530101              0.0110036773            0.000551500935           
       1.532741              0.0119717273            0.000571910439           
       1.535382              0.0112596308            0.000563569676           
       1.538022              0.0109553961            0.000523690737           
       1.540663              0.0105582522             0.00055295809           
       1.543303             0.00980526534            0.000494783736           
       1.545943              0.0103005327            0.000536755063           
       1.548584              0.0111908949            0.000569515339           
       1.551224              0.0110216253            0.000522573216           
       1.553864              0.0103928886            0.000536214766           
       1.556505              0.0100683973            0.000509846652           
       1.559145              0.0107399236            0.000533025197           
       1.561786             0.00918513662            0.000493314975           
       1.564426              0.0106713555            0.000515191144           
       1.567066              0.0101934108            0.000527594267           
       1.569707              0.0107080501            0.000531035173           
       1.572347              0.0109972871            0.000555972388           
       1.574988                0.01073764            0.000522908035           
       1.577628             0.00957624599            0.000514932342           
       1.580268              0.0103812527            0.000519461598           
       1.582909              0.0100420121            0.000541537463           
       1.585549              0.0104898003            0.000537411161           
       1.588189              0.0100294575            0.000514017829           
       1.590830              0.0095054282            0.000499781153           
       1.593470              0.0106449376            0.000549832167           
       1.596111             0.00905797299            0.000495178891           
       1.598751             0.00940950098            0.000489033559           
       1.601391             0.00920594382            0.000494387055           
       1.604032              0.0096176988            0.000515886208           
       1.606672             0.00950783011            0.000498361266           
       1.609312              0.0103493444            0.000542765005           
       1.611953             0.00983774287            0.000517835296           
       1.614593              0.0107078882             0.00052994375           
       1.617234             0.00949941317              0.0005173017           
       1.619874             0.00888694592            0.000498371059           
       1.622514             0.00897067291            0.000493882753           
       1.625155              0.0095178752            0.000511728254           
       1.627795             0.00939171263            0.000495870494           
       1.630436               0.010274466            0.000515943107           
       1.633076             0.00940788657            0.000500180941           
       1.635716             0.00912714546            0.000484996067           
       1.638357             0.00937540918            0.000492843545           
       1.640997             0.00862951369             0.00048715533           
       1.643637             0.00946840917            0.000496564825           
       1.646278             0.00887194427            0.000495772503           
       1.648918             0.00908466113             0.00050304926           
       1.651559             0.00828748669            0.000484200602           
       1.654199             0.00911158675            0.000493787105           
       1.656839             0.00854331395            0.000478307831           
       1.659480             0.00810197031            0.000483280698           
       1.662120             0.00931383544            0.000488026441           
       1.664761              0.0089729212            0.000497569376           
       1.667401             0.00870076045            0.000468301915           
       1.670041             0.00916147568            0.000487867712           
       1.672682             0.00862375344            0.000471388326           
       1.675322             0.00908082393            0.000480608607           
       1.677962             0.00935344776             0.00048238893           
       1.680603             0.00889729425            0.000471927003           
       1.683243             0.00994947309              0.0005206678           
       1.685884               0.008167381            0.000475222956           
       1.688524              0.0082656873            0.000468833157           
       1.691164             0.00839796729            0.000472677015           
       1.693805             0.00938811593            0.000505256022           
       1.696445             0.00893716368            0.000495831453           
       1.699085             0.00884963733            0.000476864689           
       1.701726             0.00891303619            0.000461018433           
       1.704366             0.00914407806             0.00049192473           
       1.707007             0.00819519834             0.00045532134           
       1.709647             0.00946625217             0.00049488506           
       1.712287             0.00787228335            0.000455228576           
       1.714928             0.00811068368            0.000465795607           
       1.717568             0.00830123229             0.00044390565           
       1.720209             0.00867484432            0.000475308419           
       1.722849             0.00817954421            0.000459167037           
       1.725489             0.00885447747            0.000478136765           
       1.728130             0.00921279848            0.000518304784           
       1.730770             0.00753801696            0.000445265158           
       1.733410             0.00789557619            0.000448539981           
       1.736051             0.00958857132            0.000497735495           
       1.738691             0.00803121786            0.000446291071           
       1.741332             0.00840274176            0.000469845352           
       1.743972             0.00832321874            0.000482893729           
       1.746612             0.00880373438            0.000476898464           
       1.749253             0.00827750298            0.000471558045           
       1.751893              0.0086843583            0.000479462666           
       1.754533             0.00895161289            0.000486329715           
       1.757174             0.00831060683            0.000464205648           
       1.759814             0.00771753252            0.000440554682           
       1.762455             0.00857115741             0.00047280554           
       1.765095             0.00870048662            0.000455695528           
       1.767735             0.00875538416            0.000471233402           
       1.770376              0.0086585842            0.000469856585           
       1.773016             0.00854311133            0.000463586842           
       1.775657             0.00881109679             0.00046402754           
       1.778297              0.0096345866            0.000481049165           
       1.780937             0.00834851567            0.000472645627           
       1.783578             0.00918715871            0.000483419705           
       1.786218             0.00830646842            0.000479711284           
       1.788858             0.00871631327            0.000466714641           
       1.791499             0.00944278449            0.000480319173           
       1.794139             0.00845654293            0.000450856598           
       1.796780             0.00828307758            0.000444057398           
       1.799420             0.00899110805            0.000460085084           
       1.802060             0.00956781841            0.000478444804           
       1.804701             0.00801413626            0.000420208249           
       1.807341             0.00946662507            0.000479895447           
       1.809981             0.00859632581            0.000458829171           
       1.812622             0.00924068564            0.000467150416           
       1.815262             0.00930484904              0.0004787272           
       1.817903             0.00927831287            0.000470960962           
       1.820543             0.00857682443            0.000459863317           
       1.823183             0.00920504806            0.000476145538           
       1.825824             0.00849022854            0.000436870986           
       1.828464             0.00841263008            0.000453370734           
       1.831105             0.00793958884            0.000428262615           
       1.833745             0.00799954842            0.000439057551           
       1.836385             0.00830485103            0.000460124297           
       1.839026             0.00799695511            0.000450087829           
       1.841666             0.00841362356            0.000460027468           
       1.844306             0.00916204308            0.000466953662           
       1.846947             0.00832249893            0.000448946734           
       1.849587             0.00882850564            0.000510594308           
       1.852228             0.00810085754            0.000442267812           
       1.854868             0.00835374392            0.000474426692           
       1.857508             0.00853398057            0.000474814333           
       1.860149             0.00838427378            0.000479181903           
       1.862789             0.00742275476            0.000435192716           
       1.865429             0.00889317139            0.000497237919           
       1.868070             0.00838743228            0.000476456349           
       1.870710             0.00869591378            0.000473954354           
       1.873351             0.00772284595            0.000452171876           
       1.875991             0.00880092677             0.00049057976           
       1.878631             0.00874817487            0.000479739821           
       1.881272             0.00876642987            0.000477022358           
       1.883912             0.00769602322            0.000465146663           
       1.886553             0.00731347087            0.000448369155           
       1.889193             0.00819045344            0.000473680205           
       1.891833             0.00781445797            0.000480511185           
       1.894474              0.0083221634            0.000491556402           
       1.897114             0.00858543831            0.000483134273           
       1.899754             0.00797530533            0.000467599031           
       1.902395             0.00929418738            0.000494914952           
       1.905035             0.00788885337            0.000482943688           
       1.907676             0.00869266747            0.000477802921           
       1.910316             0.00821292181            0.000476762338           
       1.912956             0.00775040934            0.000452954124           
       1.915597              0.0076922231            0.000453772621           
       1.918237             0.00794010292            0.000476127682           
       1.920878             0.00751270592            0.000461240106           
       1.923518               0.007176659            0.000450997624           
       1.926158             0.00877898474            0.000492337308           
       1.928799             0.00754036475            0.000451003982           
       1.931439             0.00842209495            0.000489146038           
       1.934079             0.00855293521            0.000513868361           
       1.936720              0.0079533152            0.000459121282           
       1.939360             0.00798638399            0.000490835628           
       1.942001             0.00753146751            0.000436875345           
       1.944641             0.00787660578            0.000455573812           
       1.947281             0.00780381273            0.000449283991           
       1.949922             0.00793775682            0.000468036315           
       1.952562             0.00839251689            0.000496341967           
       1.955202               0.008388997            0.000495632975           
       1.957843             0.00768611272            0.000462112198           
       1.960483             0.00715713374            0.000466215924           
       1.963124             0.00794339595            0.000481081044           
       1.965764             0.00745563793            0.000439523537           
       1.968404             0.00765950393            0.000441282966           
       1.971045             0.00774322896            0.000452363464           
       1.973685              0.0080595569            0.000484090583           
       1.976326             0.00791922542            0.000473262596           
       1.978966             0.00713441256            0.000453142312           
       1.981606             0.00695470391            0.000456729604           
       1.984247             0.00707424713            0.000457609731           
       1.986887             0.00843544938            0.000493714062           
       1.989527             0.00754678331            0.000461955215           
       1.992168             0.00790301156            0.000490499787           
       1.994808             0.00924916516            0.000528357823           
       1.997449             0.00705476962            0.000451966803           
       2.000089             0.00763795978            0.000468412575           
       2.002729             0.00742309618            0.000462053964           
       2.005370             0.00745421498            0.000458039484           
       2.008010             0.00732050308            0.000473723065           
       2.010650             0.00687038058            0.000462352348           
       2.013291             0.00779037782            0.000472369508           
       2.015931             0.00788398887            0.000471839954           
       2.018572             0.00768242822            0.000498184436           
       2.021212             0.00762908948            0.000487532371           
       2.023852             0.00772102397            0.000464198312           
       2.026493             0.00798330392            0.000493105505           
       2.029133             0.00820508477            0.000489847799           
       2.031774             0.00811581831            0.000511280265           
       2.034414             0.00805546243            0.000468696284           
       2.037054             0.00790981082            0.000476211703           
       2.039695             0.00711514334            0.000448245933           
       2.042335             0.00757828939            0.000480747932           
       2.044975             0.00809624481             0.00049087922           
       2.047616             0.00740498794            0.000468289966           
       2.050256             0.00778181019            0.000484600255           
       2.052897             0.00772555222            0.000491746924           
       2.055537             0.00748362888            0.000467754292           
       2.058177              0.0076209512            0.000462241087           
       2.060818             0.00700927156            0.000464393937           
       2.063458             0.00841150987            0.000530146863           
       2.066098             0.00766832266            0.000477502167           
       2.068739             0.00756646003            0.000481692925           
       2.071379             0.00716452043             0.00048094877           
       2.074020             0.00703730732            0.000466300643           
       2.076660             0.00665262117            0.000457041729           
       2.079300             0.00724409007            0.000488612071           
       2.081941             0.00740732565            0.000452392479           
       2.084581             0.00735058182            0.000475672199           
       2.087222             0.00749905905            0.000463350346           
       2.089862             0.00702363006             0.00048839999           
       2.092502             0.00811100045             0.00050876345           
       2.095143             0.00724648831            0.000496587124           
       2.097783              0.0074929357            0.000488887043           
       2.100423             0.00784858741            0.000482138132           
       2.103064             0.00749296586            0.000488817744           
       2.105704             0.00764077546            0.000491170513           
       2.108345             0.00775518098            0.000475403161           
       2.110985             0.00818775327             0.00052173401           
       2.113625              0.0076792402            0.000509682015           
       2.116266             0.00724104664             0.00050194851           
       2.118906             0.00812914743            0.000495645083           
       2.121546             0.00702420981            0.000451933817           
       2.124187             0.00742875356            0.000487860454           
       2.126827             0.00743568072            0.000493535285           
       2.129468              0.0081373885            0.000517616707           
       2.132108             0.00723256721            0.000474778312           
       2.134748             0.00703448247             0.00046641495           
       2.137389             0.00768175819            0.000508480646           
       2.140029             0.00697413549            0.000433749496           
       2.142670             0.00758524208            0.000483440557           
       2.145310              0.0068004523            0.000445535152           
       2.147950             0.00776511502            0.000490024051           
       2.150591             0.00734181253            0.000471665119           
       2.153231             0.00658862095            0.000459928303           
       2.155871             0.00731393286            0.000468139603           
       2.158512             0.00808901584             0.00051370132           
       2.161152             0.00688931771            0.000459222737           
       2.163793             0.00810778028            0.000495937215           
       2.166433             0.00687818184            0.000469070836           
       2.169073             0.00734474516            0.000473927429           
       2.171714             0.00726267962            0.000467749324           
       2.174354             0.00730105424            0.000490044379           
       2.176995             0.00689031056            0.000474057216           
       2.179635             0.00763375687            0.000527276568           
       2.182275             0.00695489512            0.000475181573           
       2.184916             0.00820221248             0.00049842353           
       2.187556             0.00716133323            0.000461057553           
       2.190196             0.00859452387            0.000527812659           
       2.192837             0.00744220431             0.00048848397           
       2.195477              0.0072578058            0.000459905698           
       2.198118             0.00733059355            0.000474049473           
       2.200758             0.00753046969            0.000492931756           
       2.203398             0.00686689922            0.000473724218           
       2.206039             0.00720051629            0.000459101636           
       2.208679             0.00741403545            0.000476700681           
       2.211319             0.00771566799             0.00048910506           
       2.213960             0.00643214087            0.000452557064           
       2.216600             0.00798378225            0.000521580143           
       2.219241             0.00713291263            0.000471178299           
       2.221881             0.00671573054            0.000458131842           
       2.224521             0.00723405402            0.000481309192           
       2.227162             0.00711365902            0.000467730815           
       2.229802             0.00739437143            0.000491798028           
       2.232443             0.00733248449            0.000482011106           
       2.235083             0.00695472613            0.000483277618           
       2.237723             0.00798353346            0.000496895346           
       2.240364             0.00734748489             0.00048843436           
       2.243004             0.00700055665             0.00047295789           
       2.245644             0.00705558099            0.000479565583           
       2.248285             0.00727129442            0.000477088503           
       2.250925             0.00694360991             0.00046904653           
       2.253566             0.00887846559            0.000567023467           
       2.256206             0.00724278092            0.000501895162           
       2.258846             0.00781075404            0.000495808123           
       2.261487             0.00778617422             0.00051957715           
       2.264127             0.00699349707            0.000475570894           
       2.266767             0.00767507706            0.000511480146           
       2.269408             0.00697953843            0.000489751274           
       2.272048             0.00730308773            0.000497983962           
       2.274689              0.0076385451            0.000516003271           
       2.277329             0.00663929069            0.000452958093           
       2.279969             0.00715405728            0.000500490329           
       2.282610             0.00708308241            0.000484150698           
       2.285250             0.00684401453            0.000455510589           
       2.287891             0.00777327724            0.000520476403           
       2.290531             0.00713722792            0.000505432242           
       2.293171             0.00686284103            0.000482780149           
       2.295812             0.00656556236            0.000470309948           
       2.298452             0.00800254059            0.000542979554           
       2.301092             0.00734924508              0.0004834639           
       2.303733             0.00770533405            0.000515012315           
       2.306373             0.00721289602            0.000506130963           
       2.309014             0.00750009313            0.000506040838           
       2.311654             0.00740899388            0.000524860707           
       2.314294             0.00714265545            0.000474785125           
       2.316935             0.00748704856            0.000488104865           
       2.319575             0.00801426025            0.000529120867           
       2.322215             0.00678684951            0.000507452449           
       2.324856             0.00791270789            0.000503763337           
       2.327496             0.00673130406            0.000494054811           
       2.330137             0.00854671953            0.000532725201           
       2.332777             0.00726582162            0.000506465019           
       2.335417             0.00811179008            0.000519163454           
       2.338058             0.00718204518            0.000503098657           
       2.340698             0.00676345131            0.000484380812           
       2.343339             0.00699447642             0.00050342383           
       2.345979             0.00687463149            0.000472181019           
       2.348619              0.0075415652             0.00051263271           
       2.351260             0.00788874489            0.000521244902           
       2.353900             0.00733797439            0.000501127253           
       2.356540             0.00789287956            0.000518992085           
       2.359181             0.00716615704            0.000487589656           
       2.361821             0.00666397388            0.000454195797           
       2.364462             0.00770756647            0.000510875221           
       2.367102             0.00603132826            0.000464421289           
       2.369742             0.00749571548             0.00054495769           
       2.372383             0.00676509617            0.000468792331           
       2.375023             0.00632992861            0.000476689038           
       2.377663             0.00686081786            0.000474513198           
       2.380304             0.00725474324            0.000496081471           
       2.382944             0.00724230918            0.000472096811           
       2.385585             0.00748314149            0.000511802487           
       2.388225             0.00725069315            0.000501423445           
       2.390865             0.00728508991            0.000497448456           
       2.393506             0.00751532748            0.000495715883           
       2.396146             0.00766723629            0.000541380319           
       2.398787             0.00717218244            0.000482548106           
       2.401427             0.00720343429            0.000466783834           
       2.404067             0.00734030462             0.00048170792           
       2.406708               0.007176195            0.000470581106           
       2.409348             0.00774302245            0.000518481669           
       2.411988             0.00720500191            0.000490030631           
       2.414629             0.00655923254            0.000482116443           
       2.417269             0.00637649005            0.000480902913           
       2.419910             0.00726252268             0.00051441889           
       2.422550             0.00647045544            0.000464551387           
       2.425190             0.00716861464            0.000515427504           
       2.427831             0.00696390335            0.000505159042           
       2.430471             0.00695691678            0.000481020092           
       2.433112             0.00708899586            0.000472824349           
       2.435752             0.00696103737            0.000495859068           
       2.438392             0.00753318158            0.000497885827           
       2.441033             0.00665803749             0.00049606338           
       2.443673             0.00759114883            0.000530092368           
       2.446313             0.00703518602            0.000510761715           
       2.448954             0.00796296809            0.000517390851           
       2.451594             0.00737759847            0.000535477986           
       2.454235             0.00622454852             0.00046148658           
       2.456875             0.00710400303            0.000515866337           
       2.459515             0.00760446149            0.000547544629           
       2.462156             0.00819318046            0.000536596225           
       2.464796             0.00706620175            0.000491897703           
       2.467436             0.00794354582              0.0005393353           
       2.470077             0.00809173011            0.000515938001           
       2.472717             0.00779776865            0.000508673607           
       2.475358             0.00747990947               0.000503393           
       2.477998             0.00756276248             0.00049763994           
       2.480638             0.00803808198            0.000522156229           
       2.483279             0.00811798476            0.000548442245           
       2.485919             0.00779769556            0.000518017803           
       2.488560             0.00721917999            0.000497038807           
       2.491200             0.00726286463            0.000513364835           
       2.493840             0.00719159047            0.000540535268           
       2.496481             0.00684088449            0.000518566951           
       2.499121             0.00724667493            0.000519133461           
       2.501761             0.00732581875            0.000528876312           
       2.504402             0.00689514189            0.000505598539           
       2.507042             0.00689468847            0.000501836602           
       2.509683             0.00765012365            0.000520535618           
       2.512323             0.00741665789            0.000538285141           
       2.514963             0.00712227852            0.000520977357           
       2.517604             0.00726004439            0.000545797431           
       2.520244             0.00757938398            0.000522818475           
       2.522884             0.00779585985             0.00053781488           
       2.525525              0.0108951889            0.000643012991           
       2.528165             0.00783730235            0.000536862045           
       2.530806             0.00783392309            0.000546101907           
       2.533446             0.00735279665            0.000517773994           
       2.536086             0.00651413178            0.000482989429           
       2.538727             0.00692003499            0.000477572899           
       2.541367              0.0066812202            0.000473882308           
       2.544008             0.00713265943            0.000505668649           
       2.546648             0.00768040596            0.000533726202           
       2.549288             0.00632354246            0.000494159125           
       2.551929             0.00718668991            0.000518409036           
       2.554569             0.00727656634            0.000502557023           
       2.557209             0.00756845912            0.000517244754           
       2.559850             0.00641893403            0.000477877071           
       2.562490              0.0065360904             0.00049839859           
       2.565131             0.00710985086            0.000538966628           
       2.567771              0.0074485224            0.000531877187           
       2.570411             0.00739181589            0.000524115804           
       2.573052             0.00673470836            0.000506577928           
       2.575692              0.0071170834            0.000517606867           
       2.578332             0.00862479992            0.000572157682           
       2.580973             0.00689537907            0.000506720341           
       2.583613             0.00662777344             0.00048496124           
       2.586254              0.0071897929            0.000504402705           
       2.588894             0.00805219187            0.000554322891           
       2.591534             0.00662502227            0.000520497333           
       2.594175             0.00695936717            0.000523402781           
       2.596815             0.00652599141            0.000509832583           
       2.599456             0.00680831346            0.000493818929           
       2.602096             0.00726202689            0.000513889206           
       2.604736             0.00620373158            0.000486233573           
       2.607377             0.00707705424            0.000505645464           
       2.610017             0.00715371597            0.000499480362           
       2.612657             0.00694668421            0.000523528604           
       2.615298             0.00721119466            0.000520768882           
       2.617938             0.00692375736            0.000545873955           
       2.620579             0.00689745797            0.000523037272           
       2.623219             0.00691813216            0.000523073859           
       2.625859             0.00656624391            0.000495471486           
       2.628500             0.00620235058            0.000478390247           
       2.631140             0.00711330596            0.000520212298           
       2.633780             0.00736672616            0.000528937585           
       2.636421             0.00688895971            0.000524076771           
       2.639061             0.00724367216            0.000505900121           
       2.641702             0.00742262425            0.000523966714           
       2.644342             0.00708320508            0.000514027618           
       2.646982             0.00677323333            0.000495139919           
       2.649623             0.00747504234            0.000545106542           
       2.652263             0.00720143263            0.000529668169           
       2.654904             0.00683226362            0.000516432334           
       2.657544             0.00702188169            0.000493129463           
       2.660184             0.00667647226            0.000508877099           
       2.662825             0.00706527414            0.000535629334           
       2.665465               0.007063455            0.000517975093           
       2.668105             0.00645870825            0.000522070947           
       2.670746             0.00719512267            0.000509034856           
       2.673386             0.00805463655            0.000555051366           
       2.676027             0.00801894783             0.00054493191           
       2.678667               0.010449485            0.000606973256           
       2.681307              0.0120073428            0.000639297882           
       2.683948              0.0144036777            0.000719413773           
       2.686588              0.0121804211            0.000650594894           
       2.689229              0.0100989901            0.000578873344           
       2.691869             0.00992085845            0.000606391821           
       2.694509             0.00839518469            0.000558126199           
       2.697150             0.00713964613            0.000506351204           
       2.699790              0.0087103077            0.000586326035           
       2.702430             0.00692987893            0.000499906212           
       2.705071              0.0068442927            0.000513358982           
       2.707711             0.00678761819            0.000496186169           
       2.710352             0.00720439719            0.000540139233           
       2.712992              0.0073905742            0.000557189302           
       2.715632             0.00640363211            0.000481207053           
       2.718273             0.00636373086            0.000497150192           
       2.720913             0.00635856164            0.000495534255           
       2.723553             0.00731632417            0.000535112235           
       2.726194             0.00732295564            0.000559622115           
       2.728834             0.00714418925            0.000553008557           
       2.731475             0.00691836618            0.000502247276           
       2.734115             0.00668250014            0.000508930988           
       2.736755             0.00721884061            0.000533314135           
       2.739396             0.00601759542            0.000484102481           
       2.742036             0.00683115415             0.00053980691           
       2.744677             0.00698895807            0.000529776577           
       2.747317             0.00775884772            0.000554213649           
       2.749957             0.00631810888             0.00050362736           
       2.752598             0.00638831091            0.000511913516           
       2.755238             0.00759618527             0.00056829184           
       2.757878             0.00810142768            0.000581755619           
       2.760519             0.00879133445            0.000599594577           
       2.763159             0.00883861006              0.0005951966           
       2.765800             0.00786396151             0.00053502606           
       2.768440               0.006971972            0.000507480939           
       2.771080             0.00881230834            0.000575303233           
       2.773721             0.00813942912            0.000567165803           
       2.776361              0.0068984176            0.000529344462           
       2.779001             0.00800402208            0.000590487038           
       2.781642             0.00644288719            0.000525876912           
       2.784282              0.0065881786            0.000540517743           
       2.786923             0.00640098982            0.000537474638           
       2.789563             0.00744433485            0.000558247273           
       2.792203             0.00548892935             0.00045792114           
       2.794844             0.00672755606            0.000555622236           
       2.797484             0.00579660899            0.000486740736           
       2.800125             0.00650635083             0.00054223663           
       2.802765             0.00640900444            0.000528906682           
       2.805405             0.00693651098            0.000552105079           
       2.808046             0.00800681196            0.000603600203           
       2.810686               0.006918573            0.000515570879           
       2.813326             0.00679760838            0.000530833543           
       2.815967             0.00643422717            0.000531134409           
       2.818607              0.0074081127            0.000543855078           
       2.821248              0.0065772324            0.000501810472           
       2.823888             0.00754226115             0.00055779789           
       2.826528              0.0068758053            0.000515780997           
       2.829169             0.00542340956            0.000479811382           
       2.831809             0.00667517299            0.000539551796           
       2.834449             0.00560533485            0.000497552185           
       2.837090             0.00807558501            0.000576807199           
       2.839730             0.00639205195            0.000510667494           
       2.842371              0.0067454571             0.00052535165           
       2.845011             0.00788953717            0.000572688159           
       2.847651             0.00759845049            0.000562714378           
       2.850292             0.00691603782            0.000542120235           
       2.852932             0.00650948323            0.000537406931           
       2.855573             0.00668571451            0.000528309329           
       2.858213             0.00654287761             0.00054883048           
       2.860853             0.00728792017            0.000538822653           
       2.863494             0.00716143833            0.000553013525           
       2.866134             0.00668053561            0.000555154634           
       2.868774             0.00731054834            0.000570750436           
       2.871415             0.00670368988            0.000555061183           
       2.874055             0.00697125955            0.000541054391           
       2.876696             0.00745389084            0.000574602891           
       2.879336             0.00787823947            0.000569352576           
       2.881976             0.00678688645            0.000545057347           
       2.884617             0.00708251019            0.000548624166           
       2.887257             0.00699335936            0.000547974217           
       2.889897             0.00699674402            0.000536826227           
       2.892538             0.00667506543            0.000574417053           
       2.895178             0.00608662174             0.00049554585           
       2.897819             0.00628544987            0.000513694279           
       2.900459             0.00625385282            0.000502433649           
       2.903099             0.00659691299            0.000510748222           
       2.905740             0.00666773723            0.000526767523           
       2.908380             0.00620822594            0.000514067654           
       2.911021             0.00673306127            0.000544060187           
       2.913661             0.00668115928            0.000541796811           
       2.916301             0.00774968319            0.000584072111           
       2.918942             0.00708509098            0.000534187044           
       2.921582             0.00683114629            0.000548805825           
       2.924222               0.007205748            0.000546070888           
       2.926863             0.00755156436            0.000582284668           
       2.929503             0.00752504293            0.000588147717           
       2.932144             0.00838734324            0.000596056871           
       2.934784             0.00758816701             0.00055765258           
       2.937424              0.0067757992            0.000532367607           
       2.940065             0.00723612524            0.000524795084           
       2.942705             0.00714490944            0.000520822673           
       2.945346             0.00710680777            0.000551248938           
       2.947986             0.00734721437            0.000571511058           
       2.950626             0.00667772682            0.000541783113           
       2.953267             0.00762061045            0.000569418636           
       2.955907             0.00700851429            0.000566474482           
       2.958547              0.0075481387            0.000554987117           
       2.961188             0.00683830041            0.000551109131           
       2.963828              0.0083746748            0.000596579645           
       2.966469             0.00691612388            0.000531842834           
       2.969109             0.00652836758            0.000524374738           
       2.971749             0.00561070904            0.000483092807           
       2.974390             0.00744036765            0.000546678932           
       2.977030             0.00815402876            0.000585086536           
       2.979670             0.00778509222            0.000556085349           
       2.982311             0.00831305464            0.000595577267           
       2.984951             0.00780594401            0.000548897438           
       2.987592             0.00711340335            0.000534477956           
       2.990232             0.00743899681            0.000568430153           
       2.992872             0.00741194866            0.000534454785           
       2.995513             0.00741591972            0.000523012746           
       2.998153             0.00998369749            0.000617037488           
       3.000794              0.0103645223            0.000608956371           
       3.003434              0.0110779835            0.000630517472           
       3.006074              0.0450501703             0.00125367478           
       3.008715               0.116565986             0.00194666402           
       3.011355               0.183138791              0.0023529776           
       3.013995              0.0944650121             0.00169450602           
       3.016636              0.0607259724             0.00133040126           
       3.019276               0.120506602             0.00184223638           
       3.021917                0.47375272             0.00351226264           
       3.024557                 1.6525711             0.00644942773           
       3.027197                1.16771222                0.00528555           
       3.029838               0.517053029             0.00356703044           
       3.032478               0.262172421              0.0025425771           
       3.035118              0.0717725323             0.00134817897           
       3.037759               0.094358069             0.00154382205           
       3.040399               0.131175178             0.00187764422           
       3.043040               0.527742833             0.00381232213           
       3.045680               0.404226031             0.00313916912           
       3.048320              0.0870346861             0.00148831865           
       3.050961               0.106715143             0.00167705962           
       3.053601              0.0854140232             0.00144504385           
       3.056242              0.0565651535             0.00125029063           
       3.058882              0.0470033574             0.00122258891           
       3.061522              0.0372265032             0.00106749025           
       3.064163              0.0444728844             0.00115207807           
       3.066803              0.0992108969             0.00181156325           
       3.069443               0.105175916             0.00195150648           
       3.072084              0.0550177545             0.00137436855           
       3.074724              0.0406489623             0.00131929188           
       3.077365              0.0823708084             0.00194409018           
       3.080005              0.0191108315            0.000941723725           
       3.082645               0.010957004            0.000749092325           
       3.085286               0.013202722            0.000828770273           
       3.087926             0.00834835987             0.00065394747           
       3.090566              0.0113891967            0.000748392394           
       3.093207              0.0104705561            0.000746711721           
       3.095847             0.00982914239            0.000693443493           
       3.098488             0.00824175705            0.000704089203           
       3.101128             0.00869619385             0.00072789113           
       3.103768              0.0106052931            0.000788705198           
       3.106409             0.00910662406            0.000777827828           
       3.109049             0.00935108161            0.000756395227           
       3.111690             0.00850836539            0.000709121599           
       3.114330             0.00768808177            0.000688412296           
       3.116970             0.00802036196            0.000708529617           
       3.119611              0.0123300794            0.000935110032           
       3.122251              0.0209919301             0.00127629653           
       3.124891              0.0367047297              0.0017033858           
       3.127532               0.023586076             0.00133582003           
       3.130172              0.0144894783             0.00106509102           
       3.132813             0.00726165045            0.000742298403           
       3.135453             0.00730219334            0.000738236201           
       3.138093             0.00647580255            0.000753283701           
       3.140734             0.00626759712            0.000683698969           
       3.143374             0.00733519436            0.000782201304           
       3.146014             0.00743502771            0.000847786408           
       3.148655             0.00826454668            0.000830897264           
       3.151295             0.00596191364            0.000752051899           
       3.153936             0.00591490073            0.000723589523           
       3.156576             0.00575481493            0.000704022254           
       3.159216             0.00660817884            0.000758190677           
       3.161857             0.00627088013            0.000735581343           
       3.164497             0.00722900386            0.000829830355           
       3.167138             0.00638712075            0.000805945304           
       3.169778             0.00608091316            0.000773420359           
       3.172418             0.00567133855            0.000739322439           
       3.175059             0.00648622469            0.000700949248           
       3.177699             0.00592827375            0.000709620014           
       3.180339             0.00486969769            0.000689086079           
       3.182980             0.00666267612            0.000833344714           
       3.185620             0.00691242891            0.000864451049           
       3.188261             0.00627442156             0.00083828891           
       3.190901             0.00540123423            0.000715326278           
       3.193541             0.00511210326            0.000731240996           
       3.196182               0.006133697            0.000834736464           
       3.198822             0.00475244568            0.000735008476           
       3.201463             0.00568816769            0.000790264502           
       3.204103             0.00695770844              0.0008686984           
       3.206743             0.00574572573            0.000789346321           
       3.209384             0.00707448552             0.00094630912           
       3.212024             0.00693203199            0.000873329055           
       3.214664             0.00483399118            0.000829307207           
       3.217305             0.00551323562            0.000841878595           
       3.219945              0.0068029676            0.000962542003           
       3.222586              0.0044324556             0.00074003131           
       3.225226             0.00639148698            0.000985814457           
       3.227866             0.00481093749            0.000781718711           
       3.230507             0.00573431804            0.000884690982           
       3.233147              0.0056885784            0.000888270765           
       3.235787             0.00566769831            0.000907364287           
       3.238428             0.00386161775            0.000808230689           
       3.241068             0.00576359161            0.000923276935           
       3.243709             0.00600179405            0.000973403823           
       3.246349             0.00497765286            0.000808101476           
       3.248989             0.00529099172            0.000983762217           
       3.251630             0.00457774595            0.000881173499           
       3.254270             0.00717032006             0.00098562254           
       3.256911             0.00482985064            0.000882626842           
       3.259551             0.00767995086             0.00119822814           
       3.262191             0.00466680026             0.00095408493           
       3.264832             0.00340182633            0.000851113583           
       3.267472             0.00615705996             0.00107416442           
       3.270112             0.00636402825             0.00120687552           
       3.272753             0.00712328604             0.00116872251           
       3.275393             0.00557631205             0.00105509903           
       3.278034             0.00599898864             0.00109497235           
       3.280674             0.00871752497             0.00143233974           
       3.283314             0.00563243679             0.00102969172           
       3.285955             0.00499642259             0.00100063554           
       3.288595             0.00573790958             0.00119299282           
       3.291235             0.00836575875             0.00148082299           
       3.293876             0.00373234051             0.00100331538           
       3.296516             0.00670287154             0.00129079915           
       3.299157             0.00677948596             0.00128184365           
       3.301797             0.00471619659             0.00121954627           
       3.304437             0.00569023129             0.00116058291           
       3.307078             0.00542894763             0.00124875668           
       3.309718             0.00426629994             0.00114261782           
       3.312359             0.00429602176             0.00114686339           
       3.314999             0.00383815361             0.00106731215           
       3.317639             0.00464142238             0.00112249651           
       3.320280             0.00518729874             0.00126167545           
       3.322920             0.00765389048             0.00155835683           
       3.325560             0.00410627014             0.00114220616           
       3.328201             0.00613152666             0.00125703361           
       3.330841             0.00451507716             0.00131282868           
       3.333482              0.0088548221             0.00173781159           
       3.336122             0.00678186509             0.00152155246           
       3.338762             0.00541203606             0.00157012025           
       3.341403             0.00499813192             0.00144180095           
       3.344043             0.00495041202             0.00137762389           
       3.346683             0.00640763507             0.00160011038           
       3.349324             0.00505248384             0.00159752236           
       3.351964             0.00559038495             0.00177697122           
       3.354605             0.00889721958             0.00256378087           
       3.357245             0.00658595934             0.00198985316           
       3.359885             0.00618990887             0.00154397124           
       3.362526             0.00541246864             0.00180548136           
       3.365166             0.00371238286             0.00141033578           
       3.367807             0.00260484857             0.00151191852           
       3.370447             0.00661535394              0.0019986526           
       3.373087             0.00343351988             0.00153977694           
       3.375728             0.00702579337             0.00248585014           
       3.378368               0.001942895             0.00194008975           
       3.381008             0.00105156242             0.00106412542           
       3.383649             0.00678453048              0.0021683014           
       3.386289            0.000938157484            0.000954285151           
       3.388930             0.00243112601             0.00242989407           
       3.391570             0.00483723885             0.00242462658           
       3.394210             0.00584391478             0.00337262458           
       3.396851            -2.6022327e-05                         0           
       3.399491           -2.60369622e-05                         0           
       3.402131             0.00474526652             0.00481103753           
       3.404772           -2.60713101e-05                         0           
       3.407412                       nan                       nan           
       3.410053             0.00913262676             0.00945279522           
       3.412693                       nan                       nan           
       3.415333           -2.61854684e-05                         0           
