################################################################################
# EDF_DataBlockID                     0.Image.Psd
# EDF_BinarySize                      2105344
# EDF_HeaderSize                      2560
# ByteOrder                           LowByteFirst
# DataType                            FloatValue
# Dim_1                               512
# Dim_2                               1028
# Image                               0
# HeaderID                            EH:000000:000000:000000
# Size                                2105344
# Center_1                            304.9000
# Center_2                            588.7000
# Comment                             Xenocs_Cell_Window - 20251028_20perc_iodine_1.23mg
# DDummy                              0.6
# Date                                2025-11-01T14:24:52
# Delta                               21.910000
# Dummy                               -1.5
# ExposureTime                        360
# Gamma                               15.360000
# Intensity1                          8.64875e-10
# PSize_1                             7.5e-05
# PSize_2                             7.5e-05
# Pressure                            0.0325346
# SampleDistance                      0.115750
# SampleEnvKind                       large
# SampleEnvPN                         ElectroChemical cell
# SampleEnvSN                         1141
# Thickness                           0
# Wavelength                          1.541891e-10
# Wavelength                          1.54189e-10
# aux                                 0
# aux_dial                            0.002375
# beamx                               588.434
# beamx_dial                          588.434
# beamz                               657.808
# beamz_dial                          657.808
# det0x                               0
# det0x_dial                          6.36945
# det0xvd                             0
# det0xvd_dial                        0
# det0y                               450.002
# det0y_dial                          481.635
# det0z                               0
# det0z_dial                          1.23302
# det0zvd                             0
# det0zvd_dial                        0
# mag                                 1.818
# mag_dial                            1.818
# om                                  0.2499
# om_dial                             -0.610199
# phi                                 -0.0120535
# phi_dial                            0
# ry                                  0.599993
# ry_dial                             0.599993
# s1bot                               0.8
# s1bot_dial                          -1.66094
# s1hl                                0.8
# s1hl_dial                           -0.608437
# s1hr                                0.8
# s1hr_dial                           0.970938
# s1top                               0.8
# s1top_dial                          -0.461562
# s2bot                               0.45
# s2bot_dial                          1.36109
# s2hl                                0.45
# s2hl_dial                           -0.83375
# s2hr                                0.45
# s2hr_dial                           -0.118594
# s2top                               0.45
# s2top_dial                          1.44734
# w2theta                             32
# w2theta_dial                        32
# waxsch                              19.2605
# waxsch_dial                         -32.7355
# waxsh                               137.085
# waxsh_dial                          -43.5338
# waxsth                              26.0607
# waxsth_dial                         -19.4086
# waxsz                               67.0407
# waxsz_dial                          -23.7954
# wind                                65.9854
# wind_dial                           66.0041
# wpsi                                124
# wpsi_dial                           124
# wstod                               115
# wstod_dial                          115
# x                                   0
# x_dial                              1.00969
# z                                   0
# z_dial                              13.3172
# CountCutoff                         6807993
# DetectorModel                       Dectris EIGER2 Si 500K, S/N E-01-0554
# ThresholdSetting                    4023.88989258
# Saturation                          0
# FlatField                           Corrected
# BackgroundReductionExtra            0.02
# BackgroundCorrectionConstant        0.0026712
# Detector                            0
# Monitor                             0
# Pil_Roi0                            0
# SumForIntensity1                    3.11355e+08
# TransmittedFlux                     864875
# det                                 0
# mon                                 0
# pilai0                              3.11355e+08
# pilai1                              785216
# pilct0                              5.38439e+08
# pilct1                              785216
# pilroi0                             0
# pilroi1                             0
# sec                                 1
# title                               20251028_20perc_iodine_1.23mg_1_00873.edf
# usaxs0                              0
# Operation                           Azimuthal average I(q)
# Error_model                         ErrorModel.poisson
# Geometrical_correction              True
# Transmission_correction             True
# Thickness_correction                False
# Binning mode                        Uniform
# Binning factor                      1.0
# Psi                                 0.0
# Omega                               0.2499
# MaskInvalidPixels                   True
# DetectorEdge                        3
# MaskFiles                           ['WAXS_corrected.edf']
################################################################################
    q(A⁻¹)                Intensity(a.u.)            Sigma_I(a.u.)            
       0.693100              0.0122775341             0.00734501981           
       0.695741             0.00558742844             0.00404344093           
       0.698381             0.00422264586              0.0043057648           
       0.701021             0.00871554776             0.00874495343           
       0.703662             0.00836070271             0.00494391518           
       0.706302             0.00698071426             0.00349749181           
       0.708942              0.0085365015               0.004991922           
       0.711583              0.0021857363             0.00218732092           
       0.714223             0.00580795686             0.00411647265           
       0.716864             0.00364610565             0.00213402229           
       0.719504             0.00731328893             0.00326143365           
       0.722144             0.00867404825             0.00328934872           
       0.724785             0.00778347552             0.00248551957           
       0.727425              0.0131269179             0.00436668472           
       0.730065             0.00933765041             0.00260513644           
       0.732706             0.00611280435             0.00177003014           
       0.735346              0.0086778417             0.00274909904           
       0.737987             0.00338810804             0.00121383658           
       0.740627             0.00385043464             0.00193073628           
       0.743267             0.00519757086             0.00150248605           
       0.745908             0.00975753565             0.00223351584           
       0.748548             0.00819406805             0.00188661455           
       0.751189             0.00077119623            0.000779888244           
       0.753829             0.00669631743             0.00211248215           
       0.756469             0.00777542109             0.00183556741           
       0.759110              0.0100621085             0.00220051033           
       0.761750             0.00598815064             0.00150101812           
       0.764390             0.00612606876             0.00158904419           
       0.767031             0.00832491922             0.00160411026           
       0.769671             0.00579539866             0.00166955412           
       0.772312              0.0105536344             0.00171518598           
       0.774952              0.0116872881             0.00243739988           
       0.777592              0.0078146752             0.00145171902           
       0.780233             0.00743830242             0.00170878644           
       0.782873              0.0079137441             0.00168571637           
       0.785513             0.00699957843             0.00169485762           
       0.788154             0.00828786443             0.00154277455           
       0.790794             0.00771077097             0.00177905382           
       0.793435             0.00728292214              0.0015532567           
       0.796075             0.00612647738             0.00137234082           
       0.798715              0.0111253126             0.00218537223           
       0.801356             0.00755457817             0.00154992375           
       0.803996             0.00494969249              0.0012790486           
       0.806637             0.00752827059              0.0012553296           
       0.809277             0.00664142446             0.00127620991           
       0.811917             0.00684431515             0.00121113942           
       0.814558             0.00716701492             0.00128809577           
       0.817198             0.00981224801             0.00143188551           
       0.819838             0.00913304217              0.0013981185           
       0.822479             0.00679385392             0.00141600065           
       0.825119             0.00745134375             0.00126216569           
       0.827760             0.00701922685             0.00124089932           
       0.830400             0.00872984264             0.00130247777           
       0.833040              0.0068165482             0.00120582151           
       0.835681             0.00968756133             0.00163419206           
       0.838321             0.00854862453             0.00128848006           
       0.840961             0.00804077623             0.00136152167           
       0.843602             0.00848283819             0.00128243347           
       0.846242             0.00657325574             0.00112872913           
       0.848883             0.00753693409             0.00123686871           
       0.851523              0.0069181341             0.00117028652           
       0.854163             0.00760369626              0.0013047559           
       0.856804             0.00722378078             0.00114347087           
       0.859444             0.00708470675             0.00110954318           
       0.862085             0.00717578214             0.00116383101           
       0.864725             0.00613851057             0.00110161758           
       0.867365              0.0074828144             0.00112784064           
       0.870006             0.00755583045             0.00107997633           
       0.872646             0.00765988095             0.00114027578           
       0.875286             0.00829128701              0.0011413343           
       0.877927             0.00832831645             0.00110379097           
       0.880567             0.00816792518             0.00113248478           
       0.883208             0.00706408868             0.00104326282           
       0.885848             0.00726112456             0.00109822377           
       0.888488             0.00931555615             0.00116672244           
       0.891129               0.007838769             0.00109892809           
       0.893769             0.00931399485             0.00114640237           
       0.896410             0.00686234152            0.000917454232           
       0.899050             0.00667066076            0.000994759295           
       0.901690             0.00685387092             0.00109836145           
       0.904331             0.00731942659             0.00100628631           
       0.906971             0.00673636903              0.0010269998           
       0.909611             0.00856565541             0.00105422143           
       0.912252             0.00842189271             0.00107972351           
       0.914892             0.00760382075             0.00112113805           
       0.917533             0.00751480944             0.00105436651           
       0.920173             0.00647992367            0.000908392456           
       0.922813             0.00728573517             0.00101079035           
       0.925454             0.00727241729            0.000909356596           
       0.928094             0.00709376135            0.000958816058           
       0.930734             0.00601039707            0.000950182969           
       0.933375             0.00867769193              0.0011304914           
       0.936015             0.00665359795            0.000899045263           
       0.938656             0.00643741457             0.00094866547           
       0.941296             0.00539897399            0.000787359631           
       0.943936             0.00628655267            0.000833182336           
       0.946577             0.00641495934            0.000836084177           
       0.949217             0.00802378836            0.000859879017           
       0.951858             0.00887284348            0.000946548601           
       0.954498              0.0074448617             0.00100358509           
       0.957138             0.00777170358            0.000971405315           
       0.959779             0.00730838932            0.000928623297           
       0.962419             0.00791527291            0.000959982355           
       0.965059             0.00835106662             0.00103707219           
       0.967700             0.00755752566             0.00101044328           
       0.970340             0.00665051086            0.000838772782           
       0.972981             0.00814073665            0.000845498409           
       0.975621             0.00825976577            0.000906016479           
       0.978261             0.00852044518            0.000874354127           
       0.980902             0.00846025021             0.00104241925           
       0.983542             0.00826115918            0.000912203722           
       0.986182             0.00971890777            0.000971405115           
       0.988823             0.00797223787            0.000854283041           
       0.991463             0.00707378999            0.000858538336           
       0.994104             0.00891557595            0.000940248052           
       0.996744             0.00835588907            0.000928454959           
       0.999384              0.0088371065            0.000853924641           
       1.002025             0.00853922023            0.000936891314           
       1.004665             0.00757324521            0.000806322012           
       1.007306             0.00822603739             0.00083605371           
       1.009946             0.00768877893            0.000824343323           
       1.012586             0.00847467942            0.000842895575           
       1.015227             0.00849400988            0.000906565888           
       1.017867             0.00876717252             0.00088517147           
       1.020507             0.00756939673            0.000796689009           
       1.023148             0.00818895379            0.000894138615           
       1.025788             0.00722077735            0.000769865053           
       1.028429             0.00881820862            0.000891322821           
       1.031069             0.00845245443            0.000821189949           
       1.033709              0.0105478523            0.000975143425           
       1.036350             0.00835292948            0.000779378339           
       1.038990             0.00842718863            0.000797220763           
       1.041630             0.00855273208            0.000837680091           
       1.044271             0.00848052135            0.000784474919           
       1.046911             0.00996778284            0.000894600125           
       1.049552             0.00833562062            0.000859502507           
       1.052192             0.00657959801            0.000697282762           
       1.054832             0.00851207953            0.000800313121           
       1.057473             0.00717568769            0.000724365532           
       1.060113             0.00779196651            0.000736165181           
       1.062754             0.00840751537            0.000780735291           
       1.065394             0.00678775525             0.00074167604           
       1.068034             0.00722631753            0.000696282739           
       1.070675             0.00782694927            0.000755890402           
       1.073315             0.00940332679              0.0008403964           
       1.075955             0.00943925055            0.000794896289           
       1.078596             0.00794545937            0.000775092299           
       1.081236             0.00936815516            0.000805915181           
       1.083877             0.00912018696            0.000788044414           
       1.086517             0.00696185946            0.000738286247           
       1.089157             0.00885509984             0.00086396049           
       1.091798             0.00924607058            0.000773989241           
       1.094438             0.00886859224            0.000755578664           
       1.097078             0.00829090136            0.000700679384           
       1.099719             0.00914941642            0.000796164994           
       1.102359             0.00936708985             0.00075443539           
       1.105000             0.00972067831            0.000859380499           
       1.107640             0.00895711291            0.000788774733           
       1.110280             0.00930395084             0.00073349852           
       1.112921             0.00827774672            0.000743213026           
       1.115561               0.008821815            0.000729205749           
       1.118202             0.00949937837            0.000757404242           
       1.120842             0.00839371361             0.00074827736           
       1.123482             0.00911431251            0.000776330236           
       1.126123             0.00923320316             0.00074947166           
       1.128763             0.00881893699            0.000737487458           
       1.131403             0.00892226526            0.000714783316           
       1.134044               0.010021512            0.000779506731           
       1.136684              0.0087563434            0.000776859495           
       1.139325             0.00759619234            0.000666549583           
       1.141965              0.0087673247            0.000720824687           
       1.144605             0.00748790629            0.000635182247           
       1.147246             0.00891164367            0.000709166479           
       1.149886             0.00976379693            0.000739663515           
       1.152527             0.00881579789            0.000713059338           
       1.155167             0.00898229832            0.000684602788           
       1.157807             0.00924065009            0.000744497335           
       1.160448             0.00899129407            0.000717144413           
       1.163088             0.00906124931            0.000686706152           
       1.165728              0.0093373644            0.000715715809           
       1.168369              0.0114408272            0.000799559919           
       1.171009             0.00823085796             0.00065815511           
       1.173650              0.0103647275            0.000757936676           
       1.176290             0.00852412307            0.000671696528           
       1.178930             0.00930950667            0.000687983468           
       1.181571             0.00972524176            0.000717121608           
       1.184211              0.0087786582            0.000683744391           
       1.186851             0.00931503486            0.000688606571           
       1.189492             0.00844767216            0.000651352146           
       1.192132              0.0102138028            0.000708175214           
       1.194773             0.00978643934            0.000696230035           
       1.197413              0.0112332884            0.000714699604           
       1.200053             0.00960351255             0.00067761349           
       1.202694             0.00941016967            0.000637852263           
       1.205334              0.0102459384            0.000717281934           
       1.207975             0.00972520648            0.000667040499           
       1.210615             0.00908430888            0.000711199005           
       1.213255              0.0109229612            0.000698344659           
       1.215896              0.0101213169            0.000684410511           
       1.218536              0.0116618625            0.000706400075           
       1.221176             0.00996021363            0.000709761787           
       1.223817             0.00985282389            0.000662663905           
       1.226457              0.0105186628            0.000698482728           
       1.229098             0.00918342578            0.000652614332           
       1.231738              0.0110455941            0.000719251845           
       1.234378              0.0092344537            0.000617957069           
       1.237019             0.00942564675            0.000643357379           
       1.239659             0.00901845803            0.000623825515           
       1.242299             0.00974318408            0.000640168533           
       1.244940              0.0101757486            0.000636274709           
       1.247580              0.0109402625            0.000679919981           
       1.250221              0.0107976435            0.000671305754           
       1.252861             0.00993985602            0.000613175882           
       1.255501             0.00978909135            0.000660723253           
       1.258142             0.00960007497            0.000614844688           
       1.260782             0.00993681439            0.000639069989           
       1.263423              0.0101718853            0.000621294962           
       1.266063              0.0111644745             0.00066715688           
       1.268703              0.0109934446            0.000656533494           
       1.271344             0.00937093373            0.000626694761           
       1.273984              0.0104614229            0.000639511617           
       1.276624             0.00984526581            0.000608737816           
       1.279265              0.0100696888             0.00062586043           
       1.281905              0.0105408096            0.000643175737           
       1.284546              0.0108462976             0.00063063204           
       1.287186              0.0098753319             0.00059037384           
       1.289826             0.00915981313            0.000599240881           
       1.292467             0.00998047023            0.000611731743           
       1.295107              0.0103152405             0.00061572887           
       1.297747              0.0100946515            0.000582867376           
       1.300388              0.0103743865            0.000644142698           
       1.303028              0.0123527906            0.000671014881           
       1.305669              0.0107680802             0.00064141411           
       1.308309              0.0107091242            0.000633356698           
       1.310949             0.00992501817            0.000609116513           
       1.313590              0.0114244863            0.000633083211           
       1.316230              0.0106552209            0.000652446068           
       1.318871              0.0109421824            0.000647538153           
       1.321511              0.0105218741            0.000623210311           
       1.324151              0.0105450783            0.000605400872           
       1.326792              0.0115317122              0.0006370034           
       1.329432              0.0110162787            0.000618210981           
       1.332072              0.0105854094            0.000596969384           
       1.334713              0.0106252685            0.000617290571           
       1.337353              0.0107413289            0.000595218382           
       1.339994              0.0113097656            0.000640937006           
       1.342634              0.0118506855            0.000629144562           
       1.345274              0.0128629168            0.000678343013           
       1.347915              0.0113303819            0.000619070637           
       1.350555              0.0113324017            0.000629969086           
       1.353195              0.0105405809            0.000610545938           
       1.355836              0.0115820787            0.000630019466           
       1.358476              0.0117939589            0.000617415671           
       1.361117              0.0102053614            0.000575119046           
       1.363757              0.0116457322            0.000633125073           
       1.366397              0.0112285941            0.000602869859           
       1.369038              0.0113360591            0.000611779488           
       1.371678              0.0122146289            0.000629445681           
       1.374319               0.011312752            0.000600546183           
       1.376959              0.0107063965            0.000578354782           
       1.379599              0.0115863955            0.000644790945           
       1.382240              0.0115971091            0.000606286809           
       1.384880              0.0117929307            0.000647594653           
       1.387520              0.0111033582            0.000596788031           
       1.390161               0.011304781            0.000571923284           
       1.392801              0.0105083889            0.000574515944           
       1.395442              0.0114649046            0.000608289847           
       1.398082              0.0115809682            0.000572513003           
       1.400722              0.0126346773            0.000626382346           
       1.403363              0.0123125049            0.000650882921           
       1.406003              0.0125392411            0.000614722087           
       1.408644               0.011000618            0.000603160262           
       1.411284              0.0113880908            0.000581110776           
       1.413924              0.0120223378            0.000594860177           
       1.416565              0.0109423832            0.000565284495           
       1.419205              0.0114039669            0.000601990774           
       1.421845              0.0108160542            0.000585923888           
       1.424486              0.0110076352            0.000568173593           
       1.427126              0.0124303179            0.000627205495           
       1.429767              0.0117780792            0.000574433146           
       1.432407              0.0115955235            0.000596480655           
       1.435047              0.0114325863            0.000556244563           
       1.437688              0.0109743562            0.000553131585           
       1.440328              0.0115839834            0.000580000906           
       1.442968              0.0117797472            0.000597985839           
       1.445609              0.0106356926            0.000550180966           
       1.448249               0.011598917            0.000589102056           
       1.450890              0.0107709794            0.000563982334           
       1.453530              0.0109461801            0.000594818385           
       1.456170              0.0117215424            0.000597381139           
       1.458811              0.0108699323            0.000550086444           
       1.461451              0.0109297536             0.00055304501           
       1.464092              0.0102560332            0.000539231307           
       1.466732              0.0121866859            0.000582747033           
       1.469372             0.00969700929            0.000507658336           
       1.472013              0.0119638622            0.000608158126           
       1.474653              0.0107915452            0.000568683823           
       1.477293              0.0104627489            0.000571755446           
       1.479934              0.0102134479            0.000539035122           
       1.482574              0.0107959888            0.000536096439           
       1.485215              0.0107634769            0.000545258481           
       1.487855              0.0108839823             0.00055553529           
       1.490495               0.010622883            0.000546810088           
       1.493136              0.0103970719            0.000533552115           
       1.495776             0.00991274217            0.000518604432           
       1.498416              0.0111874712            0.000568966474           
       1.501057              0.0105738485            0.000540952339           
       1.503697               0.011473465            0.000550905852           
       1.506338              0.0109278195            0.000547471213           
       1.508978              0.0112343037            0.000549636404           
       1.511618              0.0109222079            0.000577171991           
       1.514259              0.0101229972            0.000536458083           
       1.516899              0.0110592249            0.000545952303           
       1.519540              0.0100550574            0.000528971277           
       1.522180              0.0109840333            0.000557723737           
       1.524820              0.0109173285            0.000552908086           
       1.527461              0.0103491045            0.000540989359           
       1.530101              0.0105908832            0.000541798941           
       1.532741              0.0106133719            0.000539226265           
       1.535382              0.0102740174            0.000539076527           
       1.538022              0.0108966439            0.000523000329           
       1.540663              0.0110306188            0.000565966688           
       1.543303              0.0107621686            0.000519075303           
       1.545943                0.01133395            0.000563808585           
       1.548584              0.0110227769            0.000565995864           
       1.551224              0.0100856076            0.000500576077           
       1.553864              0.0105914693            0.000542055143           
       1.556505             0.00990364705            0.000506351041           
       1.559145              0.0104036528            0.000525333141           
       1.561786              0.0108847136             0.00053775533           
       1.564426             0.00991362324            0.000497243976           
       1.567066              0.0100202795            0.000523811407           
       1.569707              0.0107080778             0.00053176357           
       1.572347              0.0109936518            0.000556642245           
       1.574988              0.0110826904            0.000531971331           
       1.577628             0.00995940738            0.000525852572           
       1.580268              0.0111663036            0.000539483308           
       1.582909              0.0094555997            0.000526207952           
       1.585549              0.0105764827             0.00054036652           
       1.588189              0.0103858357            0.000523787242           
       1.590830             0.00937055677             0.00049690282           
       1.593470             0.00935618126            0.000516181729           
       1.596111              0.0096904762            0.000512877803           
       1.598751             0.00965086356            0.000495944623           
       1.601391             0.00891382748             0.00048714671           
       1.604032             0.00992122934            0.000524681567           
       1.606672             0.00898720919            0.000485188759           
       1.609312              0.0094139982            0.000518366833           
       1.611953              0.0100609793            0.000524395282           
       1.614593             0.00846816188            0.000471918679           
       1.617234             0.00933263543            0.000513443191           
       1.619874              0.0101522266             0.00053339867           
       1.622514             0.00937492744            0.000505580178           
       1.625155             0.00931823632            0.000507026881           
       1.627795             0.00878690214            0.000480295475           
       1.630436             0.00937586998            0.000493540396           
       1.633076             0.00959927331            0.000505935336           
       1.635716             0.00924034679            0.000488663158           
       1.638357             0.00948854859            0.000496487801           
       1.640997             0.00900852307            0.000498420419           
       1.643637             0.00936760574            0.000494591305           
       1.646278             0.00831199751            0.000480529956           
       1.648918             0.00960862959            0.000518061843           
       1.651559             0.00975369267            0.000526008991           
       1.654199             0.00851289899            0.000477943114           
       1.656839             0.00896294208            0.000490585078           
       1.659480             0.00935312848            0.000519968827           
       1.662120             0.00957221365            0.000495427369           
       1.664761             0.00939059262            0.000509715625           
       1.667401             0.00907044617            0.000478802472           
       1.670041             0.00914517541            0.000488101465           
       1.672682             0.00881115517            0.000477135591           
       1.675322             0.00849145943             0.00046538761           
       1.677962             0.00872854225            0.000466634733           
       1.680603             0.00876244441             0.00046897881           
       1.683243             0.00813594643            0.000471475848           
       1.685884             0.00858701456            0.000487946081           
       1.688524              0.0083992541            0.000473253597           
       1.691164             0.00826611413            0.000469594309           
       1.693805             0.00832245237            0.000476368096           
       1.696445             0.00883093951            0.000493551417           
       1.699085             0.00907714247            0.000483617197           
       1.701726              0.0090628812            0.000465514625           
       1.704366             0.00773428319            0.000453036778           
       1.707007             0.00908221429            0.000479986336           
       1.709647             0.00968472362            0.000501249157           
       1.712287             0.00898337663            0.000486960453           
       1.714928              0.0082352758            0.000470002818           
       1.717568             0.00899516582            0.000462720464           
       1.720209             0.00890897373            0.000482339948           
       1.722849             0.00868903432            0.000473899923           
       1.725489             0.00830677369            0.000463747511           
       1.728130             0.00895239297            0.000511627326           
       1.730770             0.00891164984             0.00048480149           
       1.733410             0.00866712438            0.000470588697           
       1.736051              0.0090145855            0.000483269374           
       1.738691             0.00902591317            0.000473770266           
       1.741332             0.00853421923            0.000474155787           
       1.743972             0.00854286628            0.000489894368           
       1.746612             0.00917696299            0.000487569668           
       1.749253             0.00818700546            0.000469615862           
       1.751893             0.00895063109            0.000487424651           
       1.754533             0.00913080024             0.00049184619           
       1.757174             0.00891687068            0.000481498588           
       1.759814             0.00814186125            0.000453124105           
       1.762455             0.00744301595            0.000441196468           
       1.765095             0.00875166355            0.000457660081           
       1.767735             0.00797306949             0.00045030417           
       1.770376             0.00820027677            0.000457879144           
       1.773016             0.00814097421            0.000453164612           
       1.775657              0.0094310577            0.000480732742           
       1.778297             0.00873011368            0.000458540398           
       1.780937             0.00894030722            0.000489781034           
       1.783578             0.00844106914             0.00046400985           
       1.786218             0.00905316743            0.000501495144           
       1.788858             0.00851295319            0.000461870116           
       1.791499             0.00833434813              0.0004518668           
       1.794139             0.00981125378            0.000486294085           
       1.796780             0.00837638863             0.00044716354           
       1.799420             0.00877729482            0.000455204576           
       1.802060              0.0091383012             0.00046822311           
       1.804701             0.00863841256            0.000436865667           
       1.807341             0.00889596777            0.000465843857           
       1.809981             0.00928505369            0.000477508964           
       1.812622              0.0104745472            0.000498043186           
       1.815262             0.00851128008            0.000458485505           
       1.817903             0.00867513524             0.00045601934           
       1.820543             0.00892119415            0.000469647196           
       1.823183             0.00851933535            0.000458695286           
       1.825824             0.00877563894            0.000444761941           
       1.828464             0.00810295669            0.000445557826           
       1.831105             0.00799799736            0.000430424038           
       1.833745              0.0076833469            0.000430882312           
       1.836385             0.00801255535            0.000452573892           
       1.839026             0.00873830695            0.000471132777           
       1.841666             0.00790021216            0.000446381651           
       1.844306             0.00753681032            0.000424097922           
       1.846947              0.0081792887            0.000445677227           
       1.849587             0.00680659011            0.000448943719           
       1.852228             0.00856686911            0.000455434192           
       1.854868             0.00842788296            0.000477180311           
       1.857508             0.00823596066            0.000467089235           
       1.860149             0.00803594947            0.000469765385           
       1.862789             0.00754313764            0.000439308706           
       1.865429             0.00793821971            0.000470426955           
       1.868070             0.00745351034            0.000449763042           
       1.870710             0.00913101967             0.00048633248           
       1.873351             0.00763425919            0.000450187096           
       1.875991             0.00729401601            0.000447222361           
       1.878631             0.00787702806            0.000455851059           
       1.881272             0.00847143632            0.000469570289           
       1.883912             0.00760380586            0.000462985049           
       1.886553             0.00748709448            0.000454281811           
       1.889193             0.00747608636            0.000453172084           
       1.891833             0.00843038485             0.00049977267           
       1.894474             0.00782519752            0.000477306802           
       1.897114             0.00826446734            0.000474666712           
       1.899754             0.00832845013              0.0004784943           
       1.902395             0.00810491785            0.000462800589           
       1.905035             0.00728521661            0.000464735146           
       1.907676             0.00887228087            0.000483375506           
       1.910316             0.00865703377            0.000490153811           
       1.912956             0.00750366953            0.000446296497           
       1.915597             0.00831497644            0.000472430138           
       1.918237             0.00831860462            0.000488011817           
       1.920878             0.00768279795            0.000467071433           
       1.923518             0.00849021963            0.000491210105           
       1.926158             0.00685590367             0.00043568006           
       1.928799             0.00791487984            0.000462701698           
       1.931439             0.00795851874            0.000476145108           
       1.934079             0.00726175705            0.000474143582           
       1.936720             0.00765110806            0.000450931139           
       1.939360             0.00815888882            0.000496788146           
       1.942001             0.00722275412            0.000428414222           
       1.944641              0.0076777635            0.000450403019           
       1.947281             0.00825278943            0.000462660729           
       1.949922              0.0083086924            0.000479503441           
       1.952562              0.0081449859            0.000489637628           
       1.955202             0.00810052606            0.000487704223           
       1.957843             0.00812929262             0.00047589941           
       1.960483                0.00867358            0.000513938867           
       1.963124             0.00847054457            0.000497468443           
       1.965764             0.00887723338            0.000480256535           
       1.968404             0.00800684703            0.000451795956           
       1.971045             0.00845350998            0.000473303523           
       1.973685             0.00843287017            0.000495853622           
       1.976326             0.00839247347            0.000487865996           
       1.978966             0.00802406992            0.000481224344           
       1.981606             0.00745105307            0.000473394709           
       1.984247             0.00848137556            0.000501744957           
       1.986887             0.00795572422            0.000480126831           
       1.989527             0.00767921462            0.000466629368           
       1.992168             0.00686701267            0.000457847841           
       1.994808             0.00786398453            0.000487857439           
       1.997449             0.00673244577            0.000442126231           
       2.000089             0.00905367372             0.00051067784           
       2.002729             0.00682844486            0.000443767805           
       2.005370             0.00769276997            0.000465948657           
       2.008010             0.00795734816            0.000494575932           
       2.010650             0.00764004159              0.0004882309           
       2.013291              0.0076418305            0.000468485363           
       2.015931             0.00741599051            0.000458248472           
       2.018572             0.00701794105            0.000476804657           
       2.021212             0.00786979395            0.000495842233           
       2.023852             0.00796358718            0.000472079571           
       2.026493             0.00754152258            0.000479924332           
       2.029133             0.00729663832            0.000462568192           
       2.031774             0.00782452407            0.000502708893           
       2.034414             0.00758581416            0.000455451464           
       2.037054             0.00827329837            0.000487698131           
       2.039695             0.00807574818            0.000478201183           
       2.042335             0.00729627424            0.000472364376           
       2.044975             0.00784873989             0.00048398013           
       2.047616             0.00751161085            0.000472295651           
       2.050256             0.00728386404            0.000469482024           
       2.052897              0.0077474843            0.000493119264           
       2.055537             0.00744440454            0.000467166158           
       2.058177             0.00738849808             0.00045576059           
       2.060818             0.00807599083            0.000499163405           
       2.063458             0.00696243497            0.000482985979           
       2.066098             0.00696603899            0.000455735479           
       2.068739             0.00790544077            0.000493039453           
       2.071379             0.00743582121              0.0004906417           
       2.074020             0.00786233127            0.000493552272           
       2.076660             0.00740263612            0.000482777909           
       2.079300             0.00682987961            0.000475087415           
       2.081941             0.00828951224            0.000479229868           
       2.084581             0.00773748837            0.000488699222           
       2.087222             0.00714699783             0.00045296293           
       2.089862             0.00750804928             0.00050565362           
       2.092502             0.00780890729            0.000499883217           
       2.095143             0.00674385479            0.000479711902           
       2.097783             0.00784110002            0.000500801651           
       2.100423             0.00766775853            0.000477204661           
       2.103064             0.00655991626            0.000457998404           
       2.105704              0.0077848584            0.000496459308           
       2.108345             0.00713770234            0.000456709498           
       2.110985             0.00733525966            0.000494503365           
       2.113625             0.00737397749            0.000500133354           
       2.116266             0.00883302566            0.000555146971           
       2.118906             0.00809465883            0.000495270326           
       2.121546             0.00899917635            0.000512238497           
       2.124187             0.00780376194            0.000500707824           
       2.126827             0.00669572876             0.00046897695           
       2.129468             0.00717166503            0.000486598191           
       2.132108              0.0075058795            0.000484328648           
       2.134748             0.00733211819            0.000476832498           
       2.137389             0.00728828259            0.000495965474           
       2.140029             0.00756337126            0.000452320461           
       2.142670             0.00825221299            0.000504938289           
       2.145310             0.00678868312            0.000445759467           
       2.147950             0.00707157507            0.000468269918           
       2.150591             0.00696735701            0.000460109158           
       2.153231             0.00758005429            0.000493996377           
       2.155871             0.00678485885            0.000451507572           
       2.158512             0.00722511541             0.00048616083           
       2.161152             0.00644027718            0.000444613134           
       2.163793             0.00837212657            0.000504647745           
       2.166433             0.00721428961            0.000481053216           
       2.169073              0.0081084597            0.000498640319           
       2.171714             0.00748329726            0.000475451208           
       2.174354             0.00786243458            0.000509232225           
       2.176995              0.0071420985            0.000483302467           
       2.179635             0.00709657279            0.000509082739           
       2.182275             0.00799464729            0.000510162679           
       2.184916             0.00757286476            0.000479576463           
       2.187556             0.00702721776            0.000457345738           
       2.190196             0.00649670765            0.000459526207           
       2.192837             0.00775330732            0.000499272623           
       2.195477             0.00751128006             0.00046850888           
       2.198118             0.00664347703            0.000451904377           
       2.200758             0.00780563144            0.000502544491           
       2.203398             0.00750021205            0.000495766016           
       2.206039             0.00685696683            0.000448629448           
       2.208679             0.00774345967            0.000487843694           
       2.211319             0.00768198745            0.000488705153           
       2.213960             0.00749098105            0.000489057197           
       2.216600             0.00765647275            0.000511476647           
       2.219241             0.00702273806            0.000468165918           
       2.221881              0.0077787659            0.000493735016           
       2.224521             0.00722162189            0.000481554435           
       2.227162             0.00761402552            0.000484564235           
       2.229802             0.00732048208             0.00049000524           
       2.232443             0.00759335726            0.000491182761           
       2.235083             0.00682639771             0.00047945427           
       2.237723             0.00756762547            0.000484442126           
       2.240364             0.00713148954            0.000481860929           
       2.243004             0.00685810117            0.000468762501           
       2.245644             0.00759427595            0.000498218139           
       2.248285             0.00741304672            0.000482376549           
       2.250925             0.00749958588            0.000488131285           
       2.253566             0.00827945444            0.000548311894           
       2.256206             0.00684007753             0.00048841116           
       2.258846             0.00734993006            0.000481618866           
       2.261487             0.00730891806             0.00050409137           
       2.264127             0.00919829845            0.000546155798           
       2.266767             0.00748934622            0.000505945915           
       2.269408             0.00731556905            0.000502089352           
       2.272048             0.00680990643            0.000481534492           
       2.274689             0.00713397911            0.000499353133           
       2.277329             0.00654163275            0.000450230584           
       2.279969             0.00819639187            0.000536445457           
       2.282610             0.00706539407            0.000484208424           
       2.285250             0.00678261756            0.000454084222           
       2.287891              0.0076358402            0.000516561593           
       2.290531             0.00585132517            0.000458268502           
       2.293171             0.00722036419            0.000495874434           
       2.295812             0.00699251713            0.000486026222           
       2.298452             0.00765100116            0.000531647038           
       2.301092             0.00643483918            0.000453008411           
       2.303733             0.00701005732            0.000491900648           
       2.306373              0.0071957721            0.000506222567           
       2.309014             0.00800476128            0.000523505396           
       2.311654             0.00772110518            0.000536536052           
       2.314294             0.00692896402            0.000468269787           
       2.316935             0.00680444844            0.000465960397           
       2.319575             0.00785819427            0.000524661602           
       2.322215             0.00691779888            0.000513026667           
       2.324856             0.00695317351            0.000472879247           
       2.327496             0.00635265659            0.000480615695           
       2.330137             0.00789101377             0.00051258353           
       2.332777             0.00737893141             0.00051109138           
       2.335417             0.00717662259            0.000488990641           
       2.338058             0.00642905889            0.000476647725           
       2.340698              0.0070688973            0.000495876257           
       2.343339             0.00646617222            0.000484701685           
       2.345979             0.00624336784              0.0004505967           
       2.348619             0.00754810832            0.000513557839           
       2.351260             0.00721080843            0.000499027609           
       2.353900             0.00676184229            0.000481711679           
       2.356540             0.00782944112            0.000517610537           
       2.359181             0.00737781371             0.00049541585           
       2.361821             0.00767293072            0.000488035976           
       2.364462             0.00690746327            0.000484295265           
       2.367102             0.00782901918            0.000529851351           
       2.369742             0.00659805151            0.000511986867           
       2.372383             0.00732937835            0.000488620645           
       2.375023             0.00608190829            0.000467897176           
       2.377663             0.00734701235            0.000491711615           
       2.380304             0.00618901718            0.000458825512           
       2.382944             0.00737818966            0.000477157961           
       2.385585             0.00567536892            0.000446326007           
       2.388225             0.00612184216            0.000461371399           
       2.390865             0.00688022045            0.000484090475           
       2.393506             0.00714359997            0.000483963015           
       2.396146             0.00740004063            0.000532592227           
       2.398787             0.00677315296             0.00046957517           
       2.401427             0.00752364803            0.000477699706           
       2.404067             0.00669239469            0.000460587609           
       2.406708             0.00796338074            0.000496398936           
       2.409348             0.00625907202            0.000466796782           
       2.411988             0.00725799121            0.000492503281           
       2.414629             0.00735576326            0.000511250838           
       2.417269             0.00651210588            0.000486655933           
       2.419910             0.00680289532            0.000498556959           
       2.422550             0.00706326282            0.000486030754           
       2.425190             0.00758674236            0.000530972919           
       2.427831             0.00730150761            0.000517967804           
       2.430471             0.00704527468            0.000484728448           
       2.433112             0.00641513023            0.000450406803           
       2.435752              0.0072267433            0.000505926378           
       2.438392             0.00691283075            0.000477598814           
       2.441033             0.00669645344            0.000498174173           
       2.443673             0.00712412706            0.000514231123           
       2.446313             0.00772289915            0.000535877419           
       2.448954             0.00716509083            0.000491458486           
       2.451594             0.00699745511            0.000522214475           
       2.454235             0.00652186633            0.000473026886           
       2.456875             0.00636901237            0.000489121099           
       2.459515              0.0077064271             0.00055195867           
       2.462156              0.0076368028            0.000518766439           
       2.464796             0.00763110536            0.000511882443           
       2.467436             0.00859061147            0.000561640495           
       2.470077             0.00836723098            0.000525366568           
       2.472717             0.00791387308            0.000513148783           
       2.475358             0.00704604979            0.000489245215           
       2.477998             0.00781810268            0.000506664428           
       2.480638             0.00675367007            0.000479279551           
       2.483279             0.00779916529            0.000538301485           
       2.485919             0.00700049834            0.000491496871           
       2.488560             0.00640631073            0.000468862063           
       2.491200             0.00746666219            0.000521230865           
       2.493840             0.00798775357            0.000570451363           
       2.496481             0.00713456293            0.000530306712           
       2.499121             0.00786874669            0.000541697892           
       2.501761             0.00826891408            0.000562658653           
       2.504402             0.00630872314              0.0004842835           
       2.507042             0.00666722095            0.000494165208           
       2.509683             0.00581961322            0.000454629923           
       2.512323             0.00720582218            0.000531306061           
       2.514963             0.00679610415            0.000509605512           
       2.517604             0.00629385654            0.000508879551           
       2.520244             0.00807121259            0.000540254131           
       2.522884             0.00784389543            0.000540208522           
       2.525525              0.0116151076            0.000664827103           
       2.528165             0.00850978542            0.000560187529           
       2.530806             0.00747492252            0.000534173231           
       2.533446             0.00744215201            0.000521624469           
       2.536086             0.00800196985            0.000536046595           
       2.538727             0.00684427358            0.000475602294           
       2.541367             0.00732972667            0.000497028422           
       2.544008              0.0072425491            0.000510247329           
       2.546648             0.00717745724            0.000516661944           
       2.549288             0.00693034291            0.000518034512           
       2.551929             0.00827632894            0.000557085317           
       2.554569             0.00706361887            0.000495827328           
       2.557209             0.00708620439            0.000501180227           
       2.559850             0.00720258758            0.000506901693           
       2.562490             0.00731445251            0.000527962922           
       2.565131             0.00590424952            0.000491822862           
       2.567771             0.00792110788            0.000549242322           
       2.570411             0.00723181588            0.000519122792           
       2.573052             0.00656924106            0.000501001697           
       2.575692             0.00747423788            0.000531162237           
       2.578332             0.00734974254            0.000528898108           
       2.580973              0.0067308917             0.00050132608           
       2.583613             0.00744196515            0.000514590482           
       2.586254             0.00691558186            0.000495368413           
       2.588894             0.00654451056            0.000500425087           
       2.591534              0.0064027039            0.000512390746           
       2.594175             0.00583606502            0.000479960993           
       2.596815             0.00642660011            0.000506628607           
       2.599456             0.00729259144            0.000511780383           
       2.602096             0.00615129842            0.000473607639           
       2.604736             0.00722401474            0.000525415023           
       2.607377             0.00747028699            0.000520215429           
       2.610017             0.00664130182            0.000481918847           
       2.612657             0.00675715225            0.000517044855           
       2.615298             0.00716617141            0.000519852029           
       2.617938             0.00647577548            0.000528642502           
       2.620579             0.00707014695                0.00053027           
       2.623219             0.00717705456            0.000533502482           
       2.625859             0.00712709223            0.000516905415           
       2.628500             0.00844737702            0.000559061818           
       2.631140             0.00716693115            0.000522885041           
       2.633780             0.00781280255             0.00054546303           
       2.636421              0.0072722481            0.000539196623           
       2.639061             0.00739845964            0.000511977383           
       2.641702             0.00789576519             0.00054114893           
       2.644342             0.00725105637            0.000520795134           
       2.646982             0.00812815475            0.000543151066           
       2.649623             0.00697344341            0.000527221288           
       2.652263             0.00643648996            0.000501433913           
       2.654904             0.00716446824            0.000529563239           
       2.657544             0.00631688627            0.000468360712           
       2.660184             0.00738446724            0.000535912266           
       2.662825             0.00639150239            0.000510147842           
       2.665465             0.00730658313            0.000527536097           
       2.668105              0.0074128272            0.000560071356           
       2.670746             0.00761631453            0.000524439732           
       2.673386             0.00881146705            0.000581338443           
       2.676027             0.00885498093            0.000573419017           
       2.678667              0.0109141449            0.000621171756           
       2.681307               0.010979499            0.000612161207           
       2.683948              0.0145052175            0.000722934423           
       2.686588             0.00994222784            0.000588594345           
       2.689229             0.00902421385             0.00054795387           
       2.691869             0.00827071543            0.000554427775           
       2.694509             0.00972586908            0.000601556222           
       2.697150             0.00737494232             0.00051533252           
       2.699790             0.00707354713            0.000529097595           
       2.702430             0.00734554398             0.00051538577           
       2.705071             0.00732581236            0.000531838171           
       2.707711             0.00625999358            0.000477163952           
       2.710352             0.00563944713            0.000478541818           
       2.712992             0.00618307818            0.000510341375           
       2.715632             0.00692954703             0.00050126335           
       2.718273             0.00610840901            0.000487742382           
       2.720913              0.0075310468            0.000540028454           
       2.723553             0.00758438372            0.000545573529           
       2.726194             0.00711348511            0.000552315984           
       2.728834             0.00763701421            0.000572548007           
       2.731475             0.00770387072            0.000530719496           
       2.734115             0.00675516036            0.000512391563           
       2.736755             0.00660437162            0.000510810541           
       2.739396             0.00751502278            0.000541733506           
       2.742036              0.0065809427             0.00053055472           
       2.744677             0.00675792403            0.000521660459           
       2.747317             0.00686033992            0.000521850557           
       2.749957             0.00679715077            0.000523087022           
       2.752598             0.00776920729             0.00056530999           
       2.755238              0.0085123028            0.000602409635           
       2.757878             0.00791585646            0.000575842207           
       2.760519             0.00844144163            0.000588346721           
       2.763159              0.0110311741            0.000665846398           
       2.765800             0.00828888548            0.000550043513           
       2.768440             0.00848288708             0.00056054243           
       2.771080             0.00823597833            0.000556934731           
       2.773721             0.00910988969            0.000600847633           
       2.776361             0.00716366659             0.00054016451           
       2.779001             0.00631640291            0.000525273962           
       2.781642             0.00718545569            0.000556116435           
       2.784282             0.00785892869            0.000591158146           
       2.786923             0.00578872273            0.000511823842           
       2.789563             0.00721397053            0.000550295009           
       2.792203             0.00596474944            0.000478010798           
       2.794844             0.00721434729            0.000576161465           
       2.797484             0.00740869855            0.000551031448           
       2.800125              0.0061102951            0.000526194056           
       2.802765              0.0072116151            0.000561816861           
       2.805405               0.006689473             0.00054292756           
       2.808046             0.00591859553            0.000519665189           
       2.810686              0.0069318738            0.000516773423           
       2.813326             0.00740561826            0.000554824563           
       2.815967             0.00561985841            0.000497065545           
       2.818607             0.00708027483            0.000532413656           
       2.821248             0.00758698346            0.000539693797           
       2.823888             0.00649303842            0.000518256553           
       2.826528             0.00677310477            0.000512616027           
       2.829169             0.00731017586            0.000557818596           
       2.831809             0.00613135094            0.000517815085           
       2.834449             0.00646373882            0.000535025508           
       2.837090             0.00614955128            0.000504034333           
       2.839730             0.00666459812            0.000522155408           
       2.842371             0.00700935665            0.000536263476           
       2.845011             0.00678298712            0.000531737963           
       2.847651              0.0066505721            0.000527168834           
       2.850292             0.00634018116            0.000519771549           
       2.852932             0.00604318792            0.000518510778           
       2.855573             0.00686069777            0.000535911703           
       2.858213             0.00632606254            0.000540399945           
       2.860853             0.00733766171            0.000541399208           
       2.863494             0.00730455824            0.000559277482           
       2.866134             0.00636518062            0.000542635778           
       2.868774             0.00763002913            0.000583887401           
       2.871415             0.00601916144            0.000526679756           
       2.874055             0.00664634643            0.000529019302           
       2.876696             0.00621689052            0.000525481745           
       2.879336             0.00645658189            0.000516134351           
       2.881976              0.0064935172            0.000533877521           
       2.884617             0.00726969967            0.000556588586           
       2.887257             0.00761354552            0.000572539439           
       2.889897             0.00668341169            0.000525387301           
       2.892538             0.00778806342            0.000621310984           
       2.895178             0.00765126745            0.000556361552           
       2.897819             0.00736123857            0.000556681416           
       2.900459             0.00708334353            0.000535449815           
       2.903099             0.00634576332            0.000501618045           
       2.905740             0.00621942028            0.000509447502           
       2.908380             0.00704414484            0.000548334272           
       2.911021             0.00731811171            0.000567982444           
       2.913661             0.00682172819            0.000548216962           
       2.916301             0.00688581983            0.000551311503           
       2.918942             0.00653861096             0.00051387574           
       2.921582             0.00725100928            0.000566194806           
       2.924222             0.00775870602            0.000567412461           
       2.926863             0.00766888276            0.000587594432           
       2.929503              0.0072322631            0.000577382696           
       2.932144             0.00798956794            0.000582548205           
       2.934784             0.00628481733            0.000508201961           
       2.937424              0.0073097154            0.000553702296           
       2.940065             0.00750125178            0.000535054873           
       2.942705             0.00732674248            0.000528131064           
       2.945346             0.00786029844            0.000580530084           
       2.947986             0.00656017485            0.000540773898           
       2.950626             0.00648053153             0.00053445505           
       2.953267             0.00756367957            0.000568065073           
       2.955907             0.00739430156             0.00058265393           
       2.958547             0.00637716038            0.000510824086           
       2.961188             0.00717456395            0.000565270089           
       2.963828             0.00866046127            0.000607504779           
       2.966469             0.00631960916            0.000509086723           
       2.969109             0.00672409233            0.000532906512           
       2.971749             0.00758654185            0.000562520505           
       2.974390             0.00717208329            0.000537467902           
       2.977030               0.007373089            0.000557126035           
       2.979670             0.00832247728             0.00057574558           
       2.982311             0.00820520086            0.000592511979           
       2.984951             0.00774569409            0.000547524288           
       2.987592              0.0079059845            0.000564239896           
       2.990232             0.00758456809            0.000574751455           
       2.992872             0.00800951949            0.000556343132           
       2.995513              0.0088066928            0.000570730284           
       2.998153              0.0102023866            0.000624613639           
       3.000794              0.0112303602             0.00063475058           
       3.003434              0.0129845338            0.000683556915           
       3.006074              0.0463820189             0.00127381461           
       3.008715                0.12225012             0.00199629381           
       3.011355               0.183220696             0.00235672885           
       3.013995              0.0929236652             0.00168292794           
       3.016636              0.0620215816             0.00134636111           
       3.019276               0.123072951             0.00186430075           
       3.021917                0.47487366             0.00352123408           
       3.024557                1.65477136             0.00646256364           
       3.027197                 1.1747206             0.00530865248           
       3.029838               0.512503391             0.00355616886           
       3.032478               0.267681163             0.00257267109           
       3.035118              0.0710693346             0.00134339668           
       3.037759              0.0968499107             0.00156621746           
       3.040399                0.13465638             0.00190500304           
       3.043040               0.527719263             0.00381746113           
       3.045680                0.40271687             0.00313759741           
       3.048320              0.0826988254              0.0014527609           
       3.050961               0.107940996             0.00168897576           
       3.053601              0.0838626819             0.00143382299           
       3.056242              0.0553227653             0.00123817823           
       3.058882              0.0448984588             0.00119653791           
       3.061522              0.0359471273             0.00105042396           
       3.064163              0.0448674153             0.00115876273           
       3.066803               0.103496303             0.00185281033           
       3.069443               0.104762313             0.00195033457           
       3.072084              0.0566380681             0.00139637069           
       3.074724               0.038191624             0.00128054531           
       3.077365              0.0864546496             0.00199442932           
       3.080005              0.0190560674            0.000941662099           
       3.082645             0.00958778312             0.00070168674           
       3.085286              0.0122353302            0.000798923147           
       3.087926               0.010052337            0.000718572404           
       3.090566               0.011726666            0.000760439782           
       3.093207              0.0105101988            0.000749149148           
       3.095847             0.00769815472            0.000614527487           
       3.098488             0.00794607657            0.000692291317           
       3.101128              0.0115461715            0.000839876741           
       3.103768              0.0089986053            0.000727504524           
       3.106409             0.00824506363            0.000741133612           
       3.109049               0.007849721            0.000693968405           
       3.111690             0.00899745482            0.000730217465           
       3.114330              0.0080570639             0.00070570429           
       3.116970             0.00809097876            0.000712617177           
       3.119611              0.0125763553            0.000945696779           
       3.122251              0.0189373277             0.00121389041           
       3.124891              0.0349168715             0.00166365933           
       3.127532              0.0222161651             0.00129822325           
       3.130172              0.0139079859             0.00104493001           
       3.132813              0.0102280386             0.00088216895           
       3.135453             0.00805820942            0.000776573703           
       3.138093             0.00596895041            0.000724194944           
       3.140734             0.00786048482            0.000766714694           
       3.143374             0.00804045211             0.00082006389           
       3.146014             0.00802611398            0.000882048664           
       3.148655             0.00775553987            0.000806006527           
       3.151295              0.0063683913            0.000778331439           
       3.153936             0.00522380737            0.000680936868           
       3.156576             0.00656036921            0.000752713281           
       3.159216             0.00609488617            0.000729146971           
       3.161857             0.00628747051            0.000737563077           
       3.164497             0.00675790773            0.000803435374           
       3.167138             0.00905037302            0.000960684927           
       3.169778             0.00710622077            0.000837230958           
       3.172418             0.00617823424            0.000772712642           
       3.175059             0.00553875902            0.000648621807           
       3.177699              0.0062806007            0.000731403532           
       3.180339             0.00545936081            0.000730614196           
       3.182980             0.00772869292            0.000898769014           
       3.185620             0.00716273766            0.000881169224           
       3.188261             0.00515577375            0.000760936699           
       3.190901             0.00625645616             0.00077093295           
       3.193541             0.00616317608            0.000804003135           
       3.196182             0.00568846939            0.000804971807           
       3.198822             0.00579417042             0.00081268853           
       3.201463             0.00539039854            0.000770355962           
       3.204103             0.00597829269            0.000806341898           
       3.206743             0.00542769951            0.000768241516           
       3.209384             0.00596679418            0.000870263672           
       3.212024             0.00426721087            0.000686142647           
       3.214664             0.00655748617            0.000967221486           
       3.217305             0.00551345061            0.000843048707           
       3.219945             0.00684765971             0.00096702189           
       3.222586             0.00606162411            0.000866596898           
       3.225226              0.0074911343             0.00106871708           
       3.227866             0.00585015996            0.000863205606           
       3.230507             0.00585811853             0.00089541532           
       3.233147             0.00737234659              0.0010126074           
       3.235787             0.00565394198            0.000907504369           
       3.238428             0.00575575123            0.000988089842           
       3.241068             0.00738490168             0.00104653191           
       3.243709             0.00331743446            0.000724683562           
       3.246349             0.00525605312            0.000831530534           
       3.248989             0.00772528504             0.00119034701           
       3.251630             0.00713555537             0.00110165144           
       3.254270             0.00461505325            0.000791816314           
       3.256911             0.00613332116            0.000995985154           
       3.259551             0.00710440309             0.00115403458           
       3.262191             0.00627433702             0.00110778653           
       3.264832             0.00552738433             0.00108639064           
       3.267472             0.00561473819             0.00102717291           
       3.270112             0.00682705422             0.00125172186           
       3.272753             0.00675068482             0.00113930463           
       3.275393              0.0049956981             0.00100002882           
       3.278034             0.00581604644             0.00107962466           
       3.280674             0.00612066875             0.00120183158           
       3.283314             0.00546201112             0.00101538345           
       3.285955             0.00543866992             0.00104541187           
       3.288595             0.00747810518             0.00136380254           
       3.291235              0.0054974734             0.00120206176           
       3.293876             0.00566279327             0.00123753339           
       3.296516             0.00499028852             0.00111528479           
       3.299157             0.00632531055              0.0012398591           
       3.301797             0.00726710477              0.0015159252           
       3.304437             0.00619786532             0.00121290563           
       3.307078              0.0049019906             0.00118823124           
       3.309718             0.00643773975             0.00140551906           
       3.312359              0.0049255212             0.00122970031           
       3.314999             0.00355805631             0.00102903801           
       3.317639             0.00572891492             0.00124879276           
       3.320280             0.00675876407             0.00144213328           
       3.322920             0.00443110736             0.00118734426           
       3.325560             0.00667824919              0.0014586355           
       3.328201              0.0069706113             0.00134212431           
       3.330841             0.00499196822             0.00138231208           
       3.333482             0.00411782536             0.00118670142           
       3.336122              0.0082039786             0.00167578905           
       3.338762             0.00455002739             0.00144163166           
       3.341403              0.0049974085             0.00144367225           
       3.344043             0.00494884408             0.00137929324           
       3.346683              0.0100318584             0.00200487124           
       3.349324             0.00352863636             0.00133688073           
       3.351964             0.00166254999            0.000970379526           
       3.354605             0.00597625467             0.00210408378           
       3.357245              0.0101733296             0.00247649693           
       3.359885             0.00346441504              0.0011566628           
       3.362526             0.00421527521             0.00159552278           
       3.365166             0.00695231669             0.00193266085           
       3.367807             0.00439583446             0.00196676532           
       3.370447              0.0029832108             0.00134399444           
       3.373087             0.00744837331             0.00227098087           
       3.375728             0.00793242689             0.00264499604           
       3.378368             0.00387726285             0.00274444485           
       3.381008             0.00643365861             0.00263571852           
       3.383649             0.00413015032             0.00169409364           
       3.386289             0.00389193193             0.00194633522           
       3.388930           -2.60209464e-05                         0           
       3.391570             0.00487509739             0.00243743181           
       3.394210              0.0058332191              0.0033741543           
       3.396851             0.00483380087             0.00343580865           
       3.399491            -2.6108371e-05                         0           
       3.402131           -2.61302014e-05                         0           
       3.404772              0.0095485192             0.00966698316           
       3.407412                       nan                       nan           
       3.410053            -2.6207203e-05                         0           
       3.412693                       nan                       nan           
       3.415333           -2.62572844e-05                         0           
