################################################################################
# EDF_DataBlockID                     0.Image.Psd
# EDF_BinarySize                      4366944
# EDF_HeaderSize                      2560
# ByteOrder                           LowByteFirst
# DataType                            FloatValue
# Dim_1                               1028
# Dim_2                               1062
# Image                               0
# HeaderID                            EH:000000:000000:000000
# Size                                4366944
# Center_1                            607.5200
# Center_2                            651.5500
# Comment                             Xenocs_Cell_Window - 20251028_20perc_iodine_1.23mg
# DDummy                              0.6
# Date                                2025-11-01T01:58:15
# Delta                               0
# Dummy                               -1.5
# ExposureTime                        360
# Gamma                               0
# Intensity1                          8.63118e-10
# PSize_1                             7.5e-05
# PSize_2                             7.5e-05
# Pressure                            0.0327568
# SampleDistance                      0.450002
# SampleEnvKind                       large
# SampleEnvPN                         ElectroChemical cell
# SampleEnvSN                         1141
# Thickness                           0
# Wavelength                          1.541891e-10
# Wavelength                          1.54189e-10
# aux                                 0
# aux_dial                            0.002375
# beamx                               588.434
# beamx_dial                          588.434
# beamz                               657.808
# beamz_dial                          657.808
# det0x                               0
# det0x_dial                          6.36945
# det0xvd                             0
# det0xvd_dial                        0
# det0y                               450.002
# det0y_dial                          481.635
# det0z                               0
# det0z_dial                          1.23302
# det0zvd                             0
# det0zvd_dial                        0
# mag                                 1.818
# mag_dial                            1.818
# om                                  0.2499
# om_dial                             -0.610199
# phi                                 -0.0120535
# phi_dial                            0
# ry                                  0.599993
# ry_dial                             0.599993
# s1bot                               0.8
# s1bot_dial                          -1.66094
# s1hl                                0.8
# s1hl_dial                           -0.608437
# s1hr                                0.8
# s1hr_dial                           0.970938
# s1top                               0.8
# s1top_dial                          -0.461562
# s2bot                               0.45
# s2bot_dial                          1.36109
# s2hl                                0.45
# s2hl_dial                           -0.83375
# s2hr                                0.45
# s2hr_dial                           -0.118594
# s2top                               0.45
# s2top_dial                          1.44734
# w2theta                             32
# w2theta_dial                        32
# waxsch                              19.2605
# waxsch_dial                         -32.7355
# waxsh                               137.085
# waxsh_dial                          -43.5338
# waxsth                              26.0607
# waxsth_dial                         -19.4086
# waxsz                               67.0407
# waxsz_dial                          -23.7954
# wind                                65.9854
# wind_dial                           66.0041
# wpsi                                124
# wpsi_dial                           124
# wstod                               115
# wstod_dial                          115
# x                                   0
# x_dial                              1.00969
# z                                   0
# z_dial                              13.3172
# CountCutoff                         15302352
# DetectorModel                       Dectris EIGER2 Si 1M, S/N E-02-0362
# ThresholdSetting                    4023.88989258
# Saturation                          0
# FlatField                           Corrected
# BackgroundReductionExtra            0.02
# BackgroundCorrectionConstant        0.0026712
# Detector                            0
# Monitor                             0
# Pil_Roi0                            0
# SumForIntensity1                    3.10723e+08
# TransmittedFlux                     863118
# det                                 0
# mon                                 0
# pilai0                              3.10723e+08
# pilai1                              792374
# pilct0                              5.3675e+08
# pilct1                              792374
# pilroi0                             0
# pilroi1                             0
# sec                                 1
# title                               20251028_20perc_iodine_1.23mg_0_00760.edf
# usaxs0                              0
# Operation                           Azimuthal average I(q)
# Error_model                         ErrorModel.poisson
# Geometrical_correction              True
# Transmission_correction             True
# Thickness_correction                False
# Binning mode                        Uniform
# Binning factor                      1.0
# Psi                                 0.0
# Omega                               0.2499
# MaskInvalidPixels                   True
# DetectorEdge                        3
# MaskFiles                           ['20251028_20perc_iodine_1.23mg_0_00012_mask.edf']
################################################################################
    q(A⁻¹)                Intensity(a.u.)            Sigma_I(a.u.)            
       0.000340                372547.458                119.949108           
       0.001019                359926.876                72.1986386           
       0.001698                350533.519                50.3815685           
       0.002377                331121.092                43.7971019           
       0.003056                307382.928                35.6638214           
       0.003735                253395.389                28.5571731           
       0.004415                204625.322                25.6623044           
       0.005094                152202.173                19.1671325           
       0.005773                99972.0251                14.3817825           
       0.006452                58021.3671                10.4977619           
       0.007131                 32224.066                7.57881532           
       0.007810                16295.3895                5.34845602           
       0.008490                8256.93533                3.37472229           
       0.009169                4030.21853                2.33014827           
       0.009848                1262.12055                1.26073917           
       0.010527                492.556374               0.787595202           
       0.011206                123.446784               0.376312366           
       0.011885                56.2861717               0.236089962           
       0.012564                25.1937105                0.16216402           
       0.013244                16.9915936                0.12450462           
       0.013923                12.3969747               0.108062729           
       0.014602                9.39933864              0.0872673212           
       0.015281                7.47531519              0.0792221501           
       0.015960                5.92190383              0.0700065175           
       0.016639                4.90656504              0.0601743212           
       0.017319                4.02831521              0.0536756015           
       0.017998                3.44597778              0.0474944428           
       0.018677                2.86897618              0.0448843749           
       0.019356                2.41311418              0.0406742684           
       0.020035                2.11930149              0.0357618884           
       0.020714                1.79601496              0.0332698837           
       0.021394                1.62079337              0.0299040483           
       0.022073                1.38162783              0.0287257288           
       0.022752                1.21399562              0.0257583242           
       0.023431                1.07546404              0.0235333789           
       0.024110               0.989799785              0.0235378465           
       0.024789               0.871288501              0.0205094606           
       0.025469               0.804313567              0.0203066374           
       0.026148               0.750746795              0.0184334658           
       0.026827               0.666270597              0.0176433252           
       0.027506               0.614044199                0.01718197           
       0.028185                0.52928622              0.0152126456           
       0.028864               0.543544128              0.0153296827           
       0.029544                0.44023453              0.0133783815           
       0.030223               0.449594391              0.0137137213           
       0.030902               0.382114206              0.0127584435           
       0.031581               0.382305509              0.0121313298           
       0.032260               0.334752117               0.011545225           
       0.032939               0.297450395              0.0104935686           
       0.033619               0.301146697              0.0107137436           
       0.034298               0.272246025             0.00991329778           
       0.034977               0.247411263             0.00926461398           
       0.035656               0.245020281             0.00946374776           
       0.036335               0.209161591              0.0084804467           
       0.037014               0.207689654             0.00847576112           
       0.037693               0.183714928             0.00766853891           
       0.038373               0.179671645             0.00765810483           
       0.039052               0.177445358             0.00764289204           
       0.039731               0.160884834              0.0071079136           
       0.040410               0.153393713             0.00689392923           
       0.041089               0.143087158             0.00655400264           
       0.041768                0.13985761             0.00651346985           
       0.042448               0.135055939             0.00635101494           
       0.043127               0.127732012             0.00603053669           
       0.043806               0.125616266             0.00602497448           
       0.044485               0.122850645             0.00583587816           
       0.045164                 0.1143794             0.00574205959           
       0.045843               0.109302367             0.00538371545           
       0.046523               0.110352478             0.00542819519           
       0.047202               0.109418208             0.00544293861           
       0.047881              0.0989168991             0.00507536193           
       0.048560              0.0899290706             0.00488340093           
       0.049239              0.0921630203             0.00474682852           
       0.049918              0.0862048406             0.00468057382           
       0.050598              0.0882793746             0.00466549502           
       0.051277              0.0835989216             0.00452572493           
       0.051956              0.0768968465             0.00431326627           
       0.052635              0.0762382583             0.00420361226           
       0.053314              0.0745898115             0.00427948315           
       0.053993              0.0793758775             0.00429356429           
       0.054673              0.0776348537             0.00415162919           
       0.055352              0.0849830228              0.0044074666           
       0.056031                0.07554431             0.00406819212           
       0.056710              0.0725026891             0.00408311571           
       0.057389              0.0728417177             0.00394658861           
       0.058068              0.0654312759             0.00377901312           
       0.058748              0.0686851573             0.00392013556           
       0.059427              0.0609178802             0.00362932679           
       0.060106              0.0676326545             0.00386031736           
       0.060785              0.0594001831             0.00350935482           
       0.061464              0.0618561803             0.00366748947           
       0.062143              0.0591603746               0.003550247           
       0.062822              0.0593310523             0.00351364314           
       0.063502              0.0527444869             0.00330695701           
       0.064181              0.0484782321             0.00313691653           
       0.064860              0.0537372166             0.00335298834           
       0.065539              0.0500679673             0.00320484335           
       0.066218              0.0485252244             0.00308752568           
       0.066897              0.0512176543             0.00319651226           
       0.067577              0.0475645122             0.00311000079           
       0.068256               0.052075141             0.00333406088           
       0.068935              0.0491969869              0.0031882169           
       0.069614              0.0482842154             0.00318994456           
       0.070293              0.0418906145             0.00299864624           
       0.070972              0.0459825528             0.00311868756           
       0.071652              0.0389996799             0.00287740976           
       0.072331              0.0383453885             0.00280232051           
       0.073010              0.0340859789             0.00270246855           
       0.073689               0.042241251             0.00299190679           
       0.074368              0.0465588722             0.00313538112           
       0.075047              0.0376496495              0.0027891786           
       0.075727              0.0384130051             0.00279991142           
       0.076406              0.0403733836             0.00292774059           
       0.077085              0.0449929867             0.00303294306           
       0.077764              0.0384574696             0.00279420166           
       0.078443              0.0356019271             0.00270510881           
       0.079122              0.0344909868             0.00263699016           
       0.079802              0.0381337551             0.00280215599           
       0.080481              0.0321362073             0.00248560733           
       0.081160              0.0368829389             0.00271749975           
       0.081839              0.0341299543             0.00257226359           
       0.082518              0.0369186081             0.00267753948           
       0.083197              0.0351972623             0.00257375191           
       0.083876              0.0318916293             0.00240920352           
       0.084556              0.0338909745             0.00255264533           
       0.085235              0.0297958523             0.00234721835           
       0.085914              0.0326578334             0.00248123416           
       0.086593               0.031290446             0.00241310246           
       0.087272              0.0361694916             0.00255775192           
       0.087951              0.0278235253             0.00229400522           
       0.088631              0.0300065025             0.00230115531           
       0.089310              0.0314650794             0.00240639802           
       0.089989              0.0299984748             0.00232217769           
       0.090668              0.0330835774             0.00246558319           
       0.091347              0.0347575243             0.00254133905           
       0.092026              0.0313610673             0.00230737413           
       0.092706              0.0253480968             0.00214970852           
       0.093385               0.027061675              0.0021870733           
       0.094064              0.0275283256             0.00223152255           
       0.094743              0.0291180719             0.00226007827           
       0.095422              0.0263903919             0.00212762474           
       0.096101              0.0320011757             0.00239116001           
       0.096781              0.0282722673             0.00221535157           
       0.097460              0.0293354695             0.00219506467           
       0.098139              0.0256226304              0.0020356731           
       0.098818              0.0289012868             0.00213537079           
       0.099497              0.0243358502             0.00196349015           
       0.100176              0.0278797569             0.00204644233           
       0.100856               0.031279514             0.00216624031           
       0.101535              0.0281365215             0.00205056448           
       0.102214              0.0300862631             0.00212043538           
       0.102893              0.0234055644             0.00184894421           
       0.103572              0.0274124109             0.00197139761           
       0.104251              0.0244433849             0.00186845529           
       0.104931               0.026647585             0.00193312091           
       0.105610              0.0270115692             0.00195458075           
       0.106289              0.0224864986             0.00175368447           
       0.106968              0.0235662182             0.00180062164           
       0.107647              0.0233264543             0.00179251361           
       0.108326              0.0248440567              0.0018251569           
       0.109005              0.0266252327              0.0018775632           
       0.109685              0.0270346899             0.00187072329           
       0.110364              0.0248011425             0.00181213101           
       0.111043               0.026959674             0.00188185299           
       0.111722              0.0236138929             0.00173968728           
       0.112401              0.0243821146             0.00177267494           
       0.113080              0.0231528911             0.00170761713           
       0.113760              0.0251314384             0.00180879996           
       0.114439              0.0223976667             0.00168321838           
       0.115118               0.024348859             0.00174177193           
       0.115797              0.0237615143             0.00173657626           
       0.116476              0.0231677833             0.00168907831           
       0.117155              0.0218068999             0.00165193597           
       0.117835                0.02369015             0.00168756112           
       0.118514              0.0199831357             0.00156956546           
       0.119193              0.0224527704             0.00166374098           
       0.119872              0.0227238865             0.00165282307           
       0.120551              0.0229293704             0.00164921993           
       0.121230              0.0208111169             0.00155538398           
       0.121910              0.0234840373             0.00166822065           
       0.122589              0.0235294061             0.00167155198           
       0.123268              0.0208851697             0.00154431931           
       0.123947              0.0193006059             0.00149418119           
       0.124626              0.0198743179             0.00149768725           
       0.125305              0.0209436753             0.00154499638           
       0.125985              0.0205426318             0.00151825954           
       0.126664              0.0181452459             0.00141332732           
       0.127343              0.0199128577             0.00149772888           
       0.128022              0.0189614055             0.00145029983           
       0.128701              0.0199571093             0.00148014108           
       0.129380              0.0196551493             0.00145050351           
       0.130059                0.02053248             0.00148596551           
       0.130739              0.0224695911             0.00156541323           
       0.131418              0.0233023313             0.00158969381           
       0.132097              0.0187991907             0.00140954065           
       0.132776               0.020941463             0.00148097046           
       0.133455              0.0194767262             0.00143933514           
       0.134134               0.020074468             0.00145660141           
       0.134814              0.0197361694             0.00142939439           
       0.135493              0.0210591968             0.00148250294           
       0.136172              0.0211540881             0.00147462249           
       0.136851              0.0192089565             0.00141336418           
       0.137530              0.0190837619             0.00137528126           
       0.138209              0.0168140791             0.00130606628           
       0.138889              0.0168576675             0.00131352271           
       0.139568              0.0167421647             0.00130844934           
       0.140247              0.0176359491              0.0013411613           
       0.140926              0.0176500948             0.00130333598           
       0.141605              0.0193073344             0.00139778305           
       0.142284              0.0196199885             0.00138570611           
       0.142964              0.0186137769             0.00135486782           
       0.143643              0.0184593717             0.00134753222           
       0.144322              0.0172978481             0.00127715194           
       0.145001              0.0186172668             0.00135216169           
       0.145680              0.0199762634             0.00136750701           
       0.146359              0.0165447425             0.00124907402           
       0.147039              0.0172167932             0.00128468057           
       0.147718              0.0181146795             0.00129600946           
       0.148397              0.0195411015             0.00136698617           
       0.149076              0.0176153227             0.00125761863           
       0.149755              0.0166955137              0.0012432489           
       0.150434               0.020772352             0.00138732511           
       0.151114              0.0202587029             0.00136248722           
       0.151793              0.0171807474               0.001254734           
       0.152472               0.014533112             0.00113362642           
       0.153151              0.0184093596             0.00128821551           
       0.153830              0.0174243785             0.00124414805           
       0.154509              0.0183422676             0.00127117143           
       0.155188              0.0162078535             0.00119448256           
       0.155868              0.0178109888             0.00124325309           
       0.156547              0.0183227368             0.00126908727           
       0.157226              0.0165751934             0.00117756934           
       0.157905              0.0177902588             0.00123021489           
       0.158584              0.0153418721               0.001140353           
       0.159263              0.0187245717             0.00126444841           
       0.159943              0.0173651513             0.00121859176           
       0.160622              0.0160546641             0.00114909615           
       0.161301              0.0176548333             0.00122111866           
       0.161980              0.0142838557             0.00107969729           
       0.162659              0.0158448788             0.00114976984           
       0.163338               0.017304031             0.00119175183           
       0.164018              0.0168836369             0.00117100773           
       0.164697               0.016246635             0.00116345466           
       0.165376              0.0165714971             0.00114935617           
       0.166055               0.016705933             0.00116161953           
       0.166734              0.0168213389             0.00116040344           
       0.167413              0.0185914108              0.0012207841           
       0.168093              0.0157712445             0.00113502257           
       0.168772              0.0172309823             0.00115169163           
       0.169451              0.0166818582             0.00115404058           
       0.170130               0.017016826             0.00115026758           
       0.170809              0.0157528454             0.00111993105           
       0.171488              0.0191293335             0.00122288178           
       0.172168              0.0165553799             0.00112670911           
       0.172847              0.0170494575             0.00115841787           
       0.173526              0.0160374986              0.0011020807           
       0.174205              0.0157323315             0.00109657208           
       0.174884              0.0152079967             0.00107252524           
       0.175563              0.0163919388              0.0011182451           
       0.176243              0.0140662903             0.00104625203           
       0.176922              0.0171616085             0.00112553174           
       0.177601              0.0150089016             0.00106414295           
       0.178280              0.0166487708             0.00110825948           
       0.178959              0.0158858323             0.00109127587           
       0.179638              0.0148116138               0.001050699           
       0.180317              0.0173924208             0.00113026881           
       0.180997              0.0160137373             0.00109043294           
       0.181676              0.0168309291             0.00110597276           
       0.182355              0.0154168684             0.00106485139           
       0.183034              0.0173473192             0.00111142582           
       0.183713              0.0167472319             0.00110533242           
       0.184392              0.0168795016             0.00110935311           
       0.185072              0.0152807815             0.00104348178           
       0.185751              0.0168611639             0.00109916369           
       0.186430              0.0161295719             0.00106752362           
       0.187109              0.0177915097             0.00113365883           
       0.187788              0.0163547518             0.00108424126           
       0.188467              0.0172118989             0.00109912782           
       0.189147               0.016446176             0.00108528105           
       0.189826              0.0159781748             0.00105081116           
       0.190505               0.017038693             0.00110298627           
       0.191184              0.0166753353             0.00107543592           
       0.191863              0.0182781823             0.00112830811           
       0.192542              0.0177222207             0.00112149306           
       0.193222              0.0172369255             0.00108124496           
       0.193901              0.0172866162             0.00109731578           
       0.194580              0.0145332561            0.000988539365           
       0.195259              0.0141390128            0.000986237291           
       0.195938              0.0149592959             0.00101686426           
       0.196617               0.018022895              0.0011005628           
       0.197297              0.0154741967             0.00102394417           
       0.197976              0.0152572338             0.00100112296           
       0.198655              0.0145831192            0.000989447447           
       0.199334              0.0167625603             0.00105145525           
       0.200013              0.0166027606             0.00104585121           
       0.200692              0.0145505984            0.000984973678           
       0.201371               0.016168981             0.00102661279           
       0.202051              0.0164586687             0.00103898948           
       0.202730              0.0133686135            0.000927037904           
       0.203409              0.0167455884             0.00104450402           
       0.204088              0.0138697709            0.000949541437           
       0.204767              0.0170423861             0.00104702214           
       0.205446              0.0161026906             0.00101973591           
       0.206126              0.0150710372            0.000973126331           
       0.206805              0.0158382133             0.00101587516           
       0.207484              0.0156540212            0.000991794327           
       0.208163              0.0168557102             0.00103534262           
       0.208842              0.0157544796            0.000998238095           
       0.209521              0.0155481365            0.000983437883           
       0.210201              0.0141987757            0.000950282554           
       0.210880              0.0163204387            0.000998817902           
       0.211559              0.0156002564            0.000990969612           
       0.212238              0.0165070789             0.00101417763           
       0.212917              0.0162625454             0.00100289758           
       0.213596               0.015139893            0.000973383746           
       0.214276              0.0161030895            0.000982955432           
       0.214955              0.0125745871            0.000886878843           
       0.215634              0.0136754865            0.000918258701           
       0.216313              0.0140603806            0.000929135997           
       0.216992              0.0153899983            0.000971832137           
       0.217671              0.0152441678              0.0009606653           
       0.218351              0.0149802278            0.000961626185           
       0.219030              0.0136237634            0.000902580027           
       0.219709              0.0163266127            0.000994227624           
       0.220388              0.0140857444            0.000922294029           
       0.221067               0.015353197            0.000963658337           
       0.221746              0.0153161024            0.000961507579           
       0.222426              0.0163645023            0.000979017623           
       0.223105              0.0153816727            0.000962094121           
       0.223784              0.0136077607            0.000895941716           
       0.224463              0.0160501503            0.000980778304           
       0.225142              0.0148942779            0.000929853348           
       0.225821              0.0152308209            0.000944087461           
       0.226500               0.014440467            0.000925111012           
       0.227180              0.0144460927            0.000911035912           
       0.227859              0.0145272517             0.00091768997           
       0.228538              0.0148936172            0.000919859181           
       0.229217               0.014468566            0.000913814673           
       0.229896              0.0142062357            0.000905056642           
       0.230575              0.0133661975            0.000863896008           
       0.231255              0.0158953992            0.000956196619           
       0.231934              0.0151152971            0.000926067326           
       0.232613              0.0123734856            0.000840968231           
       0.233292              0.0133638369            0.000865531052           
       0.233971              0.0151355357             0.00092068962           
       0.234650              0.0157912674             0.00095148376           
       0.235330              0.0144273449             0.00090152347           
       0.236009              0.0151103939            0.000920628855           
       0.236688               0.013045348            0.000852349128           
       0.237367              0.0135826191            0.000870987185           
       0.238046              0.0138169076            0.000884653549           
       0.238725              0.0142812562            0.000885520378           
       0.239405              0.0145564498            0.000899555209           
       0.240084              0.0123479896            0.000823235245           
       0.240763              0.0129324227            0.000850559087           
       0.241442              0.0145634234            0.000889883902           
       0.242121              0.0143732403            0.000885723072           
       0.242800              0.0149446205            0.000907432326           
       0.243480              0.0124546622            0.000824516802           
       0.244159               0.013990528              0.0008743004           
       0.244838              0.0130095403            0.000829218511           
       0.245517              0.0149104696            0.000900505388           
       0.246196              0.0134311883            0.000855080953           
       0.246875              0.0141740439            0.000866164406           
       0.247554              0.0137844456            0.000862858637           
       0.248234              0.0129331212             0.00082311587           
       0.248913               0.013963277            0.000864863142           
       0.249592              0.0127044301            0.000817117921           
       0.250271              0.0131129798            0.000827741895           
       0.250950              0.0149705371            0.000889845901           
       0.251629              0.0150161229             0.00088362502           
       0.252309              0.0130987761            0.000826960933           
       0.252988               0.012051249            0.000779542089           
       0.253667              0.0145823881            0.000867526362           
       0.254346              0.0129247403            0.000816563357           
       0.255025               0.012470833            0.000800339624           
       0.255704              0.0146298163            0.000862883869           
       0.256384              0.0134835008            0.000825523012           
       0.257063              0.0130107855            0.000815546421           
       0.257742               0.012699803            0.000800158084           
       0.258421              0.0120805692            0.000778904554           
       0.259100               0.012869631            0.000805341863           
       0.259779              0.0127039588            0.000799463166           
       0.260459              0.0129045706            0.000807333034           
       0.261138              0.0129802263            0.000793872791           
       0.261817              0.0131089549            0.000813903872           
       0.262496              0.0135947743            0.000820719737           
       0.263175               0.013959267            0.000833435494           
       0.263854              0.0114202062            0.000750335093           
       0.264534              0.0122766915            0.000771318613           
       0.265213              0.0135776471            0.000823940792           
       0.265892               0.012589371            0.000783223546           
       0.266571              0.0132247681             0.00080091975           
       0.267250              0.0112797443            0.000740927277           
       0.267929              0.0131199342             0.00079826344           
       0.268609              0.0118634211            0.000763232382           
       0.269288              0.0131100223            0.000789002424           
       0.269967              0.0122886665            0.000772117122           
       0.270646              0.0126160954            0.000778954066           
       0.271325              0.0120354609             0.00076208861           
       0.272004              0.0120174941            0.000753928468           
       0.272683              0.0109205636            0.000719584826           
       0.273363               0.011053091            0.000728555138           
       0.274042              0.0112181051            0.000729642963           
       0.274721              0.0112776483            0.000731143058           
       0.275400              0.0137073766            0.000800728379           
       0.276079              0.0118179049            0.000747717147           
       0.276758              0.0112278669            0.000738009673           
       0.277438              0.0127494619            0.000777600899           
       0.278117              0.0116674805            0.000757400334           
       0.278796              0.0109332779            0.000725740545           
       0.279475               0.012514273            0.000789268376           
       0.280154              0.0117567546            0.000754003285           
       0.280833               0.011859551             0.00076189778           
       0.281513              0.0115061857            0.000762234985           
       0.282192              0.0120937259            0.000768121835           
       0.282871              0.0129718353              0.0008010783           
       0.283550              0.0119134583            0.000771816984           
       0.284229               0.011502169            0.000769515799           
       0.284908              0.0115076956            0.000777819231           
       0.285588              0.0119326208            0.000782774701           
       0.286267              0.0110643414            0.000765826473           
       0.286946              0.0117052232            0.000782571403           
       0.287625              0.0116001871            0.000792317009           
       0.288304              0.0113624048            0.000773658873           
       0.288983               0.012142554             0.00080990601           
       0.289663              0.0101599526             0.00074517777           
       0.290342              0.0107584196            0.000762729072           
       0.291021             0.00978676616            0.000731390208           
       0.291700              0.0111794443            0.000771487371           
       0.292379             0.00992275066            0.000743474799           
       0.293058             0.00961987409            0.000729275009           
       0.293738              0.0102143514            0.000745160258           
       0.294417              0.0114106158            0.000796741816           
       0.295096              0.0106081193            0.000759768877           
       0.295775             0.00966895435            0.000736435039           
       0.296454               0.010611947             0.00076153213           
       0.297133               0.009440418            0.000721665773           
       0.297812              0.0108753923            0.000778458954           
       0.298492             0.00974759157            0.000738414479           
       0.299171             0.00892504854            0.000705235903           
       0.299850              0.0114407615            0.000793013891           
       0.300529             0.00968467818            0.000737837417           
       0.301208               0.010692548            0.000777166729           
       0.301887              0.0105333385            0.000770442489           
       0.302567             0.00993512496             0.00074449761           
       0.303246             0.00870668072            0.000701502397           
       0.303925             0.00859888856            0.000706097628           
       0.304604             0.00960137463            0.000730011851           
       0.305283             0.00874375933            0.000706978332           
       0.305962             0.00938667335            0.000728083623           
       0.306642             0.00895927168            0.000720975355           
       0.307321             0.00912399713            0.000725249821           
       0.308000              0.0100302602            0.000751402451           
       0.308679             0.00900358064             0.00072732524           
       0.309358              0.0111066247            0.000796887903           
       0.310037             0.00847516227            0.000697664707           
       0.310717              0.0100514903            0.000759049205           
       0.311396             0.00978507281            0.000753945003           
       0.312075              0.0072485993            0.000657139257           
       0.312754              0.0098728328            0.000751579416           
       0.313433             0.00957119399            0.000746444989           
       0.314112             0.00891743456            0.000720335822           
       0.314792             0.00880043374            0.000720647981           
       0.315471             0.00917443873            0.000726702498           
       0.316150              0.0104858584            0.000784096943           
       0.316829             0.00816942679            0.000696661842           
       0.317508             0.00890062982            0.000719011343           
       0.318187             0.00885165879            0.000726489428           
       0.318866             0.00820543413            0.000690045243           
       0.319546             0.00852627893            0.000713950651           
       0.320225             0.00821312013            0.000700730472           
       0.320904             0.00807345429            0.000684004663           
       0.321583              0.0085259359            0.000718399527           
       0.322262             0.00943783758              0.0007443869           
       0.322941             0.00943008545             0.00075361403           
       0.323621              0.0087289523            0.000720632268           
       0.324300             0.00688763164            0.000640630863           
       0.324979             0.00817572091            0.000699230517           
       0.325658             0.00819219902            0.000701204608           
       0.326337             0.00792448363            0.000690552181           
       0.327016             0.00919170791             0.00073899782           
       0.327696             0.00849551455            0.000718362002           
       0.328375             0.00798188976            0.000690432272           
       0.329054             0.00879738677            0.000728776209           
       0.329733             0.00831204658            0.000710975225           
       0.330412             0.00733527394            0.000662423269           
       0.331091             0.00761649127            0.000687245895           
       0.331771             0.00778455566            0.000676581164           
       0.332450             0.00766990042             0.00068461902           
       0.333129             0.00757474415            0.000678603329           
       0.333808             0.00601012307            0.000605267443           
       0.334487             0.00748019048            0.000678447462           
       0.335166             0.00809037911            0.000695250538           
       0.335846             0.00653974521            0.000636067155           
       0.336525             0.00779873028            0.000687741745           
       0.337204               0.007118512            0.000658787149           
       0.337883             0.00707662484            0.000657716731           
       0.338562             0.00790203557            0.000698873662           
       0.339241             0.00649965788            0.000635020097           
       0.339921             0.00698578415            0.000647299045           
       0.340600              0.0068937322            0.000655231417           
       0.341279             0.00676956731            0.000642350879           
       0.341958             0.00637494434            0.000632141631           
       0.342637             0.00656096051            0.000632238309           
       0.343316             0.00666385407            0.000639021401           
       0.343995             0.00682165922             0.00065712999           
       0.344675             0.00632071916            0.000620917541           
       0.345354             0.00659630981            0.000638493536           
       0.346033             0.00675392778            0.000644392683           
       0.346712             0.00609887981            0.000616254038           
       0.347391              0.0069374451            0.000661325532           
       0.348070             0.00709076269            0.000659098241           
       0.348750             0.00680327279            0.000654927228           
       0.349429             0.00557610636            0.000585270269           
       0.350108             0.00671650187            0.000650065891           
       0.350787             0.00739162226            0.000670369325           
       0.351466             0.00560125558            0.000594311832           
       0.352145             0.00707482734            0.000668482195           
       0.352825               0.006425162            0.000634165107           
       0.353504             0.00643287031            0.000634389784           
       0.354183             0.00579419551            0.000595138101           
       0.354862             0.00646575423            0.000643290528           
       0.355541             0.00527611837            0.000573494855           
       0.356220             0.00624834895            0.000625279893           
       0.356900             0.00624935593            0.000631269928           
       0.357579             0.00484972802            0.000549285291           
       0.358258             0.00562202566            0.000599590128           
       0.358937             0.00570864199            0.000592832276           
       0.359616             0.00557750774             0.00059416654           
       0.360295               0.006212983            0.000627624415           
       0.360975             0.00551523471             0.00058880351           
       0.361654             0.00443156804             0.00053051828           
       0.362333              0.0050924494            0.000565810606           
       0.363012             0.00554215394            0.000597859511           
       0.363691             0.00501613375            0.000557558599           
       0.364370             0.00520865226            0.000575205676           
       0.365050             0.00564061605            0.000595379102           
       0.365729             0.00595695568              0.0006176805           
       0.366408             0.00597573115            0.000620022976           
       0.367087             0.00485094675            0.000549671849           
       0.367766              0.0052758527            0.000585184072           
       0.368445             0.00468686839            0.000541760779           
       0.369124              0.0052795946            0.000579515197           
       0.369804             0.00544157608            0.000587396589           
       0.370483             0.00480108228            0.000554159406           
       0.371162             0.00543604318            0.000593085381           
       0.371841              0.0048602884             0.00055102061           
       0.372520              0.0050773896            0.000574481751           
       0.373199             0.00411245459            0.000510842041           
       0.373879             0.00422746285            0.000523932436           
       0.374558             0.00523145347            0.000574331324           
       0.375237             0.00492768167             0.00055832103           
       0.375916             0.00466724054            0.000553775836           
       0.376595             0.00353614734            0.000472603526           
       0.377274             0.00508681419            0.000575905733           
       0.377954             0.00397906805            0.000501351887           
       0.378633             0.00499950289             0.00056907471           
       0.379312             0.00479824933            0.000557362348           
       0.379991             0.00422887829            0.000520541253           
       0.380670             0.00458472326              0.0005515795           
       0.381349             0.00419513108            0.000520047934           
       0.382029             0.00472644298            0.000559907577           
       0.382708             0.00455879631            0.000537879878           
       0.383387             0.00472250046            0.000559858723           
       0.384066             0.00441512611            0.000536365426           
       0.384745             0.00480379655            0.000561675422           
       0.385424             0.00436716883            0.000537360397           
       0.386104             0.00401625083            0.000509624117           
       0.386783             0.00393285117            0.000515213104           
       0.387462             0.00505817297            0.000569756683           
       0.388141               0.004517528            0.000547046976           
       0.388820             0.00430839339            0.000530372611           
       0.389499             0.00396971928             0.00051196624           
       0.390178             0.00360652504            0.000489927617           
       0.390858             0.00335245255            0.000468533118           
       0.391537             0.00435564283              0.0005395073           
       0.392216             0.00483265904            0.000561159531           
       0.392895              0.0046695308            0.000553465453           
       0.393574             0.00411932091            0.000518547876           
       0.394253             0.00422097361            0.000527268416           
       0.394933             0.00447041994            0.000548825452           
       0.395612             0.00418556691            0.000515626512           
       0.396291             0.00470750698            0.000557964344           
       0.396970             0.00449006552            0.000540097714           
       0.397649             0.00419113931            0.000523416156           
       0.398328             0.00363908291            0.000485583464           
       0.399008             0.00413395979            0.000516423702           
       0.399687             0.00436015455            0.000532426502           
       0.400366             0.00497703581            0.000566669495           
       0.401045             0.00385986613            0.000498090973           
       0.401724             0.00381412462            0.000495957322           
       0.402403             0.00445685866            0.000540297673           
       0.403083             0.00394987084            0.000501305141           
       0.403762             0.00456448695            0.000541555547           
       0.404441              0.0044926357            0.000540698156           
       0.405120             0.00440388831            0.000533575564           
       0.405799              0.0037786966            0.000492105226           
       0.406478             0.00352776469            0.000475496887           
       0.407158             0.00464252264            0.000544451317           
       0.407837             0.00408443527            0.000515186502           
       0.408516             0.00386321828            0.000496682032           
       0.409195             0.00343976832             0.00047398795           
       0.409874             0.00456638236             0.00055371926           
       0.410553             0.00309393637            0.000460686097           
       0.411233             0.00380200332            0.000508041847           
       0.411912             0.00336751834             0.00048490718           
       0.412591             0.00321558563             0.00047697815           
       0.413270             0.00226752968            0.000398636238           
       0.413949             0.00324578489            0.000482145168           
       0.414628             0.00354302066            0.000502833659           
       0.415307             0.00332731112            0.000492706644           
       0.415987             0.00305898032            0.000468528917           
       0.416666              0.0033707197            0.000488864527           
       0.417345             0.00297536001            0.000466970527           
       0.418024              0.0035006727             0.00050653158           
       0.418703             0.00238516585            0.000417341413           
       0.419382             0.00342755856            0.000497841611           
       0.420062              0.0030935089            0.000474285156           
       0.420741             0.00363531874            0.000516878622           
       0.421420             0.00374102995             0.00052632847           
       0.422099             0.00285559478             0.00045985493           
       0.422778             0.00304501347            0.000477433249           
       0.423457             0.00233893912            0.000420995657           
       0.424137             0.00341921734            0.000500720821           
       0.424816             0.00326249719            0.000499332995           
       0.425495             0.00302930602            0.000480701772           
       0.426174              0.0021271007            0.000402949123           
       0.426853             0.00239828944            0.000425266259           
       0.427532             0.00351302585            0.000519047616           
       0.428212             0.00247802912            0.000438810667           
       0.428891              0.0030036348            0.000482012842           
       0.429570             0.00301623417            0.000483352999           
       0.430249             0.00152511494            0.000341918396           
       0.430928             0.00288358725            0.000480432366           
       0.431607             0.00276858573             0.00046266605           
       0.432287             0.00226892562            0.000421908183           
       0.432966             0.00215518863            0.000414814399           
       0.433645             0.00223717045            0.000423071731           
       0.434324             0.00251983639            0.000446297882           
       0.435003             0.00151099176            0.000346187057           
       0.435682             0.00239934104             0.00043981816           
       0.436361             0.00281201038            0.000475503805           
       0.437041             0.00192183047            0.000392575421           
       0.437720             0.00129822183            0.000324212504           
       0.438399             0.00229361332            0.000433187374           
       0.439078             0.00263397025            0.000477678494           
       0.439757             0.00198981297            0.000412622264           
       0.440436             0.00244937779            0.000468115768           
       0.441116             0.00242570081            0.000473465279           
       0.441795             0.00282446196            0.000511517275           
       0.442474             0.00273447957            0.000504706732           
       0.443153             0.00211654566            0.000454392465           
       0.443832              0.0020330042            0.000446085246           
       0.444511             0.00219926584            0.000461876974           
       0.445191             0.00282932711            0.000536618992           
       0.445870             0.00171468804            0.000417761946           
       0.446549             0.00154240683            0.000400397616           
       0.447228             0.00213993618            0.000468955288           
       0.447907             0.00242067476            0.000504753663           
       0.448586             0.00200265027            0.000470153496           
       0.449266             0.00271544217             0.00054243058           
       0.449945             0.00216411912            0.000482269094           
       0.450624              0.0020620106            0.000478230058           
       0.451303             0.00162309728            0.000429790858           
       0.451982             0.00282875223            0.000563883328           
       0.452661             0.00178431777            0.000456188568           
       0.453341             0.00331126836            0.000623626819           
       0.454020              0.0036864643            0.000659012917           
       0.454699             0.00160823148            0.000439249931           
       0.455378             0.00244473652            0.000541859203           
       0.456057              0.0027898884            0.000589141585           
       0.456736             0.00277752556            0.000586001739           
       0.457416             0.00300201743            0.000609240561           
       0.458095             0.00184567013            0.000484617758           
       0.458774             0.00163880478            0.000462687557           
       0.459453             0.00270535731             0.00059747726           
       0.460132             0.00132681623            0.000409385674           
       0.460811              0.0011790087            0.000400307891           
       0.461490             0.00232227175            0.000556099591           
       0.462170             0.00226875653            0.000558232353           
       0.462849             0.00246162211            0.000585247339           
       0.463528             0.00134523097            0.000431637242           
       0.464207              0.0015497188            0.000471952158           
       0.464886            0.000673607144            0.000308730783           
       0.465565             0.00199757484            0.000537493095           
       0.466245             0.00215278091             0.00055971488           
       0.466924              0.0025620741            0.000625032108           
       0.467603            0.000841882459            0.000350688373           
       0.468282             0.00135206776            0.000454959913           
       0.468961             0.00107139915            0.000407655426           
       0.469640             0.00187204499            0.000541009406           
       0.470320             0.00139925605             0.00046805333           
       0.470999             0.00142083317            0.000476096872           
       0.471678             0.00113941994            0.000430447533           
       0.472357             0.00163856556            0.000517631817           
       0.473036             0.00116672267            0.000439547249           
       0.473715             0.00102726479            0.000415668534           
       0.474395             0.00259896118            0.000670298202           
       0.475074            0.000889321644            0.000392112095           
       0.475753             0.00121355306            0.000454094788           
       0.476432             0.00277523141            0.000711699459           
       0.477111             0.00162966722             0.00053878144           
       0.477790            0.000939813507             0.00041133745           
       0.478470            0.000949544754            0.000418929301           
       0.479149             0.00116540846            0.000468911677           
       0.479828            0.000609627115            0.000338345601           
       0.480507           -0.000316030943                         0           
       0.481186             0.00065765663            0.000362240205           
       0.481865             0.00143404717            0.000528283695           
       0.482545             0.00106282346            0.000460137551           
       0.483224             0.00108603036            0.000468312277           
       0.483903            0.000309354357            0.000253881026           
       0.484582            0.000325837489            0.000264794084           
       0.485261           -0.000109562743                         0           
       0.485940            0.000766901203            0.000411915433           
       0.486619             -0.0001115631                         0           
       0.487299            0.000331265475            0.000272014105           
       0.487978             0.00161574813            0.000594624384           
       0.488657           -8.53588967e-05                         0           
       0.489336           -9.55413757e-05                         0           
       0.490015            0.000127424653            0.000172171688           
       0.490694           -7.53453431e-05                         0           
       0.491374            0.000155413906            0.000193019687           
       0.492053           -0.000316353873                         0           
       0.492732           -6.82593093e-05                         0           
       0.493411            0.000191882619            0.000220136064           
       0.494090            0.000449091693             0.00033932801           
       0.494769            0.000206369514            0.000234121693           
       0.495449           -0.000316450418                         0           
       0.496128           -5.16257172e-05                         0           
       0.496807             0.00022795272            0.000252089123           
       0.497486            -4.6406188e-05                         0           
       0.498165           -0.000316528246                         0           
       0.498844            0.000523722887            0.000383951233           
       0.499524           -4.03872369e-05                         0           
       0.500203           -2.93189704e-05                         0           
       0.500882           -0.000316606369                         0           
       0.501561           -0.000316625846                         0           
       0.502240           -0.000316645583                         0           
       0.502919           -4.49959582e-06                         0           
       0.503599            0.000281510051            0.000289942721           
       0.504278           -0.000316704967                         0           
       0.504957           -0.000316724737                         0           
       0.505636           -0.000316744381                         0           
       0.506315           -0.000316764348                         0           
       0.506994            0.000358201096            0.000346900147           
       0.507673            2.53293906e-05            9.33135299e-05           
       0.508353           -0.000316823511                         0           
       0.509032           -0.000316843409                         0           
       0.509711            1.68052975e-05            7.55776109e-05           
       0.510390           -0.000316883533                         0           
       0.511069            4.64925244e-05            0.000129284074           
       0.511748             0.00041396542            0.000388148059           
       0.512428           -0.000316943968                         0           
       0.513107           -0.000316963871                         0           
       0.513786           -0.000316983836                         0           
       0.514465           -0.000317004141                         0           
       0.515144            9.51842651e-05            0.000198743403           
       0.515823            0.000460587183            0.000426876479           
       0.516503           -0.000317064834                         0           
       0.517182           -0.000317085127                         0           
       0.517861            0.000939676616            0.000630063961           
       0.518540            -0.00031712573                         0           
       0.519219            -0.00031714597                         0           
       0.519898             0.00014330421            0.000257308007           
       0.520578           -0.000317186983                         0           
       0.521257           -0.000317207285                         0           
       0.521936           -0.000317227636                         0           
       0.522615           -0.000317248231                         0           
       0.523294           -0.000317268902                         0           
       0.523973           -0.000317289287                         0           
       0.524653           -0.000317309526                         0           
       0.525332            0.000148252964            0.000263841938           
       0.526011            0.000190916697            0.000312676083           
       0.526690           -0.000317371824                         0           
       0.527369            0.000209018214            0.000331499576           
       0.528048           -0.000317413352                         0           
       0.528728           -0.000317434165                         0           
       0.529407           -0.000317454881                         0           
       0.530086           -0.000317475491                         0           
       0.530765            0.000814485603            0.000680588445           
       0.531444            0.000708596943            0.000603842843           
       0.532123           -0.000317538223                         0           
       0.532802           -0.000317559281                         0           
       0.533482           -0.000317580266                         0           
       0.534161             0.00250334161             0.00118769997           
       0.534840           -0.000317622125                         0           
       0.535519            -0.00031764335                         0           
       0.536198           -0.000317664355                         0           
       0.536877           -0.000317685071                         0           
       0.537557           -0.000317706144                         0           
       0.538236           -0.000317727406                         0           
       0.538915            -0.00031774866                         0           
       0.539594           -0.000317769886                         0           
       0.540273            0.000289926733            0.000421658788           
       0.540952           -0.000317812761                         0           
       0.541632           -0.000317833689                         0           
       0.542311           -0.000317854809                         0           
       0.542990           -0.000317876166                         0           
       0.543669             -0.0003178977                         0           
       0.544348           -0.000317919209                         0           
       0.545027           -0.000317940672                         0           
       0.545707             -0.0003179622                         0           
       0.546386           -0.000317983788                         0           
       0.547065            0.000411109648            0.000549648657           
       0.547744           -0.000318026543                         0           
       0.548423           -0.000318048205                         0           
       0.549102            0.000485013981            0.000628939354           
       0.549782           -0.000318091464                         0           
       0.550461           -0.000318113295                         0           
       0.551140           -0.000318135258                         0           
       0.551819            -0.00031815696                         0           
       0.552498           -0.000318178849                         0           
       0.553177           -0.000318200362                         0           
       0.553856           -0.000318221951                         0           
       0.554536           -0.000318243612                         0           
       0.555215           -0.000318265603                         0           
       0.555894           -0.000318287542                         0           
       0.556573           -0.000318309612                         0           
       0.557252           -0.000318331663                         0           
       0.557931           -0.000318353614                         0           
       0.558611           -0.000318376079                         0           
       0.559290           -0.000318397972                         0           
       0.559969           -0.000318419327                         0           
       0.560648           -0.000318441248                         0           
       0.561327           -0.000318463657                         0           
       0.562006           -0.000318485963                         0           
       0.562686            -0.00031850828                         0           
       0.563365           -0.000318530681                         0           
       0.564044           -0.000318552968                         0           
       0.564723           -0.000318575206                         0           
       0.565402           -0.000318597029                         0           
       0.566081           -0.000318618998                         0           
       0.566761           -0.000318641203                         0           
       0.567440            -0.00031866386                         0           
       0.568119           -0.000318686337                         0           
       0.568798            -0.00031870913                         0           
       0.569477           -0.000318731777                         0           
       0.570156           -0.000318754534                         0           
       0.570836           -0.000318777205                         0           
       0.571515           -0.000318799397                         0           
       0.572194           -0.000318822233                         0           
       0.572873           -0.000318844545                         0           
       0.573552           -0.000318866727                         0           
       0.574231           -0.000318889358                         0           
       0.574911            -0.00031891256                         0           
       0.575590           -0.000318935315                         0           
       0.576269           -0.000318958001                         0           
       0.576948           -0.000318981123                         0           
       0.577627           -0.000319003539                         0           
       0.578306           -0.000319026272                         0           
       0.578985           -0.000319049199                         0           
       0.579665           -0.000319071994                         0           
       0.580344           -0.000319095134                         0           
       0.581023           -0.000319118248                         0           
       0.581702            -0.00031914115                         0           
       0.582381           -0.000319163843                         0           
       0.583060           -0.000319187213                         0           
       0.583740           -0.000319210216                         0           
       0.584419           -0.000319233295                         0           
       0.585098           -0.000319256347                         0           
       0.585777           -0.000319279578                         0           
       0.586456           -0.000319303187                         0           
       0.587135           -0.000319326169                         0           
       0.587815           -0.000319348903                         0           
       0.588494           -0.000319372345                         0           
       0.589173           -0.000319396325                         0           
       0.589852           -0.000319419031                         0           
       0.590531           -0.000319442593                         0           
       0.591210           -0.000319465611                         0           
       0.591890           -0.000319489074                         0           
       0.592569           -0.000319511752                         0           
       0.593248           -0.000319536546                         0           
       0.593927           -0.000319560119                         0           
       0.594606           -0.000319584177                         0           
       0.595285           -0.000319606801                         0           
       0.595965           -0.000319627913                         0           
       0.596644           -0.000319649639                         0           
