################################################################################
# EDF_DataBlockID                     0.Image.Psd
# EDF_BinarySize                      2105344
# EDF_HeaderSize                      2560
# ByteOrder                           LowByteFirst
# DataType                            FloatValue
# Dim_1                               512
# Dim_2                               1028
# Image                               0
# HeaderID                            EH:000000:000000:000000
# Size                                2105344
# Center_1                            304.9000
# Center_2                            588.7000
# Comment                             Xenocs_Cell_Window - 20251028_20perc_iodine_1.23mg
# DDummy                              0.6
# Date                                2025-11-03T10:21:00
# Delta                               21.910000
# Dummy                               -1.5
# ExposureTime                        360
# Gamma                               15.360000
# Intensity1                          8.69265e-10
# PSize_1                             7.5e-05
# PSize_2                             7.5e-05
# Pressure                            0.0330563
# SampleDistance                      0.115750
# SampleEnvKind                       large
# SampleEnvPN                         ElectroChemical cell
# SampleEnvSN                         1141
# Thickness                           0
# Wavelength                          1.541891e-10
# Wavelength                          1.54189e-10
# aux                                 0
# aux_dial                            0.002375
# beamx                               588.434
# beamx_dial                          588.434
# beamz                               657.808
# beamz_dial                          657.808
# det0x                               0
# det0x_dial                          6.36945
# det0xvd                             0
# det0xvd_dial                        0
# det0y                               450.002
# det0y_dial                          481.635
# det0z                               0
# det0z_dial                          1.23302
# det0zvd                             0
# det0zvd_dial                        0
# mag                                 1.818
# mag_dial                            1.818
# om                                  0.2499
# om_dial                             -0.610199
# phi                                 -0.0120535
# phi_dial                            0
# ry                                  0.599993
# ry_dial                             0.599993
# s1bot                               0.8
# s1bot_dial                          -1.66094
# s1hl                                0.8
# s1hl_dial                           -0.608437
# s1hr                                0.8
# s1hr_dial                           0.970938
# s1top                               0.8
# s1top_dial                          -0.461562
# s2bot                               0.45
# s2bot_dial                          1.36109
# s2hl                                0.45
# s2hl_dial                           -0.83375
# s2hr                                0.45
# s2hr_dial                           -0.118594
# s2top                               0.45
# s2top_dial                          1.44734
# w2theta                             32
# w2theta_dial                        32
# waxsch                              19.2605
# waxsch_dial                         -32.7355
# waxsh                               137.085
# waxsh_dial                          -43.5338
# waxsth                              26.0607
# waxsth_dial                         -19.4086
# waxsz                               67.0407
# waxsz_dial                          -23.7954
# wind                                65.9854
# wind_dial                           66.0041
# wpsi                                124
# wpsi_dial                           124
# wstod                               115
# wstod_dial                          115
# x                                   0
# x_dial                              1.00969
# z                                   0
# z_dial                              13.3172
# CountCutoff                         6807993
# DetectorModel                       Dectris EIGER2 Si 500K, S/N E-01-0554
# ThresholdSetting                    4023.88989258
# Saturation                          0
# FlatField                           Corrected
# BackgroundReductionExtra            0.02
# BackgroundCorrectionConstant        0.0026712
# Detector                            0
# Monitor                             0
# Pil_Roi0                            0
# SumForIntensity1                    3.12935e+08
# TransmittedFlux                     869265
# det                                 0
# mon                                 0
# pilai0                              3.12935e+08
# pilai1                              789895
# pilct0                              5.42506e+08
# pilct1                              789895
# pilroi0                             0
# pilroi1                             0
# sec                                 1
# title                               20251028_20perc_iodine_1.23mg_1_01272.edf
# usaxs0                              0
# Operation                           Azimuthal average I(q)
# Error_model                         ErrorModel.poisson
# Geometrical_correction              True
# Transmission_correction             True
# Thickness_correction                False
# Binning mode                        Uniform
# Binning factor                      1.0
# Psi                                 0.0
# Omega                               0.2499
# MaskInvalidPixels                   True
# DetectorEdge                        3
# MaskFiles                           ['WAXS_corrected.edf']
################################################################################
    q(A⁻¹)                Intensity(a.u.)            Sigma_I(a.u.)            
       0.693100             0.00814068841             0.00596579791           
       0.695741              0.0109825153             0.00565453114           
       0.698381           -2.33374559e-05                         0           
       0.701021             0.00867153212             0.00870078928           
       0.703662             0.00280712373             0.00285746535           
       0.706302             0.00499601922             0.00295134106           
       0.708942            -2.3274721e-05                         0           
       0.711583              0.0152382873              0.0057607931           
       0.714223             0.00577862526             0.00409568346           
       0.716864              0.0146749336             0.00427044345           
       0.719504             0.00723116205             0.00323486979           
       0.722144             0.00740921157             0.00303239361           
       0.724785             0.00541558763             0.00206801542           
       0.727425             0.00719033384             0.00322363271           
       0.730065             0.00713264208             0.00227110629           
       0.732706             0.00860913872             0.00209527408           
       0.735346             0.00687312268             0.00244040636           
       0.737987             0.00728826228             0.00177580047           
       0.740627             0.00669379168             0.00253924585           
       0.743267             0.00648360653             0.00167386003           
       0.745908              0.0102046107             0.00227833593           
       0.748548             0.00603203833             0.00161460398           
       0.751189             0.00629843351              0.0022231398           
       0.753829             0.00531553118             0.00187736597           
       0.756469             0.00899546093             0.00196933983           
       0.759110             0.00712950916             0.00184760574           
       0.761750              0.0104470186             0.00197759036           
       0.764390             0.00486450141             0.00141242301           
       0.767031             0.00672216565             0.00143780299           
       0.769671             0.00431107329             0.00143632302           
       0.772312             0.00804788556             0.00149400368           
       0.774952             0.00554489953             0.00167462406           
       0.777592              0.0096440526             0.00160863481           
       0.780233             0.00502763948             0.00140130771           
       0.782873             0.00712937597             0.00159595204           
       0.785513             0.00856964378             0.00187059271           
       0.788154             0.00768664683             0.00148200677           
       0.790794             0.00936254866             0.00195540987           
       0.793435             0.00953910907             0.00177314758           
       0.796075              0.0058053738             0.00133251539           
       0.798715             0.00637459905             0.00165004702           
       0.801356              0.0109727776             0.00186321978           
       0.803996             0.00949477557             0.00176701756           
       0.806637             0.00704522182             0.00121131772           
       0.809277             0.00756742963             0.00135883356           
       0.811917             0.00789293568             0.00129732563           
       0.814558             0.00805734399             0.00136230869           
       0.817198             0.00605026416             0.00112153229           
       0.819838             0.00808392929             0.00131204303           
       0.822479             0.00647237844             0.00137859874           
       0.825119             0.00656777432             0.00118197627           
       0.827760             0.00765203589             0.00129235249           
       0.830400             0.00613279463             0.00108892232           
       0.833040             0.00720437199             0.00123651507           
       0.835681             0.00767476345             0.00145087146           
       0.838321             0.00772986151             0.00122212608           
       0.840961             0.00774919506             0.00133322805           
       0.843602             0.00692714243             0.00115595755           
       0.846242             0.00711061916             0.00117099153           
       0.848883             0.00764770337             0.00124277451           
       0.851523             0.00964009288             0.00137796726           
       0.854163             0.00487203184             0.00104177162           
       0.856804             0.00754635991             0.00116576807           
       0.859444             0.00671938881             0.00107782618           
       0.862085             0.00449699947            0.000919003776           
       0.864725             0.00768108819             0.00122916817           
       0.867365             0.00761370595             0.00113478576           
       0.870006             0.00672944057             0.00101663063           
       0.872646             0.00675587091             0.00106816941           
       0.875286             0.00733963566             0.00107112393           
       0.877927             0.00521092271            0.000870895641           
       0.880567             0.00877493096             0.00117084371           
       0.883208              0.0042770555            0.000809727106           
       0.885848             0.00657998561             0.00104280221           
       0.888488             0.00710923486             0.00101665865           
       0.891129             0.00548981395            0.000917328165           
       0.893769             0.00575286428            0.000898693745           
       0.896410              0.0071734863             0.00093565115           
       0.899050             0.00664273351            0.000990164994           
       0.901690             0.00682986723             0.00109366428           
       0.904331             0.00770480603             0.00102982745           
       0.906971             0.00808600836             0.00112234168           
       0.909611             0.00851563231               0.001048481           
       0.912252             0.00895222692              0.0011103856           
       0.914892             0.00837232142             0.00117345565           
       0.917533             0.00616789179            0.000952799593           
       0.920173             0.00810096534             0.00101311218           
       0.922813             0.00920667346             0.00113338208           
       0.925454             0.00677336525            0.000875382074           
       0.928094             0.00861789942             0.00105414001           
       0.930734             0.00776726357             0.00107743296           
       0.933375              0.0064130861            0.000969391613           
       0.936015             0.00687833625            0.000911791535           
       0.938656             0.00877836503             0.00110500628           
       0.941296             0.00719718716             0.00090677492           
       0.943936             0.00757470827            0.000912257212           
       0.946577             0.00757209639            0.000906069878           
       0.949217             0.00705841364            0.000804454984           
       0.951858             0.00672472118            0.000821957238           
       0.954498             0.00700707996            0.000971169407           
       0.957138             0.00676312308            0.000903892082           
       0.959779             0.00832810305            0.000988786112           
       0.962419             0.00656413435            0.000872006274           
       0.965059             0.00756594789            0.000984623649           
       0.967700             0.00750844855             0.00100461071           
       0.970340             0.00734672491            0.000879355107           
       0.972981             0.00846141787            0.000859811182           
       0.975621             0.00781438491            0.000879022933           
       0.978261             0.00783883185             0.00083653183           
       0.980902             0.00917439342             0.00108277962           
       0.983542             0.00863314312            0.000930157281           
       0.986182             0.00860252904            0.000911602073           
       0.988823             0.00710538346            0.000804462855           
       0.991463             0.00808580401            0.000915578933           
       0.994104             0.00818022079            0.000898360872           
       0.996744             0.00790405942            0.000900720776           
       0.999384             0.00754795941            0.000787190518           
       1.002025             0.00901835704            0.000960382843           
       1.004665             0.00836259322            0.000845159286           
       1.007306             0.00802344894             0.00082360687           
       1.009946             0.00616303414            0.000736168617           
       1.012586             0.00800903646            0.000817340172           
       1.015227             0.00703433957            0.000822915481           
       1.017867             0.00730104598            0.000805732252           
       1.020507             0.00893418861            0.000863348869           
       1.023148             0.00669556662            0.000806463811           
       1.025788             0.00676157371             0.00074309972           
       1.028429              0.0087083594            0.000883514312           
       1.031069             0.00857467927            0.000825014769           
       1.033709             0.00840632652            0.000868340744           
       1.036350             0.00795160365            0.000758502229           
       1.038990             0.00683468026            0.000716138331           
       1.041630             0.00776512771            0.000796160517           
       1.044271             0.00771682978            0.000746427828           
       1.046911             0.00775878525            0.000787276179           
       1.049552             0.00927690418            0.000904441097           
       1.052192             0.00935312179            0.000829255038           
       1.054832             0.00688716209            0.000718063461           
       1.057473             0.00889757415            0.000804567334           
       1.060113             0.00719926009            0.000705823706           
       1.062754             0.00778753293            0.000749498036           
       1.065394             0.00781051516            0.000793581576           
       1.068034             0.00867302602            0.000760874463           
       1.070675             0.00734306266            0.000730300778           
       1.073315             0.00897705017            0.000819050764           
       1.075955             0.00950902873            0.000795811787           
       1.078596             0.00757206287            0.000754747351           
       1.081236             0.00862434427            0.000771304591           
       1.083877             0.00799662657            0.000736042356           
       1.086517             0.00916255322             0.00084483322           
       1.089157             0.00771184089            0.000804223495           
       1.091798             0.00972268429            0.000791680575           
       1.094438             0.00922139159            0.000768512878           
       1.097078             0.00824706423              0.0006970577           
       1.099719             0.00778822175            0.000732699863           
       1.102359             0.00822426673             0.00070512949           
       1.105000             0.00832425646            0.000793250784           
       1.107640             0.00801614959             0.00074430759           
       1.110280               0.008099368            0.000682639916           
       1.112921             0.00869362824            0.000759728386           
       1.115561             0.00847645284             0.00071298232           
       1.118202             0.00877516986            0.000726120137           
       1.120842             0.00982902518            0.000807683722           
       1.123482             0.00808486786            0.000729325807           
       1.126123             0.00719403592            0.000659881413           
       1.128763             0.00908043195            0.000746449357           
       1.131403             0.00962743236            0.000740615258           
       1.134044              0.0088829607            0.000732036423           
       1.136684             0.00981209588            0.000820280812           
       1.139325             0.00808010661             0.00068571493           
       1.141965             0.00977741216            0.000759291683           
       1.144605             0.00836027696            0.000669466821           
       1.147246             0.00947708408            0.000729469661           
       1.149886             0.00931243924            0.000720538397           
       1.152527              0.0105406141            0.000777729174           
       1.155167             0.00856879154            0.000666968448           
       1.157807              0.0089975872            0.000732783179           
       1.160448              0.0090574406            0.000717957672           
       1.163088              0.0101541059            0.000725100687           
       1.165728             0.00822875857            0.000670187296           
       1.168369             0.00960953358            0.000730927046           
       1.171009             0.00850696689            0.000667411445           
       1.173650             0.00815593728            0.000670643149           
       1.176290             0.00952811865            0.000708357345           
       1.178930             0.00784295291            0.000629875981           
       1.181571             0.00909697393            0.000691817678           
       1.184211             0.00947868787            0.000708686881           
       1.186851             0.00957375911            0.000696339038           
       1.189492             0.00950224109            0.000689066157           
       1.192132              0.0100386014            0.000700300068           
       1.194773             0.00891737674            0.000662917575           
       1.197413             0.00813961248            0.000606837663           
       1.200053             0.00899169059            0.000654015802           
       1.202694             0.00911722916             0.00062625814           
       1.205334             0.00978567386             0.00069921376           
       1.207975              0.0101322407            0.000679134997           
       1.210615             0.00940928603            0.000721978234           
       1.213255             0.00887864939            0.000628020252           
       1.215896              0.0108195038            0.000705833725           
       1.218536             0.00874373983             0.00061012099           
       1.221176             0.00986227494            0.000704477966           
       1.223817              0.0100497474            0.000667561225           
       1.226457             0.00931438361             0.00065562128           
       1.229098              0.0097442846            0.000670547893           
       1.231738             0.00954438451            0.000666900409           
       1.234378             0.00927600127            0.000617779759           
       1.237019             0.00970006571            0.000651005444           
       1.239659              0.0100791882            0.000657824951           
       1.242299             0.00943465612            0.000628358482           
       1.244940              0.0106405231            0.000648998274           
       1.247580              0.0103910026            0.000660957043           
       1.250221              0.0100586004            0.000646286714           
       1.252861              0.0112928445            0.000651924446           
       1.255501             0.00941760374            0.000646426545           
       1.258142              0.0110350759            0.000657531178           
       1.260782              0.0118521432            0.000696183708           
       1.263423              0.0102674461            0.000622628357           
       1.266063              0.0112951479            0.000669353227           
       1.268703              0.0102070224            0.000631015606           
       1.271344              0.0104118856            0.000658915766           
       1.273984              0.0101832869            0.000629357806           
       1.276624             0.00972043701            0.000603337096           
       1.279265              0.0106766459            0.000642817161           
       1.281905               0.010407443            0.000637478093           
       1.284546              0.0106879442            0.000624428819           
       1.287186               0.010991805             0.00062127852           
       1.289826              0.0105807949            0.000642418221           
       1.292467              0.0102935624            0.000619682084           
       1.295107               0.011147084            0.000638456113           
       1.297747              0.0102776967            0.000586641194           
       1.300388              0.0108919388            0.000658345767           
       1.303028              0.0116921913            0.000651175635           
       1.305669              0.0104200262            0.000629367551           
       1.308309              0.0098445664            0.000605717695           
       1.310949             0.00968838385            0.000600289797           
       1.313590              0.0100383138            0.000591934176           
       1.316230              0.0117126692            0.000682325974           
       1.318871              0.0106215655            0.000636367846           
       1.321511               0.010210997            0.000612382441           
       1.324151              0.0112970732            0.000625031182           
       1.326792               0.011307348            0.000629181301           
       1.329432              0.0102270923            0.000594149753           
       1.332072              0.0105829173            0.000595389957           
       1.334713              0.0111082001            0.000629567225           
       1.337353              0.0112248366            0.000606929037           
       1.339994              0.0106714139            0.000621012156           
       1.342634              0.0112584301            0.000611671439           
       1.345274              0.0122682574            0.000660802444           
       1.347915              0.0116959645            0.000627388463           
       1.350555              0.0115715874            0.000634973065           
       1.353195              0.0114755804            0.000635439164           
       1.355836              0.0113583745            0.000622328055           
       1.358476              0.0103416273            0.000576690583           
       1.361117              0.0108958002            0.000592752913           
       1.363757              0.0113878454            0.000624492848           
       1.366397              0.0112747782            0.000602581034           
       1.369038              0.0106376796            0.000591136653           
       1.371678              0.0105493885            0.000583488548           
       1.374319              0.0117223106            0.000609774791           
       1.376959               0.010606057            0.000574182858           
       1.379599              0.0119616403            0.000653492637           
       1.382240              0.0107775566            0.000582993857           
       1.384880              0.0106030851            0.000612504211           
       1.387520              0.0115666246            0.000607570702           
       1.390161              0.0122841486            0.000594675172           
       1.392801              0.0103461136            0.000568621418           
       1.395442              0.0111461973            0.000598259059           
       1.398082              0.0107779716            0.000550911721           
       1.400722              0.0105883294            0.000571967995           
       1.403363              0.0110189324            0.000614186126           
       1.406003              0.0116512625            0.000591058215           
       1.408644              0.0115972075            0.000617733948           
       1.411284              0.0113568881            0.000578846906           
       1.413924              0.0119072472            0.000590509233           
       1.416565              0.0108887853            0.000562472646           
       1.419205              0.0105874702            0.000578573497           
       1.421845              0.0104489533            0.000574438771           
       1.424486              0.0107041232            0.000558869175           
       1.427126              0.0114546669            0.000600565726           
       1.429767              0.0120285069            0.000579040167           
       1.432407              0.0104998208            0.000566164587           
       1.435047              0.0116016563            0.000558925737           
       1.437688              0.0112981413            0.000559813037           
       1.440328                0.01172555            0.000582058847           
       1.442968              0.0103443782            0.000558953506           
       1.445609              0.0114550718            0.000569537278           
       1.448249              0.0110744362            0.000574173581           
       1.450890              0.0109211622            0.000566464773           
       1.453530              0.0114364849            0.000606456905           
       1.456170              0.0109221284            0.000575192666           
       1.458811              0.0114762796            0.000563791676           
       1.461451              0.0111565478            0.000557340731           
       1.464092              0.0108306262            0.000552729633           
       1.466732               0.011259408            0.000558721798           
       1.469372               0.011245866            0.000545317762           
       1.472013                0.01115955            0.000585874679           
       1.474653              0.0106917535            0.000564617196           
       1.477293              0.0103179354            0.000566349324           
       1.479934              0.0116081611            0.000573209215           
       1.482574              0.0105344233            0.000528223436           
       1.485215              0.0103194365             0.00053254303           
       1.487855             0.00988670715            0.000528134027           
       1.490495              0.0108262383            0.000550623427           
       1.493136              0.0112958661            0.000554730013           
       1.495776              0.0104408682             0.00053089447           
       1.498416              0.0119356068            0.000586196928           
       1.501057              0.0106392255            0.000541250168           
       1.503697              0.0114244645            0.000548338312           
       1.506338              0.0110616433             0.00054942059           
       1.508978              0.0109974349            0.000542436224           
       1.511618             0.00976759203            0.000544432897           
       1.514259              0.0110148575            0.000558176119           
       1.516899               0.010979751            0.000542611729           
       1.519540              0.0105787058            0.000541198592           
       1.522180              0.0107862982            0.000551283502           
       1.524820             0.00994087303             0.00052626876           
       1.527461              0.0100113463            0.000530742854           
       1.530101              0.0110551335            0.000552146892           
       1.532741              0.0109608777            0.000546597433           
       1.535382             0.00993179009             0.00052868211           
       1.538022              0.0102975969            0.000507135603           
       1.540663              0.0119210755            0.000586879887           
       1.543303              0.0106732733            0.000515620126           
       1.545943              0.0115683364            0.000568168389           
       1.548584             0.00988317147            0.000534584656           
       1.551224             0.00973933566            0.000490664117           
       1.553864              0.0114163248            0.000561344015           
       1.556505              0.0105273706            0.000520732472           
       1.559145              0.0102746615             0.00052074632           
       1.561786             0.00956212573            0.000502752246           
       1.564426              0.0107718969             0.00051701125           
       1.567066              0.0100001693             0.00052196248           
       1.569707             0.00984412281            0.000508571371           
       1.572347              0.0107237342            0.000548376415           
       1.574988              0.0103390432            0.000512514759           
       1.577628               0.010743615            0.000544782375           
       1.580268             0.00996127671            0.000508254665           
       1.582909             0.00955183753            0.000527541836           
       1.585549             0.00880345391            0.000491750629           
       1.588189             0.00963381396            0.000503192193           
       1.590830             0.00931651453            0.000494215169           
       1.593470             0.00937368849             0.00051535815           
       1.596111              0.0101263428             0.00052295971           
       1.598751              0.0090165331            0.000478156941           
       1.601391              0.0092979595            0.000496274616           
       1.604032             0.00979123472            0.000519915026           
       1.606672             0.00970171485             0.00050283226           
       1.609312             0.00936172429            0.000515618687           
       1.611953             0.00984469649            0.000517416635           
       1.614593              0.0104274917            0.000522351797           
       1.617234             0.00874375409            0.000495723824           
       1.619874             0.00917045075            0.000505670005           
       1.622514             0.00905202026            0.000495540796           
       1.625155              0.0107573675            0.000543397584           
       1.627795             0.00834101158            0.000466767423           
       1.630436             0.00896618568            0.000481416927           
       1.633076             0.00896017807            0.000487567478           
       1.635716             0.00955202359            0.000495579953           
       1.638357              0.0102908348            0.000515744456           
       1.640997             0.00883527009            0.000492356322           
       1.643637             0.00932432618            0.000492199852           
       1.646278             0.00962784025            0.000515861097           
       1.648918              0.0091446805            0.000504122084           
       1.651559               0.008720797            0.000496120642           
       1.654199              0.0092299959             0.00049640803           
       1.656839             0.00910632207            0.000493243213           
       1.659480             0.00946347891            0.000521704811           
       1.662120             0.00891431544            0.000476890177           
       1.664761             0.00897867682            0.000497150856           
       1.667401             0.00854694905            0.000463605086           
       1.670041             0.00894625923            0.000481543367           
       1.672682             0.00876277345            0.000474620787           
       1.675322             0.00965514362            0.000494998168           
       1.677962             0.00936204285            0.000482050002           
       1.680603             0.00911895354             0.00047721453           
       1.683243             0.00790725591            0.000463627174           
       1.685884             0.00904093579            0.000499410883           
       1.688524             0.00876159978            0.000482131875           
       1.691164             0.00881697202            0.000483762759           
       1.693805             0.00950161851            0.000507710772           
       1.696445             0.00865754339            0.000487446394           
       1.699085             0.00916216278            0.000484648348           
       1.701726             0.00846372784            0.000448726384           
       1.704366             0.00834409878             0.00046936826           
       1.707007             0.00813564157            0.000453136954           
       1.709647             0.00840807534            0.000465863743           
       1.712287             0.00763614471            0.000447828304           
       1.714928             0.00873099202            0.000482718294           
       1.717568             0.00878405583            0.000456102275           
       1.720209             0.00914063176            0.000487335529           
       1.722849             0.00887516569            0.000477737895           
       1.725489             0.00971531703            0.000500258487           
       1.728130             0.00809150927             0.00048517622           
       1.730770             0.00952297391            0.000499886906           
       1.733410             0.00905296817            0.000479733503           
       1.736051             0.00930734969            0.000489812635           
       1.738691             0.00883408243            0.000467523585           
       1.741332             0.00959794161            0.000501566804           
       1.743972             0.00802333674            0.000473564052           
       1.746612             0.00937934575            0.000491670371           
       1.749253             0.00884161219            0.000486795464           
       1.751893             0.00829814842            0.000468135778           
       1.754533             0.00901764163            0.000487553134           
       1.757174             0.00801990758            0.000455484959           
       1.759814             0.00777092398             0.00044156254           
       1.762455             0.00832040504            0.000465297117           
       1.765095             0.00797562244            0.000435793346           
       1.767735             0.00865925956            0.000468095158           
       1.770376             0.00729218099            0.000430691105           
       1.773016             0.00871521961            0.000467689416           
       1.775657             0.00943580774            0.000479638038           
       1.778297             0.00809001865            0.000440294227           
       1.780937             0.00886165699            0.000486389045           
       1.783578             0.00876636596            0.000471670641           
       1.786218              0.0089412066            0.000497124419           
       1.788858             0.00847570992            0.000459693495           
       1.791499             0.00827331608            0.000449070988           
       1.794139             0.00841805517            0.000449307007           
       1.796780             0.00909575176            0.000464791151           
       1.799420             0.00859110249             0.00044921195           
       1.802060             0.00976863816             0.00048287831           
       1.804701             0.00903476049            0.000445645824           
       1.807341             0.00909872774            0.000469931635           
       1.809981             0.00862174148            0.000458973269           
       1.812622             0.00884441742            0.000456493464           
       1.815262             0.00849563365             0.00045690576           
       1.817903             0.00827241719            0.000444182991           
       1.820543             0.00849938187            0.000457250811           
       1.823183             0.00997648719            0.000495120399           
       1.825824              0.0086297043            0.000439933238           
       1.828464             0.00867691699            0.000459902334           
       1.831105             0.00850770493            0.000442805161           
       1.833745             0.00809449272            0.000441142438           
       1.836385             0.00836001234            0.000461113683           
       1.839026             0.00810885638            0.000452699538           
       1.841666             0.00805221647            0.000449516102           
       1.844306             0.00867637288             0.00045388103           
       1.846947             0.00829640752            0.000447721848           
       1.849587              0.0077282533            0.000477164746           
       1.852228             0.00905179223            0.000466962956           
       1.854868             0.00803968811            0.000464882763           
       1.857508             0.00829203241            0.000467491584           
       1.860149             0.00838454781            0.000478633191           
       1.862789             0.00797558837            0.000450583967           
       1.865429              0.0083776466            0.000482050163           
       1.868070             0.00799254876            0.000464565077           
       1.870710             0.00881400685            0.000476607534           
       1.873351             0.00821824744            0.000465907578           
       1.875991             0.00889924355            0.000492739382           
       1.878631             0.00780407172            0.000452587936           
       1.881272             0.00845966468            0.000468057528           
       1.883912             0.00798561447            0.000473266976           
       1.886553             0.00834202041            0.000478304967           
       1.889193             0.00916120964            0.000500383499           
       1.891833             0.00811674204            0.000489147964           
       1.894474             0.00860165601            0.000499162072           
       1.897114             0.00781060928            0.000460282405           
       1.899754             0.00852169803             0.00048279006           
       1.902395             0.00740566681            0.000441267816           
       1.905035             0.00765956908            0.000475321027           
       1.907676             0.00756933048             0.00044534472           
       1.910316             0.00767619198            0.000460385161           
       1.912956             0.00775839761            0.000452661148           
       1.915597             0.00862720126            0.000480001532           
       1.918237             0.00777054643            0.000470469476           
       1.920878             0.00733893246            0.000455345051           
       1.923518             0.00851172656            0.000490588356           
       1.926158              0.0072978519            0.000448366781           
       1.928799             0.00755505939            0.000450918909           
       1.931439             0.00777321618            0.000469379538           
       1.934079             0.00726110186             0.00047292346           
       1.936720             0.00841013366             0.00047157425           
       1.939360             0.00754053757            0.000476384306           
       1.942001             0.00886033071            0.000473301636           
       1.944641             0.00790894287            0.000455977824           
       1.947281             0.00824674821            0.000461322034           
       1.949922             0.00814803601            0.000473644428           
       1.952562             0.00749542448            0.000468520187           
       1.955202             0.00843222592            0.000496331223           
       1.957843             0.00785700479            0.000466678585           
       1.960483             0.00773002022            0.000483952969           
       1.963124             0.00815835219            0.000486980611           
       1.965764             0.00749168138            0.000440072964           
       1.968404             0.00709563542            0.000424236269           
       1.971045             0.00698316602            0.000429089572           
       1.973685             0.00838736129            0.000493263561           
       1.976326             0.00854174382            0.000490941118           
       1.978966             0.00731320106            0.000458252211           
       1.981606             0.00661625338            0.000444960245           
       1.984247             0.00802137101            0.000486715017           
       1.986887             0.00751641927            0.000465502685           
       1.989527             0.00803836756            0.000476209627           
       1.992168             0.00733620207            0.000472034198           
       1.994808              0.0070340163            0.000460228879           
       1.997449             0.00773592965            0.000472733829           
       2.000089             0.00820099391            0.000484806477           
       2.002729             0.00773465013            0.000471102924           
       2.005370             0.00829957645            0.000482753278           
       2.008010             0.00672310983            0.000453455294           
       2.010650             0.00653982619            0.000450568763           
       2.013291             0.00696073725            0.000445990412           
       2.015931              0.0074244062            0.000457349154           
       2.018572             0.00736774287            0.000487307882           
       2.021212             0.00704619461            0.000467993398           
       2.023852             0.00750507516            0.000457129171           
       2.026493             0.00744423012            0.000475613005           
       2.029133             0.00778496228            0.000476588093           
       2.031774             0.00797756427            0.000506317961           
       2.034414             0.00774882239             0.00045915512           
       2.037054             0.00742910772            0.000460978479           
       2.039695             0.00763577138            0.000463816608           
       2.042335              0.0076353088            0.000481992678           
       2.044975             0.00808001999            0.000489817566           
       2.047616             0.00779766308            0.000479987817           
       2.050256             0.00760504518            0.000478508358           
       2.052897             0.00755063231            0.000485583423           
       2.055537             0.00734600869            0.000462895209           
       2.058177             0.00759883807            0.000461033896           
       2.060818             0.00757416227            0.000482183902           
       2.063458             0.00802420265            0.000517196368           
       2.066098             0.00657832647            0.000441751645           
       2.068739             0.00748636962             0.00047858032           
       2.071379             0.00776130021            0.000499997466           
       2.074020             0.00730479022            0.000474528101           
       2.076660             0.00703876544            0.000469572884           
       2.079300             0.00871051078            0.000535167078           
       2.081941              0.0079944834            0.000469434675           
       2.084581             0.00773856069            0.000487497412           
       2.087222             0.00767989825            0.000468359296           
       2.089862             0.00707315187            0.000489549521           
       2.092502             0.00732061536            0.000482778357           
       2.095143             0.00767434109            0.000510443305           
       2.097783             0.00742074264             0.00048596111           
       2.100423              0.0069990748            0.000454769526           
       2.103064             0.00754150579            0.000489828924           
       2.105704             0.00749953961             0.00048604466           
       2.108345             0.00703319203            0.000452207374           
       2.110985             0.00767060506            0.000504402106           
       2.113625             0.00793557842            0.000517517194           
       2.116266             0.00778179158            0.000519748927           
       2.118906             0.00723552412            0.000467066379           
       2.121546             0.00807338799            0.000483948692           
       2.124187             0.00657872157            0.000458567952           
       2.126827             0.00696229029            0.000477011897           
       2.129468             0.00756427275            0.000498476463           
       2.132108             0.00780486421            0.000492631995           
       2.134748             0.00780214755            0.000490635279           
       2.137389             0.00764847371            0.000506788565           
       2.140029              0.0065977311            0.000421392115           
       2.142670             0.00676150457            0.000455906032           
       2.145310             0.00704642339            0.000452994312           
       2.147950             0.00774557101            0.000488838583           
       2.150591             0.00781777333            0.000486148509           
       2.153231             0.00664256968            0.000461271094           
       2.155871             0.00714032942            0.000462013142           
       2.158512              0.0068787546             0.00047316548           
       2.161152              0.0077940474            0.000487878976           
       2.163793             0.00720525943            0.000466977365           
       2.166433             0.00739725667            0.000485883617           
       2.169073             0.00739348962            0.000474945218           
       2.171714             0.00775633552            0.000482823417           
       2.174354             0.00745633049            0.000494652839           
       2.176995             0.00709475711            0.000480480133           
       2.179635             0.00713670509            0.000509229426           
       2.182275              0.0057758376            0.000432530853           
       2.184916             0.00725784823            0.000468308754           
       2.187556             0.00734559316             0.00046640902           
       2.190196              0.0073768973            0.000488428578           
       2.192837             0.00719055773            0.000479596624           
       2.195477             0.00732646498            0.000461539275           
       2.198118             0.00734200199            0.000473867204           
       2.200758             0.00750877252            0.000491649436           
       2.203398             0.00776205611             0.00050307061           
       2.206039             0.00747612157            0.000467262045           
       2.208679             0.00691533582            0.000459854444           
       2.211319             0.00627458974            0.000440558276           
       2.213960              0.0073123036             0.00048196776           
       2.216600             0.00745097985            0.000503290471           
       2.219241             0.00760442534             0.00048593741           
       2.221881             0.00773134168            0.000490983148           
       2.224521             0.00699295431            0.000472670975           
       2.227162             0.00705993195            0.000465419981           
       2.229802              0.0073378352            0.000489345316           
       2.232443             0.00730177077            0.000480441896           
       2.235083             0.00717200948            0.000490198976           
       2.237723             0.00678630048            0.000457592822           
       2.240364             0.00723046093            0.000483966338           
       2.243004             0.00739638804            0.000485580611           
       2.245644             0.00752643049             0.00049473365           
       2.248285             0.00759872681            0.000487145626           
       2.250925              0.0074961388            0.000486785224           
       2.253566             0.00681329554            0.000496142002           
       2.256206             0.00707926566            0.000495621054           
       2.258846             0.00691081139            0.000465829494           
       2.261487             0.00821177391            0.000532968795           
       2.264127             0.00729876202            0.000485275065           
       2.266767             0.00820078967            0.000528093171           
       2.269408             0.00697440639            0.000489002584           
       2.272048             0.00704925402            0.000488684972           
       2.274689             0.00761483988            0.000514603607           
       2.277329             0.00762465097            0.000484844499           
       2.279969             0.00688927636            0.000490570685           
       2.282610             0.00752694304            0.000498510185           
       2.285250             0.00818050729            0.000497425953           
       2.287891             0.00741198235            0.000507646575           
       2.290531             0.00725502199            0.000508994199           
       2.293171             0.00705545349            0.000488939594           
       2.295812             0.00797250174            0.000517655482           
       2.298452             0.00721335722            0.000514912648           
       2.301092             0.00706001586            0.000473304715           
       2.303733             0.00744623414            0.000505691354           
       2.306373               0.007085818            0.000501069968           
       2.309014             0.00728737766            0.000498233796           
       2.311654             0.00761430407            0.000531465231           
       2.314294             0.00702440842            0.000470291833           
       2.316935             0.00695790918            0.000469994196           
       2.319575             0.00683895157            0.000488217384           
       2.322215             0.00745444517            0.000531207517           
       2.324856              0.0081385077            0.000510307188           
       2.327496             0.00701636212            0.000503821658           
       2.330137             0.00725563894            0.000490271506           
       2.332777             0.00749581265            0.000513820889           
       2.335417             0.00643109856            0.000461725277           
       2.338058             0.00723034125            0.000504201108           
       2.340698             0.00746637091            0.000508338302           
       2.343339              0.0075303976            0.000521747557           
       2.345979             0.00738426494            0.000488801754           
       2.348619             0.00820891337            0.000534212089           
       2.351260             0.00620716108            0.000461827381           
       2.353900             0.00751861157            0.000506668677           
       2.356540             0.00635395774            0.000465115126           
       2.359181             0.00777672814             0.00050734699           
       2.361821             0.00719683649            0.000471457547           
       2.364462             0.00723483277            0.000494385534           
       2.367102             0.00738549987            0.000513323196           
       2.369742             0.00699508611             0.00052583329           
       2.372383             0.00665441437            0.000464401633           
       2.375023              0.0073148925            0.000511840963           
       2.377663             0.00763629967             0.00050003124           
       2.380304             0.00704120523            0.000488158427           
       2.382944             0.00758374782            0.000482536071           
       2.385585             0.00753921352            0.000513119762           
       2.388225             0.00650522186            0.000474396238           
       2.390865             0.00633688184            0.000463408227           
       2.393506             0.00698176532            0.000477239969           
       2.396146             0.00713586516            0.000521676969           
       2.398787             0.00628815836             0.00045130692           
       2.401427             0.00711808401            0.000463471324           
       2.404067             0.00703851486            0.000471153659           
       2.406708             0.00773730325            0.000488064799           
       2.409348             0.00747796347            0.000508938287           
       2.411988             0.00700830459             0.00048273409           
       2.414629             0.00756952585            0.000517315004           
       2.417269              0.0067554714            0.000494412794           
       2.419910             0.00710347632            0.000508164043           
       2.422550             0.00835507581            0.000527274586           
       2.425190             0.00677097893            0.000500346665           
       2.427831             0.00749964969            0.000523621606           
       2.430471             0.00729884444            0.000492126977           
       2.433112             0.00768064194              0.0004915883           
       2.435752             0.00644060846            0.000476409083           
       2.438392             0.00699366489            0.000479168502           
       2.441033             0.00801085398            0.000543499019           
       2.443673              0.0065975316             0.00049360988           
       2.446313              0.0067592428            0.000500063175           
       2.448954             0.00706314036            0.000486715841           
       2.451594             0.00682005597            0.000514248922           
       2.454235             0.00675788215            0.000480292452           
       2.456875             0.00708957937            0.000514743843           
       2.459515             0.00722471582            0.000533078272           
       2.462156             0.00817296571            0.000535311407           
       2.464796             0.00725171425            0.000497734134           
       2.467436              0.0073394686            0.000517820522           
       2.470077             0.00902819992            0.000544343088           
       2.472717             0.00817663526            0.000520279423           
       2.475358             0.00780156806            0.000513505688           
       2.477998             0.00702108768            0.000478930509           
       2.480638             0.00818864423            0.000526411727           
       2.483279             0.00642736024            0.000487436909           
       2.485919             0.00781592518            0.000518020624           
       2.488560             0.00686256224            0.000484043974           
       2.491200             0.00793934228            0.000536117163           
       2.493840             0.00741392604            0.000548189853           
       2.496481             0.00802280458               0.000560928           
       2.499121             0.00733153617            0.000521557781           
       2.501761             0.00766342133            0.000540297165           
       2.504402             0.00680225224            0.000501598096           
       2.507042              0.0070706371            0.000507609323           
       2.509683             0.00678350207            0.000489596734           
       2.512323             0.00662819811            0.000508278003           
       2.514963             0.00652544408             0.00049809217           
       2.517604             0.00683704435            0.000529043464           
       2.520244             0.00730616932            0.000512712782           
       2.522884             0.00873572247            0.000568650628           
       2.525525              0.0118220923            0.000669028848           
       2.528165             0.00873083668            0.000565982026           
       2.530806             0.00874171446             0.00057620584           
       2.533446             0.00729940855            0.000515291642           
       2.536086             0.00768413143             0.00052396473           
       2.538727             0.00641549335            0.000459299386           
       2.541367             0.00716892764            0.000490303516           
       2.544008             0.00797139958            0.000533952815           
       2.546648             0.00673463161            0.000499204699           
       2.549288             0.00692337056            0.000516464762           
       2.551929             0.00696991331             0.00050993768           
       2.554569             0.00692797208            0.000489801906           
       2.557209             0.00808156788            0.000533869953           
       2.559850             0.00772313206            0.000523572435           
       2.562490             0.00708577872            0.000518330637           
       2.565131             0.00718127115            0.000541037788           
       2.567771             0.00686011768            0.000509844089           
       2.570411             0.00686184882            0.000504391273           
       2.573052             0.00748385939            0.000533390139           
       2.575692             0.00724560219            0.000521652811           
       2.578332             0.00762058086             0.00053719327           
       2.580973             0.00698978068             0.00050958466           
       2.583613             0.00608288071            0.000464058955           
       2.586254             0.00731235348            0.000508092882           
       2.588894             0.00654666642            0.000499242062           
       2.591534             0.00636539025            0.000509603803           
       2.594175             0.00734315183              0.0005370166           
       2.596815             0.00738647301            0.000541774054           
       2.599456             0.00711808768            0.000504341766           
       2.602096             0.00775895603            0.000530563685           
       2.604736             0.00649839358            0.000497069087           
       2.607377             0.00688686281            0.000498225413           
       2.610017             0.00755564872             0.00051272413           
       2.612657             0.00684464058            0.000519065623           
       2.615298             0.00701373491            0.000512992949           
       2.617938              0.0059296014            0.000504579393           
       2.620579             0.00759436125            0.000548187387           
       2.623219             0.00607031839            0.000489406385           
       2.625859             0.00611024423             0.00047740257           
       2.628500             0.00709772019            0.000511162406           
       2.631140             0.00735441238             0.00052834082           
       2.633780             0.00651975476            0.000497024848           
       2.636421             0.00735862353            0.000541017966           
       2.639061             0.00704159351            0.000498214281           
       2.641702             0.00695998521            0.000506785785           
       2.644342             0.00691821794            0.000507415783           
       2.646982             0.00779757961            0.000530646297           
       2.649623             0.00756987448            0.000547916288           
       2.652263             0.00667186121            0.000509229121           
       2.654904             0.00705528554            0.000524183953           
       2.657544             0.00697392973             0.00049087203           
       2.660184             0.00634644374            0.000495564178           
       2.662825             0.00658873605            0.000516649729           
       2.665465             0.00753643812            0.000534415026           
       2.668105             0.00639938171            0.000519064116           
       2.670746              0.0063232772            0.000476644775           
       2.673386             0.00895791319            0.000584667472           
       2.676027             0.00802568798            0.000544527713           
       2.678667              0.0101131039            0.000596430239           
       2.681307               0.011305388            0.000619609195           
       2.683948              0.0140742599            0.000710313615           
       2.686588              0.0119788227            0.000644439087           
       2.689229             0.00962015396            0.000564327086           
       2.691869              0.0096261854            0.000596624558           
       2.694509               0.008787617            0.000570358802           
       2.697150             0.00746008138            0.000516988155           
       2.699790             0.00810402238            0.000564895419           
       2.702430             0.00734640114            0.000514112704           
       2.705071             0.00776266944            0.000546081835           
       2.707711              0.0078193718            0.000531945562           
       2.710352             0.00808101591            0.000571393356           
       2.712992             0.00607235722            0.000504472668           
       2.715632             0.00699506889            0.000502354275           
       2.718273             0.00716228179            0.000526808432           
       2.720913             0.00666000219            0.000506555145           
       2.723553             0.00644793975            0.000501769434           
       2.726194             0.00758750429            0.000568979276           
       2.728834             0.00772993137             0.00057456412           
       2.731475              0.0081393009            0.000544132512           
       2.734115             0.00753293001            0.000539717723           
       2.736755             0.00810216365            0.000564345648           
       2.739396             0.00724783057            0.000530670734           
       2.742036             0.00740537648            0.000561384314           
       2.744677             0.00716026903             0.00053560733           
       2.747317             0.00583331132            0.000479989223           
       2.749957             0.00628424098            0.000501692356           
       2.752598             0.00735925792            0.000548802262           
       2.755238             0.00757976485            0.000567017964           
       2.757878             0.00804226621             0.00057895437           
       2.760519             0.00852768419            0.000589849418           
       2.763159             0.00970294861            0.000622896121           
       2.765800             0.00777663388            0.000531429158           
       2.768440             0.00825354982             0.00055151536           
       2.771080             0.00876662562            0.000573143682           
       2.773721             0.00804252752            0.000563124793           
       2.776361             0.00656917637            0.000515958059           
       2.779001             0.00750857437            0.000571255348           
       2.781642             0.00718806633            0.000554811156           
       2.784282              0.0077835681            0.000586829508           
       2.786923             0.00599123133            0.000519383033           
       2.789563             0.00709076648            0.000544196267           
       2.792203             0.00689494889            0.000512634352           
       2.794844             0.00704296285            0.000567837356           
       2.797484             0.00729451625            0.000545386327           
       2.800125             0.00811371211             0.00060481871           
       2.802765             0.00686807717            0.000546885813           
       2.805405              0.0071824887            0.000561156484           
       2.808046             0.00825048828            0.000612004612           
       2.810686             0.00635012813            0.000493363102           
       2.813326             0.00685705688             0.00053253048           
       2.815967             0.00690513902            0.000549588659           
       2.818607             0.00709608904              0.0005316603           
       2.821248              0.0068596492             0.00051187555           
       2.823888             0.00723449781            0.000545664355           
       2.826528             0.00696529689            0.000518523776           
       2.829169             0.00672363922            0.000533619697           
       2.831809             0.00743935555            0.000568937872           
       2.834449             0.00753024528            0.000576020215           
       2.837090             0.00672383331            0.000525711468           
       2.839730             0.00675671338            0.000524422263           
       2.842371             0.00668729296            0.000522474247           
       2.845011             0.00603986345            0.000500496802           
       2.847651              0.0075816375            0.000561438651           
       2.850292             0.00754297578            0.000565501292           
       2.852932             0.00716680528            0.000563233031           
       2.855573              0.0062063893            0.000508427671           
       2.858213             0.00688864641            0.000562491646           
       2.860853             0.00714563711             0.00053291731           
       2.863494             0.00715574196            0.000552151513           
       2.866134             0.00665567233            0.000553477028           
       2.868774             0.00616836927            0.000523662848           
       2.871415             0.00738709192            0.000581990582           
       2.874055             0.00716695415            0.000547958816           
       2.876696             0.00747904885            0.000574903276           
       2.879336             0.00708858988            0.000539438492           
       2.881976             0.00768553088            0.000579347515           
       2.884617             0.00791740514            0.000579386098           
       2.887257             0.00706187938            0.000550012622           
       2.889897             0.00686040879            0.000530952948           
       2.892538             0.00615846877             0.00055110105           
       2.895178             0.00704170391            0.000532389981           
       2.897819             0.00631805867             0.00051442691           
       2.900459             0.00789961424            0.000564031213           
       2.903099             0.00726012307            0.000535184816           
       2.905740             0.00715165325            0.000544914399           
       2.908380             0.00607127898             0.00050777571           
       2.911021             0.00732777775            0.000566920438           
       2.913661             0.00678776066            0.000545467774           
       2.916301             0.00654055372            0.000535953436           
       2.918942             0.00698766872            0.000529885573           
       2.921582             0.00705520696             0.00055708582           
       2.924222              0.0068469335            0.000531683093           
       2.926863             0.00699336938             0.00055970016           
       2.929503             0.00788762403            0.000601451111           
       2.932144              0.0073929475            0.000558958555           
       2.934784             0.00649657152            0.000515386091           
       2.937424             0.00704976845            0.000542393019           
       2.940065             0.00661168222            0.000501058014           
       2.942705             0.00622397982            0.000485535414           
       2.945346             0.00777064946            0.000575750663           
       2.947986             0.00690769123            0.000553509459           
       2.950626             0.00773107279            0.000582272564           
       2.953267             0.00718269838            0.000552173954           
       2.955907             0.00699448054            0.000565249789           
       2.958547             0.00650445731            0.000514592919           
       2.961188             0.00696435315            0.000555519384           
       2.963828             0.00809650492             0.00058590682           
       2.966469             0.00719133083            0.000541691312           
       2.969109             0.00701320387            0.000542866447           
       2.971749             0.00701819308            0.000539671719           
       2.974390             0.00803825278            0.000567559341           
       2.977030             0.00783366226             0.00057281148           
       2.979670             0.00927343492            0.000606212927           
       2.982311             0.00807634824            0.000586354983           
       2.984951             0.00663220838             0.00050536234           
       2.987592             0.00725755571            0.000539239349           
       2.990232             0.00775531847            0.000579715678           
       2.992872             0.00815833553            0.000560068124           
       2.995513             0.00835334155            0.000554440809           
       2.998153              0.0121955721            0.000681180549           
       3.000794              0.0143902873            0.000716706877           
       3.003434              0.0122067481            0.000661092253           
       3.006074              0.0451592994             0.00125373449           
       3.008715               0.123580552             0.00200205246           
       3.011355               0.190303849             0.00239577878           
       3.013995               0.101613745             0.00175541239           
       3.016636              0.0629062872             0.00135250145           
       3.019276               0.125891689              0.0018807617           
       3.021917               0.483147375              0.0035427968           
       3.024557                1.64414531              0.0064254938           
       3.027197                 1.1753777             0.00529671129           
       3.029838               0.524811969             0.00358952054           
       3.032478                0.27061244             0.00258017887           
       3.035118               0.070965021             0.00133901638           
       3.037759               0.095933051             0.00155484519           
       3.040399               0.132021046             0.00188150062           
       3.043040               0.518208034             0.00377333875           
       3.045680               0.404887437             0.00313808738           
       3.048320              0.0857285412             0.00147539316           
       3.050961               0.107492819             0.00168120436           
       3.053601              0.0860842482             0.00144901736           
       3.056242              0.0556338888             0.00123851567           
       3.058882              0.0460622126             0.00120888146           
       3.061522              0.0361670968             0.00105096904           
       3.064163              0.0405459796             0.00109876158           
       3.066803               0.103311056             0.00184647113           
       3.069443              0.0975240708             0.00187699478           
       3.072084              0.0588399046             0.00141965581           
       3.074724              0.0395957221             0.00130057558           
       3.077365               0.082143075             0.00193914608           
       3.080005              0.0190999926            0.000940363201           
       3.082645               0.010472438            0.000731490422           
       3.085286              0.0122829158            0.000798451369           
       3.087926             0.00944822103            0.000694884479           
       3.090566               0.010571034            0.000720173043           
       3.093207              0.0103079503            0.000740030395           
       3.095847             0.00888827507            0.000658653969           
       3.098488             0.00762690774            0.000676530426           
       3.101128             0.00906419754            0.000742269829           
       3.103768             0.00907665743            0.000728805504           
       3.106409             0.00860313763            0.000755141806           
       3.109049             0.00926252639             0.00075193083           
       3.111690              0.0081408645            0.000692832444           
       3.114330             0.00796724693            0.000699985537           
       3.116970              0.0078757392            0.000701297021           
       3.119611              0.0133075897            0.000970341902           
       3.122251              0.0168246052             0.00114128248           
       3.124891              0.0375601725              0.0017211198           
       3.127532              0.0245599083             0.00136153491           
       3.130172              0.0138416201             0.00103979834           
       3.132813             0.00904100295            0.000827302751           
       3.135453              0.0068881575            0.000716168994           
       3.138093              0.0057724629            0.000710374974           
       3.140734             0.00655189617            0.000698221468           
       3.143374              0.0069129722             0.00075847354           
       3.146014             0.00616100994            0.000770843855           
       3.148655             0.00606902479             0.00071120135           
       3.151295             0.00662183086            0.000791661126           
       3.153936              0.0066248188            0.000764893286           
       3.156576             0.00625446508             0.00073309642           
       3.159216              0.0063286153            0.000741117725           
       3.161857             0.00668688549            0.000758706326           
       3.164497             0.00741680379            0.000839563966           
       3.167138             0.00993952107             0.00100422503           
       3.169778             0.00665520881            0.000808178605           
       3.172418             0.00711704298            0.000827248907           
       3.175059               0.006342369             0.00069232759           
       3.177699             0.00618211027            0.000723811386           
       3.180339             0.00758598536            0.000859060563           
       3.182980             0.00373711181            0.000623395532           
       3.185620             0.00561582321             0.00077826426           
       3.188261             0.00535496376            0.000773535853           
       3.190901             0.00622790583            0.000767227214           
       3.193541             0.00530297309            0.000743902024           
       3.196182             0.00612303585            0.000833042069           
       3.198822             0.00655520793            0.000862228371           
       3.201463             0.00611367898            0.000818338343           
       3.204103             0.00509189346            0.000742285316           
       3.206743             0.00736416214            0.000892590213           
       3.209384             0.00578415334            0.000854674605           
       3.212024              0.0050548541            0.000744898756           
       3.214664             0.00639221597            0.000952540695           
       3.217305             0.00586406685              0.0008672433           
       3.219945             0.00694203425            0.000971201112           
       3.222586             0.00578966956            0.000844792584           
       3.225226             0.00576880687            0.000935475752           
       3.227866             0.00632806713            0.000895501866           
       3.230507             0.00625074985            0.000922597085           
       3.233147             0.00539594134            0.000864116725           
       3.235787             0.00635136242            0.000959416257           
       3.238428             0.00624037781             0.00102624592           
       3.241068             0.00588282256            0.000931694576           
       3.243709             0.00518612801            0.000903793941           
       3.246349             0.00431669462            0.000751665412           
       3.248989             0.00511904817            0.000966521485           
       3.251630             0.00592434932             0.00100127003           
       3.254270             0.00647556882            0.000935568571           
       3.256911             0.00741024224             0.00109199787           
       3.259551             0.00576462794             0.00103691042           
       3.262191             0.00409269427            0.000892436629           
       3.264832             0.00616479243             0.00114442145           
       3.267472             0.00539884716             0.00100468494           
       3.270112             0.00612066396             0.00118220014           
       3.272753             0.00460075246            0.000938168733           
       3.275393             0.00697031422             0.00117826011           
       3.278034             0.00657417635              0.0011449331           
       3.280674              0.0049354185             0.00107648192           
       3.283314             0.00581524699             0.00104505331           
       3.285955             0.00559050499             0.00105722438           
       3.288595             0.00545451149             0.00116180761           
       3.291235             0.00521391129             0.00116769012           
       3.293876             0.00647016475              0.0013194709           
       3.296516             0.00869951744             0.00146882856           
       3.299157             0.00630152993             0.00123439736           
       3.301797             0.00501990059              0.0012567393           
       3.304437             0.00565455687             0.00115559541           
       3.307078             0.00629568487             0.00134318798           
       3.309718             0.00483557414             0.00121505134           
       3.312359             0.00426533471             0.00114143272           
       3.314999             0.00560112824             0.00128784424           
       3.317639             0.00433977222             0.00108414714           
       3.320280             0.00548970032             0.00129642276           
       3.322920             0.00506322033             0.00126600234           
       3.325560             0.00600641931             0.00137982455           
       3.328201             0.00848087955              0.0014766526           
       3.330841             0.00420836196             0.00126598138           
       3.333482             0.00643970428             0.00148027034           
       3.336122             0.00544955379             0.00136234824           
       3.338762             0.00452428653             0.00143391343           
       3.341403             0.00454828019             0.00137379004           
       3.344043             0.00342092485             0.00114387104           
       3.346683             0.00636790345             0.00159328915           
       3.349324             0.00555968588             0.00167384374           
       3.351964              0.0050360865             0.00168461799           
       3.354605             0.00740723692             0.00233656126           
       3.357245             0.00593467703             0.00188671089           
       3.359885             0.00813363709             0.00176780672           
       3.362526             0.00298017853             0.00133817145           
       3.365166             0.00690160652             0.00192073101           
       3.367807             0.00348624954             0.00174707556           
       3.370447             0.00540751969             0.00180490826           
       3.373087             0.00546221442             0.00193984802           
       3.375728             0.00518652798             0.00213334417           
       3.378368             0.00373850331             0.00268807478           
       3.381008             0.00968018546             0.00322487167           
       3.383649             0.00484632224             0.00183046404           
       3.386289              0.0087218242             0.00290629211           
       3.388930             0.00488852219             0.00344165797           
       3.391570             0.00239312025             0.00170342753           
       3.394210             0.00191729611             0.00192954968           
       3.396851             0.00474172756             0.00339432533           
       3.399491             0.00958343757             0.00482689571           
       3.402131              0.0192294753             0.00967358524           
       3.404772           -2.60107855e-05                         0           
       3.407412                       nan                       nan           
       3.410053             0.00911142536             0.00943085054           
       3.412693                       nan                       nan           
       3.415333             0.00885179205             0.00930438925           
