################################################################################
# EDF_DataBlockID                     0.Image.Psd
# EDF_BinarySize                      2105344
# EDF_HeaderSize                      2560
# ByteOrder                           LowByteFirst
# DataType                            FloatValue
# Dim_1                               512
# Dim_2                               1028
# Image                               0
# HeaderID                            EH:000000:000000:000000
# Size                                2105344
# Center_1                            304.9000
# Center_2                            588.7000
# Comment                             Xenocs_Cell_Window - 20251028_20perc_iodine_1.23mg
# DDummy                              0.6
# Date                                2025-10-30T05:44:35
# Delta                               21.910000
# Dummy                               -1.5
# ExposureTime                        360
# Gamma                               15.360000
# Intensity1                          8.52894e-10
# PSize_1                             7.5e-05
# PSize_2                             7.5e-05
# Pressure                            0.0325069
# SampleDistance                      0.115750
# SampleEnvKind                       large
# SampleEnvPN                         ElectroChemical cell
# SampleEnvSN                         1141
# Thickness                           0
# Wavelength                          1.541891e-10
# Wavelength                          1.54189e-10
# aux                                 0
# aux_dial                            0.002375
# beamx                               588.434
# beamx_dial                          588.434
# beamz                               657.808
# beamz_dial                          657.808
# det0x                               0
# det0x_dial                          6.36945
# det0xvd                             0
# det0xvd_dial                        0
# det0y                               450.002
# det0y_dial                          481.635
# det0z                               0
# det0z_dial                          1.23302
# det0zvd                             0
# det0zvd_dial                        0
# mag                                 1.818
# mag_dial                            1.818
# om                                  0.2499
# om_dial                             -0.610199
# phi                                 -0.0120535
# phi_dial                            0
# ry                                  0.599993
# ry_dial                             0.599993
# s1bot                               0.8
# s1bot_dial                          -1.66094
# s1hl                                0.8
# s1hl_dial                           -0.608437
# s1hr                                0.8
# s1hr_dial                           0.970938
# s1top                               0.8
# s1top_dial                          -0.461562
# s2bot                               0.45
# s2bot_dial                          1.36109
# s2hl                                0.45
# s2hl_dial                           -0.83375
# s2hr                                0.45
# s2hr_dial                           -0.118594
# s2top                               0.45
# s2top_dial                          1.44734
# w2theta                             32
# w2theta_dial                        32
# waxsch                              19.2605
# waxsch_dial                         -32.7355
# waxsh                               137.085
# waxsh_dial                          -43.5338
# waxsth                              26.0607
# waxsth_dial                         -19.4086
# waxsz                               67.0407
# waxsz_dial                          -23.7954
# wind                                65.9854
# wind_dial                           66.0041
# wpsi                                124
# wpsi_dial                           124
# wstod                               115
# wstod_dial                          115
# x                                   0
# x_dial                              1.00969
# z                                   0
# z_dial                              13.3172
# CountCutoff                         6807993
# DetectorModel                       Dectris EIGER2 Si 500K, S/N E-01-0554
# ThresholdSetting                    4023.88989258
# Saturation                          0
# FlatField                           Corrected
# BackgroundReductionExtra            0.02
# BackgroundCorrectionConstant        0.0026712
# Detector                            0
# Monitor                             0
# Pil_Roi0                            0
# SumForIntensity1                    3.07042e+08
# TransmittedFlux                     852894
# det                                 0
# mon                                 0
# pilai0                              3.07042e+08
# pilai1                              768233
# pilct0                              5.31838e+08
# pilct1                              768233
# pilroi0                             0
# pilroi1                             0
# sec                                 1
# title                               20251028_20perc_iodine_1.23mg_1_00358.edf
# usaxs0                              0
# Operation                           Azimuthal average I(q)
# Error_model                         ErrorModel.poisson
# Geometrical_correction              True
# Transmission_correction             True
# Thickness_correction                False
# Binning mode                        Uniform
# Binning factor                      1.0
# Psi                                 0.0
# Omega                               0.2499
# MaskInvalidPixels                   True
# DetectorEdge                        3
# MaskFiles                           ['WAXS_corrected.edf']
################################################################################
    q(A⁻¹)                Intensity(a.u.)            Sigma_I(a.u.)            
       0.693100             0.00412925125             0.00428945576           
       0.695741             0.00844354519             0.00500537562           
       0.698381              0.0212067394             0.00971681792           
       0.701021            -2.3767583e-05                         0           
       0.703662             0.00849972947             0.00501974105           
       0.706302              0.0120733573             0.00463180155           
       0.708942              0.0085698602             0.00503667399           
       0.711583              0.0088028619             0.00442033018           
       0.714223             0.00875927227             0.00509069055           
       0.716864              0.0100422793             0.00356639644           
       0.719504               0.010325844             0.00390251072           
       0.722144              0.0100901212              0.0035725337           
       0.724785             0.00479163556              0.0019638189           
       0.727425             0.00594478317             0.00295915425           
       0.730065             0.00956190737              0.0026546855           
       0.732706             0.00768049931             0.00199794847           
       0.735346              0.0052877203             0.00216096585           
       0.737987             0.00565214806             0.00157876505           
       0.740627             0.00878612752             0.00293694607           
       0.743267             0.00656061011             0.00169985351           
       0.745908             0.00572379405             0.00172262246           
       0.748548             0.00657868859             0.00170228473           
       0.751189             0.00481030981             0.00196139738           
       0.753829               0.010110713             0.00261393669           
       0.756469             0.00740433437             0.00180376739           
       0.759110             0.00685554594             0.00182906474           
       0.761750             0.00567244007             0.00147113889           
       0.764390             0.00793352874             0.00182098926           
       0.767031             0.00501326974             0.00125352755           
       0.769671             0.00685819741              0.0018289127           
       0.772312             0.00590155094             0.00129158329           
       0.774952              0.0051561125             0.00163027266           
       0.777592             0.00434603045             0.00109019108           
       0.780233             0.00670980701             0.00163431222           
       0.782873             0.00799545738             0.00170625643           
       0.785513             0.00620399865             0.00160680165           
       0.788154             0.00810903494             0.00153672047           
       0.790794             0.00826975005             0.00185530587           
       0.793435               0.010738308             0.00189927334           
       0.796075             0.00588987198             0.00135499794           
       0.798715              0.0065097921             0.00168337941           
       0.801356             0.00768627368             0.00157431737           
       0.803996              0.0053593596             0.00134024295           
       0.806637             0.00743258983             0.00125605711           
       0.809277             0.00820818671             0.00142871054           
       0.811917             0.00695808923             0.00122971163           
       0.814558             0.00935466447             0.00148191143           
       0.817198             0.00658335438             0.00118107315           
       0.819838             0.00671866428             0.00120755484           
       0.822479             0.00748475719             0.00149666068           
       0.825119              0.0058234588             0.00112361808           
       0.827760             0.00916259247              0.0014276779           
       0.830400             0.00686799355             0.00116335214           
       0.833040             0.00604968664             0.00114392185           
       0.835681             0.00865494103              0.0015554536           
       0.838321             0.00728874755             0.00119807823           
       0.840961             0.00910356088             0.00145884907           
       0.843602              0.0062311334              0.0011068198           
       0.846242             0.00745495774             0.00121046213           
       0.848883             0.00679869791              0.0011829551           
       0.851523              0.0080159961             0.00126854421           
       0.854163             0.00569549424             0.00113713425           
       0.856804             0.00807272122             0.00121725606           
       0.859444              0.0068556747             0.00109910077           
       0.862085              0.0078382252             0.00122487935           
       0.864725             0.00885520093             0.00133237877           
       0.867365             0.00620470168             0.00103420075           
       0.870006              0.0077993293             0.00110492018           
       0.872646             0.00705446908             0.00110194571           
       0.875286             0.00875240668             0.00118085013           
       0.877927             0.00754507291             0.00105795961           
       0.880567             0.00574108641              0.0009560986           
       0.883208             0.00842767698             0.00114748956           
       0.885848             0.00822660034             0.00117714033           
       0.888488             0.00634964139            0.000969989196           
       0.891129             0.00764520104             0.00109287109           
       0.893769             0.00772003284             0.00105101229           
       0.896410             0.00768161892             0.00097747074           
       0.899050             0.00768571053             0.00107523832           
       0.901690             0.00586853149             0.00102346073           
       0.904331             0.00786381811             0.00105033759           
       0.906971             0.00809083062             0.00113339977           
       0.909611             0.00630945355            0.000911122045           
       0.912252             0.00686058589            0.000981335363           
       0.914892              0.0078658301             0.00114827149           
       0.917533             0.00779195401              0.0010811475           
       0.920173             0.00903762911             0.00108030149           
       0.922813              0.0072280113             0.00101382489           
       0.925454             0.00945437826             0.00104409606           
       0.928094             0.00627773572            0.000908296559           
       0.930734             0.00747663514             0.00106718054           
       0.933375              0.0085062713             0.00112710378           
       0.936015             0.00699287422            0.000928133141           
       0.938656             0.00782099299             0.00105297351           
       0.941296             0.00676301853             0.00088739496           
       0.943936             0.00772277764            0.000929928767           
       0.946577             0.00994198783             0.00104813882           
       0.949217             0.00652282985            0.000780719067           
       0.951858             0.00830378157            0.000922101245           
       0.954498             0.00726726146            0.000998482405           
       0.957138             0.00688017147            0.000920388396           
       0.959779             0.00778521338            0.000965146277           
       0.962419             0.00837523273             0.00099439261           
       0.965059             0.00794219482             0.00101844463           
       0.967700             0.00847041872             0.00107721826           
       0.970340             0.00749002458            0.000896370571           
       0.972981             0.00684049343             0.00078046566           
       0.975621             0.00888816374              0.0009464276           
       0.978261             0.00708842226            0.000803082484           
       0.980902             0.00765106537            0.000998253671           
       0.983542              0.0089946927            0.000958503388           
       0.986182             0.00710376973            0.000836306044           
       0.988823             0.00808836079            0.000866504975           
       0.991463             0.00803803082            0.000921589646           
       0.994104             0.00732297654            0.000858105536           
       0.996744             0.00890850661            0.000965375122           
       0.999384              0.0074628295            0.000790215244           
       1.002025             0.00815252632            0.000921839583           
       1.004665             0.00696544303            0.000778701518           
       1.007306             0.00689319303            0.000770687298           
       1.009946             0.00861568283            0.000878725908           
       1.012586             0.00875976629            0.000862953782           
       1.015227             0.00961609783            0.000971340667           
       1.017867              0.0100803546            0.000955794834           
       1.020507             0.00894326787            0.000872038086           
       1.023148             0.00871557673            0.000928897617           
       1.025788             0.00789523698            0.000810651809           
       1.028429             0.00968571547             0.00094067551           
       1.031069             0.00922992239            0.000864132567           
       1.033709             0.00821471227            0.000866586257           
       1.036350             0.00921653934            0.000824407639           
       1.038990             0.00826619358            0.000795095273           
       1.041630             0.00906960068            0.000868658323           
       1.044271             0.00904247514            0.000815719024           
       1.046911             0.00807598893            0.000810880152           
       1.049552             0.00729002236            0.000809415935           
       1.052192             0.00765055888            0.000757155309           
       1.054832             0.00854472175             0.00080745849           
       1.057473             0.00897440677             0.00081575178           
       1.060113             0.00747860187            0.000726258257           
       1.062754             0.00838817474            0.000785295037           
       1.065394              0.0079729379            0.000809449007           
       1.068034             0.00720208257            0.000699979464           
       1.070675             0.00844449813            0.000790639733           
       1.073315             0.00791219688            0.000776284837           
       1.075955             0.00841429516            0.000755752733           
       1.078596             0.00812764735              0.0007894152           
       1.081236             0.00891742951            0.000791792318           
       1.083877             0.00917468617            0.000795927619           
       1.086517             0.00999439812            0.000890778276           
       1.089157             0.00812921232             0.00083358622           
       1.091798             0.00937956801            0.000785013061           
       1.094438             0.00914584152              0.0007726687           
       1.097078             0.00836665212            0.000708799599           
       1.099719             0.00807442931            0.000753167275           
       1.102359              0.0106658128            0.000810673227           
       1.105000             0.00763675278            0.000767044777           
       1.107640             0.00901858824            0.000797016638           
       1.110280             0.00818679523             0.00069286982           
       1.112921             0.00811204568             0.00074088633           
       1.115561              0.0083227574             0.00071323701           
       1.118202             0.00735463753            0.000671104142           
       1.120842             0.00710775788            0.000693395448           
       1.123482             0.00858748245            0.000758833712           
       1.126123             0.00893959443            0.000742620733           
       1.128763             0.00943633263             0.00076820527           
       1.131403             0.00817935182            0.000689168515           
       1.134044             0.00861441866            0.000727772053           
       1.136684             0.00979582253            0.000827428893           
       1.139325             0.00924562631            0.000740511478           
       1.141965              0.0089474997            0.000733290561           
       1.144605             0.00924371011             0.00071067404           
       1.147246             0.00915116665            0.000723663498           
       1.149886             0.00924721142            0.000724868727           
       1.152527             0.00939841371            0.000741397779           
       1.155167             0.00921195514            0.000698151982           
       1.157807             0.00942688258             0.00075722523           
       1.160448             0.00818908624             0.00068919542           
       1.163088             0.00757869303            0.000632416509           
       1.165728             0.00995058561            0.000744015389           
       1.168369             0.00894828048            0.000712067623           
       1.171009              0.0101706883            0.000736732822           
       1.173650             0.00972022565             0.00073913079           
       1.176290             0.00939603151            0.000710149233           
       1.178930             0.00783697131            0.000635649836           
       1.181571              0.0107774859            0.000760204575           
       1.184211              0.0110560066            0.000772694806           
       1.186851              0.0106366437            0.000740986622           
       1.189492             0.00988017017            0.000709346904           
       1.192132             0.00988852339            0.000701684452           
       1.194773             0.00752271752            0.000614691092           
       1.197413             0.00853307877            0.000627266519           
       1.200053             0.00897077803            0.000659494514           
       1.202694             0.00973043605            0.000653155618           
       1.205334             0.00900267875            0.000677062938           
       1.207975             0.00912681359            0.000650716052           
       1.210615             0.00902947891            0.000714012279           
       1.213255              0.0103034134            0.000682997834           
       1.215896             0.00928328874            0.000660052121           
       1.218536              0.0100409556            0.000660060043           
       1.221176              0.0104542897            0.000732242098           
       1.223817              0.0103428017            0.000683693101           
       1.226457             0.00972394199            0.000676278729           
       1.229098               0.010529898            0.000703712834           
       1.231738              0.0102566035            0.000697938845           
       1.234378              0.0101659995            0.000652915358           
       1.237019             0.00975024657            0.000658921454           
       1.239659             0.00983555686            0.000656032883           
       1.242299              0.0108575856            0.000680518039           
       1.244940              0.0101286125            0.000639242434           
       1.247580               0.010200271            0.000661117922           
       1.250221              0.0109495478            0.000680742884           
       1.252861             0.00957356072            0.000605983652           
       1.255501              0.0109472843            0.000703607955           
       1.258142             0.00985407405             0.00062728538           
       1.260782              0.0099989637             0.00064555236           
       1.263423              0.0104685162             0.00063470046           
       1.266063             0.00984380113            0.000630840234           
       1.268703             0.00928137987              0.0006074708           
       1.271344              0.0111642927            0.000688825759           
       1.273984              0.0107379642            0.000652443904           
       1.276624              0.0103181586            0.000627547784           
       1.279265              0.0103974695            0.000640416391           
       1.281905              0.0112115458            0.000667966312           
       1.284546             0.00989198669            0.000606465609           
       1.287186              0.0104442673            0.000611391487           
       1.289826              0.0106960826            0.000652078142           
       1.292467              0.0106803981            0.000637247847           
       1.295107             0.00946257878            0.000593859535           
       1.297747             0.00962788369            0.000573216446           
       1.300388              0.0100002762            0.000636848332           
       1.303028              0.0101583803            0.000612760818           
       1.305669              0.0114974581            0.000667420325           
       1.308309              0.0106283518             0.00063537993           
       1.310949              0.0101725941             0.00062098301           
       1.313590              0.0109467529            0.000624042626           
       1.316230              0.0106636191            0.000657271566           
       1.318871              0.0112514643            0.000661221631           
       1.321511              0.0111950025            0.000647335345           
       1.324151               0.011608948            0.000639651927           
       1.326792              0.0110247665            0.000627203823           
       1.329432              0.0107743491             0.00061566423           
       1.332072              0.0100335756            0.000585268613           
       1.334713              0.0114846152            0.000646259668           
       1.337353              0.0109554297            0.000605328578           
       1.339994              0.0112171724            0.000642775602           
       1.342634              0.0119119602            0.000635183881           
       1.345274              0.0108962509            0.000628705582           
       1.347915              0.0100392163            0.000586809288           
       1.350555              0.0121488038            0.000656831784           
       1.353195              0.0106226226            0.000617207352           
       1.355836              0.0114267499            0.000630160556           
       1.358476              0.0110338038            0.000601367031           
       1.361117              0.0126451937            0.000644667001           
       1.363757              0.0104937046            0.000605201048           
       1.366397              0.0119145721            0.000625358774           
       1.369038              0.0112228523            0.000612977632           
       1.371678               0.011061909            0.000603201348           
       1.374319              0.0119637239            0.000621905805           
       1.376959              0.0108911755            0.000587407095           
       1.379599              0.0121057161            0.000663695906           
       1.382240              0.0101126808            0.000570119034           
       1.384880               0.010334432            0.000610470708           
       1.387520              0.0111545601            0.000602349141           
       1.390161              0.0107282451            0.000561048217           
       1.392801              0.0106825268            0.000583310985           
       1.395442              0.0114249388            0.000611478834           
       1.398082              0.0117092856            0.000579705288           
       1.400722              0.0112316475            0.000594714196           
       1.403363              0.0118900666             0.00064409652           
       1.406003               0.011176815             0.00058442847           
       1.408644              0.0104578448            0.000592208201           
       1.411284              0.0112754966            0.000582278091           
       1.413924              0.0113481576             0.00058198562           
       1.416565              0.0111353473            0.000574238281           
       1.419205               0.011470363             0.00060796641           
       1.421845              0.0105786514            0.000583513719           
       1.424486               0.011258837            0.000578641982           
       1.427126              0.0115439952            0.000608661663           
       1.429767              0.0114095802            0.000569332833           
       1.432407              0.0114546715            0.000596996307           
       1.435047              0.0109714065            0.000548723842           
       1.437688              0.0109290305            0.000555851645           
       1.440328              0.0106219187            0.000559281351           
       1.442968              0.0119044839             0.00060535111           
       1.445609              0.0114175748            0.000574035497           
       1.448249              0.0110671815            0.000579468025           
       1.450890               0.010818523            0.000569181837           
       1.453530              0.0103388905            0.000582128951           
       1.456170              0.0109803474            0.000582232318           
       1.458811              0.0110631626            0.000558838494           
       1.461451             0.00958401119            0.000521504537           
       1.464092              0.0117832972            0.000582033455           
       1.466732              0.0113113391            0.000565357834           
       1.469372              0.0105267744             0.00053263465           
       1.472013               0.011065481            0.000588972616           
       1.474653              0.0111018083            0.000580838054           
       1.477293              0.0121292946            0.000619918108           
       1.479934              0.0115007204            0.000576000074           
       1.482574              0.0113905396             0.00055451462           
       1.485215              0.0105008474            0.000542334776           
       1.487855              0.0114559217             0.00057393393           
       1.490495              0.0106648608            0.000551724229           
       1.493136              0.0103917474            0.000537148978           
       1.495776              0.0113331259            0.000558397309           
       1.498416              0.0120347157            0.000594248058           
       1.501057              0.0101820343            0.000534550673           
       1.503697              0.0115086471            0.000555611681           
       1.506338              0.0115589316            0.000566999298           
       1.508978              0.0108659817            0.000544334719           
       1.511618              0.0114278775            0.000594513827           
       1.514259              0.0106996481             0.00055538625           
       1.516899              0.0101550343            0.000526819931           
       1.519540              0.0110488374            0.000558376646           
       1.522180              0.0112163281            0.000567535071           
       1.524820              0.0109178735            0.000556791919           
       1.527461              0.0111517006            0.000565505757           
       1.530101              0.0106768626            0.000547801266           
       1.532741              0.0110584899            0.000554270035           
       1.535382              0.0111673059            0.000565957243           
       1.538022              0.0102206759            0.000510063837           
       1.540663              0.0111270856            0.000572414714           
       1.543303              0.0111423087             0.00053185985           
       1.545943              0.0116705273            0.000576123273           
       1.548584             0.00977527551            0.000536736827           
       1.551224              0.0107313461            0.000519966422           
       1.553864              0.0102977124            0.000538226263           
       1.556505              0.0108021342            0.000532522615           
       1.559145              0.0111840246            0.000548491717           
       1.561786             0.00953179083            0.000506748666           
       1.564426              0.0109221928            0.000525578254           
       1.567066              0.0116974014            0.000569913407           
       1.569707              0.0109941934             0.00054259233           
       1.572347              0.0101498464            0.000538597148           
       1.574988              0.0100861297            0.000511042529           
       1.577628              0.0095659406             0.00051896759           
       1.580268             0.00923122367             0.00049394896           
       1.582909              0.0100398335            0.000546015868           
       1.585549             0.00910417959            0.000504855802           
       1.588189             0.00966223933            0.000508747432           
       1.590830             0.00944668043            0.000502409124           
       1.593470              0.0105350233            0.000551569456           
       1.596111             0.00905864406            0.000499346584           
       1.598751             0.00966569503            0.000499799463           
       1.601391              0.0086299864             0.00048268284           
       1.604032             0.00930274484             0.00051162029           
       1.606672             0.00911313957            0.000491995871           
       1.609312             0.00959847327            0.000527084655           
       1.611953              0.0094486378            0.000511743564           
       1.614593             0.00941191009            0.000501003337           
       1.617234             0.00923275443            0.000514262709           
       1.619874             0.00918712891            0.000510964025           
       1.622514             0.00900443126            0.000498957283           
       1.625155             0.00925295385            0.000508784023           
       1.627795               0.010002585            0.000516031089           
       1.630436               0.010117643            0.000516280515           
       1.633076             0.00935222604            0.000502877812           
       1.635716             0.00989451271            0.000509204003           
       1.638357             0.00921791525            0.000492781263           
       1.640997             0.00992850239            0.000526914371           
       1.643637             0.00892165168            0.000486053359           
       1.646278             0.00908076204             0.00050577581           
       1.648918             0.00926441361            0.000512258284           
       1.651559             0.00865456598            0.000498953901           
       1.654199             0.00888505641            0.000491696034           
       1.656839             0.00879048865            0.000489243079           
       1.659480              0.0091273118            0.000517248742           
       1.662120             0.00949332108            0.000496834826           
       1.664761             0.00870353502            0.000494149579           
       1.667401             0.00976117293            0.000500175258           
       1.670041             0.00895770442            0.000486453797           
       1.672682             0.00929762187            0.000493560585           
       1.675322             0.00887895458            0.000479218645           
       1.677962             0.00880320876            0.000471906375           
       1.680603             0.00931623109            0.000486956145           
       1.683243             0.00959002763            0.000515459421           
       1.685884             0.00844953571            0.000487412093           
       1.688524             0.00835636824            0.000475347803           
       1.691164             0.00870940996            0.000485395377           
       1.693805             0.00854258153            0.000486004977           
       1.696445             0.00897758415            0.000501115496           
       1.699085             0.00910729552            0.000487810357           
       1.701726             0.00916514929            0.000471410336           
       1.704366             0.00872998703            0.000484684762           
       1.707007             0.00812781988            0.000457245226           
       1.709647             0.00939525952            0.000497157016           
       1.712287             0.00829142195            0.000471104811           
       1.714928             0.00860266159            0.000483734374           
       1.717568             0.00963016128            0.000482125434           
       1.720209             0.00781327854            0.000454867794           
       1.722849             0.00944548163            0.000497556126           
       1.725489             0.00923330491            0.000492349082           
       1.728130             0.00966400967            0.000535293517           
       1.730770               0.008926024            0.000488588293           
       1.733410               0.009018942            0.000483404753           
       1.736051             0.00859523142            0.000475197692           
       1.738691             0.00918363085            0.000481236519           
       1.741332             0.00866174478            0.000481028703           
       1.743972             0.00897992458            0.000505785215           
       1.746612             0.00882820594            0.000481562388           
       1.749253              0.0082518418             0.00047477168           
       1.751893             0.00848956215            0.000478027024           
       1.754533              0.0078994795            0.000460684151           
       1.757174             0.00842451765            0.000471292412           
       1.759814             0.00835707504            0.000462286926           
       1.762455             0.00852407681            0.000475456043           
       1.765095              0.0083379077            0.000449837244           
       1.767735             0.00810403291            0.000457164959           
       1.770376             0.00876139212            0.000476598102           
       1.773016             0.00848393594            0.000465849498           
       1.775657             0.00795450588            0.000444589547           
       1.778297             0.00846258247            0.000454619702           
       1.780937             0.00871268484            0.000486890036           
       1.783578               0.008738245            0.000475411542           
       1.786218             0.00861570359             0.00049265282           
       1.788858             0.00779855849            0.000445159914           
       1.791499             0.00874607233            0.000466133472           
       1.794139             0.00975430799            0.000488274571           
       1.796780             0.00907129743            0.000468599501           
       1.799420             0.00774628611            0.000430627921           
       1.802060             0.00915819042            0.000472013139           
       1.804701             0.00925764612            0.000455418191           
       1.807341             0.00964350921            0.000488416654           
       1.809981             0.00871721021            0.000465915567           
       1.812622             0.00929931743            0.000472556837           
       1.815262             0.00838243217            0.000458186549           
       1.817903             0.00901819818             0.00046820297           
       1.820543             0.00883413437            0.000470621085           
       1.823183             0.00861732937            0.000464554754           
       1.825824             0.00970067574             0.00047088882           
       1.828464              0.0083359073            0.000455080155           
       1.831105             0.00865599167            0.000450913716           
       1.833745             0.00793632835            0.000440983563           
       1.836385             0.00836712944            0.000465716217           
       1.839026             0.00823594347            0.000460591048           
       1.841666             0.00953953784            0.000493946335           
       1.844306             0.00900217618            0.000466740244           
       1.846947             0.00959384801            0.000486058154           
       1.849587             0.00858408525             0.00050769543           
       1.852228             0.00878424173            0.000464403889           
       1.854868             0.00931421618            0.000505156059           
       1.857508              0.0084593913             0.00047669591           
       1.860149             0.00779333803            0.000465857737           
       1.862789              0.0085337743             0.00047053671           
       1.865429              0.0080497422            0.000477035576           
       1.868070             0.00836755879            0.000479879132           
       1.870710             0.00829325423            0.000466729518           
       1.873351             0.00865758536              0.0004827665           
       1.875991             0.00885993916            0.000496346159           
       1.878631             0.00798724509            0.000462242017           
       1.881272             0.00867367119            0.000478467787           
       1.883912             0.00786591482            0.000474193087           
       1.886553              0.0087687342            0.000495069632           
       1.889193             0.00867595165            0.000491602064           
       1.891833             0.00782712378            0.000484929993           
       1.894474              0.0084791151            0.000500327503           
       1.897114             0.00898752043            0.000498460134           
       1.899754             0.00738702327            0.000453793792           
       1.902395             0.00818523219            0.000468343221           
       1.905035             0.00894953055            0.000518696781           
       1.907676             0.00878644705              0.0004843985           
       1.910316             0.00798522997            0.000474046216           
       1.912956             0.00806680286            0.000465979158           
       1.915597             0.00687861932            0.000432699969           
       1.918237             0.00782015921            0.000476477104           
       1.920878             0.00799713856             0.00047986608           
       1.923518              0.0082900223            0.000488781569           
       1.926158             0.00780709358             0.00046817602           
       1.928799             0.00808190706            0.000470830945           
       1.931439             0.00836080043            0.000491446533           
       1.934079             0.00862368878            0.000520313026           
       1.936720             0.00888719815            0.000489395118           
       1.939360             0.00784238966            0.000490466182           
       1.942001             0.00779120683            0.000448068046           
       1.944641             0.00810500011            0.000466003934           
       1.947281             0.00728077926             0.00043760304           
       1.949922             0.00711944447            0.000446969186           
       1.952562             0.00766583535            0.000478341987           
       1.955202             0.00844681117            0.000501505199           
       1.957843             0.00798724428            0.000475024943           
       1.960483             0.00847552216            0.000511593058           
       1.963124             0.00850189256            0.000501876451           
       1.965764             0.00768579369            0.000449995289           
       1.968404             0.00803106243            0.000455645637           
       1.971045             0.00787105492            0.000459903607           
       1.973685             0.00789858277            0.000483247384           
       1.976326             0.00792878461            0.000477516094           
       1.978966             0.00839370091            0.000495628332           
       1.981606              0.0081128278            0.000497427558           
       1.984247             0.00779629934            0.000484421337           
       1.986887             0.00707494855            0.000455939167           
       1.989527             0.00741156449            0.000461633963           
       1.992168              0.0077590992            0.000490085711           
       1.994808             0.00716718089            0.000469002256           
       1.997449             0.00756880593            0.000472065952           
       2.000089             0.00824751889            0.000490823553           
       2.002729             0.00801146371            0.000484038565           
       2.005370             0.00812917627            0.000482335363           
       2.008010             0.00773126108            0.000490911392           
       2.010650             0.00850727674            0.000518802218           
       2.013291             0.00713201725             0.00045575628           
       2.015931             0.00723321454             0.00045573382           
       2.018572             0.00841575857            0.000525788892           
       2.021212             0.00781035583              0.0004974236           
       2.023852             0.00754196999            0.000462628496           
       2.026493             0.00741917534            0.000479347218           
       2.029133             0.00808138578            0.000490214799           
       2.031774             0.00734516936            0.000490475877           
       2.034414             0.00743840749            0.000454161304           
       2.037054             0.00752885539            0.000468495439           
       2.039695             0.00737694894            0.000460242578           
       2.042335              0.0075908711            0.000485178462           
       2.044975              0.0078416128            0.000487146294           
       2.047616             0.00703790089            0.000460360573           
       2.050256             0.00756757227            0.000481887304           
       2.052897             0.00664646695            0.000459934708           
       2.055537             0.00763723692            0.000476489863           
       2.058177             0.00746148499            0.000461211857           
       2.060818             0.00709456579            0.000471125794           
       2.063458             0.00709509736            0.000490978268           
       2.066098             0.00743963845            0.000474269227           
       2.068739             0.00825370217            0.000507308533           
       2.071379               0.008729421            0.000535330328           
       2.074020             0.00787879952               0.000497527           
       2.076660             0.00704830847            0.000474379357           
       2.079300              0.0082403799             0.00052549642           
       2.081941              0.0078084731            0.000468372718           
       2.084581             0.00815691047            0.000505281774           
       2.087222             0.00727694199            0.000460261274           
       2.089862             0.00797333882            0.000524733529           
       2.092502             0.00736845223            0.000488979555           
       2.095143             0.00734005474            0.000503970574           
       2.097783             0.00722923087            0.000484230839           
       2.100423             0.00709922294            0.000462386358           
       2.103064             0.00693664274            0.000474262322           
       2.105704              0.0078978863            0.000503550324           
       2.108345             0.00777399799            0.000479967888           
       2.110985             0.00739880991             0.00050011696           
       2.113625             0.00756609486            0.000510152416           
       2.116266             0.00782368637            0.000526123968           
       2.118906             0.00682652862            0.000458007019           
       2.121546             0.00752351169            0.000471639614           
       2.124187             0.00767862474            0.000500153412           
       2.126827             0.00719152955            0.000489431986           
       2.129468             0.00787084717            0.000513334406           
       2.132108             0.00580285016            0.000428833974           
       2.134748             0.00757301943            0.000487994353           
       2.137389             0.00725405576             0.00049826276           
       2.140029             0.00794434432            0.000466817035           
       2.142670               0.007519585            0.000485376973           
       2.145310             0.00807625043            0.000489600483           
       2.147950             0.00691396033            0.000466262798           
       2.150591             0.00765005968            0.000485499067           
       2.153231             0.00663377101            0.000465368503           
       2.155871              0.0071596213             0.00046705583           
       2.158512             0.00803451657            0.000516257754           
       2.161152             0.00805905447            0.000500842524           
       2.163793             0.00756252729            0.000482984356           
       2.166433             0.00761889228            0.000497818916           
       2.169073             0.00747103216            0.000481989587           
       2.171714             0.00709891059             0.00046632044           
       2.174354             0.00780216558            0.000510827277           
       2.176995             0.00706916187            0.000484193773           
       2.179635              0.0074147777            0.000524013228           
       2.182275             0.00648865615             0.00046282366           
       2.184916             0.00688801774            0.000460578892           
       2.187556             0.00672467614            0.000450523822           
       2.190196             0.00712260539            0.000484520556           
       2.192837             0.00900561783            0.000541851341           
       2.195477             0.00850938621            0.000502156524           
       2.198118             0.00773433646            0.000491009055           
       2.200758             0.00708805054             0.00048223979           
       2.203398             0.00738538851            0.000495399766           
       2.206039             0.00713328814             0.00046078229           
       2.208679             0.00729640099            0.000476866335           
       2.211319             0.00790113892            0.000499096027           
       2.213960              0.0080979781            0.000512044549           
       2.216600             0.00607149843            0.000458657526           
       2.219241             0.00715246959            0.000475777294           
       2.221881             0.00686281193            0.000467002031           
       2.224521             0.00724656788            0.000485761777           
       2.227162             0.00701153033            0.000468252109           
       2.229802             0.00798298598            0.000515279315           
       2.232443             0.00795274999            0.000506190519           
       2.235083              0.0074868885            0.000505628124           
       2.237723             0.00701425314            0.000469658239           
       2.240364             0.00699920956            0.000480712294           
       2.243004             0.00765837892            0.000498825316           
       2.245644             0.00713700132            0.000486366192           
       2.248285             0.00768236318            0.000494497815           
       2.250925             0.00784348291            0.000502691592           
       2.253566             0.00750167558             0.00052557547           
       2.256206             0.00736729446            0.000510432387           
       2.258846             0.00902573119            0.000537442773           
       2.261487             0.00777322436            0.000523494905           
       2.264127             0.00747416085            0.000495761916           
       2.266767              0.0074207786            0.000507149521           
       2.269408             0.00682666488            0.000488416569           
       2.272048             0.00729032645            0.000501717742           
       2.274689             0.00811767294            0.000536397543           
       2.277329             0.00722808489             0.00047657656           
       2.279969             0.00681172269            0.000492460993           
       2.282610             0.00736780473            0.000497923177           
       2.285250             0.00681351531            0.000458302797           
       2.287891             0.00790792272            0.000529363567           
       2.290531             0.00677328857            0.000496502938           
       2.293171             0.00686849817            0.000487026061           
       2.295812             0.00742835567            0.000504450339           
       2.298452             0.00741393515            0.000527008717           
       2.301092             0.00627417584            0.000450448248           
       2.303733             0.00752756702            0.000513302131           
       2.306373             0.00706647391            0.000505165082           
       2.309014             0.00735520736            0.000505328244           
       2.311654             0.00803296673            0.000551094784           
       2.314294             0.00716523573            0.000479519606           
       2.316935             0.00663101955            0.000463203507           
       2.319575             0.00696075635            0.000497250534           
       2.322215             0.00721621837            0.000527642719           
       2.324856             0.00718203588             0.00048396243           
       2.327496             0.00711248613              0.0005121063           
       2.330137             0.00709396288             0.00048940888           
       2.332777             0.00707325291            0.000503895588           
       2.335417             0.00696050659            0.000484942291           
       2.338058             0.00699933901            0.000500819787           
       2.340698             0.00775893776            0.000523151837           
       2.343339             0.00725337921            0.000516952011           
       2.345979             0.00729001153            0.000490311179           
       2.348619              0.0076163506            0.000519484874           
       2.351260             0.00697039851            0.000494072341           
       2.353900             0.00756032006            0.000512925027           
       2.356540             0.00669510074            0.000481998213           
       2.359181             0.00664030024            0.000473291881           
       2.361821             0.00708259019            0.000472167835           
       2.364462             0.00716662432            0.000496749447           
       2.367102             0.00676786334            0.000496084091           
       2.369742             0.00673047515             0.00052071846           
       2.372383             0.00707684156            0.000483489582           
       2.375023              0.0076605836            0.000528798922           
       2.377663             0.00714128814            0.000488171592           
       2.380304             0.00738963642            0.000504867474           
       2.382944              0.0079352788            0.000498307592           
       2.385585             0.00655305059            0.000482954311           
       2.388225             0.00784234499            0.000525849807           
       2.390865             0.00799300966            0.000525423716           
       2.393506              0.0073831307            0.000495453648           
       2.396146             0.00742549328            0.000537241519           
       2.398787             0.00696294563            0.000479441173           
       2.401427             0.00703826693            0.000465267533           
       2.404067             0.00787899685            0.000503252664           
       2.406708             0.00640583074            0.000448331211           
       2.409348             0.00723189514            0.000505275315           
       2.411988             0.00683811059            0.000481391161           
       2.414629             0.00826205145            0.000545623731           
       2.417269             0.00755422239            0.000527819366           
       2.419910             0.00735191154            0.000521911861           
       2.422550             0.00800694722            0.000521103142           
       2.425190             0.00751579227            0.000532183284           
       2.427831             0.00716220734            0.000516593671           
       2.430471             0.00701129933            0.000486942791           
       2.433112              0.0078237441            0.000500885735           
       2.435752             0.00851941674            0.000553159127           
       2.438392             0.00745782311            0.000499540218           
       2.441033             0.00679864044            0.000505474161           
       2.443673             0.00797777504            0.000547977296           
       2.446313             0.00693567076            0.000511385785           
       2.448954             0.00719967335            0.000496091204           
       2.451594             0.00702061531            0.000526739122           
       2.454235             0.00723475917            0.000501696488           
       2.456875             0.00696200791            0.000514963858           
       2.459515             0.00785564424            0.000561177265           
       2.462156             0.00753296261            0.000518833646           
       2.464796             0.00815515389            0.000532870566           
       2.467436             0.00751915452            0.000529127121           
       2.470077             0.00789246703            0.000513815361           
       2.472717             0.00717969876            0.000492187994           
       2.475358             0.00794963729            0.000523306985           
       2.477998             0.00691750477            0.000479925256           
       2.480638             0.00743854299            0.000506514707           
       2.483279             0.00753882569            0.000532945143           
       2.485919             0.00803632692            0.000530290954           
       2.488560             0.00681327574            0.000486909468           
       2.491200             0.00827314633            0.000552498837           
       2.493840             0.00657943725            0.000521350518           
       2.496481             0.00746872118            0.000546381144           
       2.499121             0.00732592432            0.000526337992           
       2.501761             0.00838983306            0.000570724563           
       2.504402             0.00685865583            0.000508484343           
       2.507042             0.00731893636            0.000521378201           
       2.509683             0.00698983855             0.00050173416           
       2.512323             0.00654609169            0.000509944819           
       2.514963             0.00718799632            0.000527760848           
       2.517604             0.00789237648            0.000573838416           
       2.520244             0.00792739269            0.000539166662           
       2.522884             0.00822179795            0.000556939571           
       2.525525              0.0124994787            0.000694499903           
       2.528165              0.0124111796            0.000681255159           
       2.530806              0.0108872773            0.000649183626           
       2.533446              0.0102257221            0.000615722214           
       2.536086             0.00707154532            0.000507446654           
       2.538727             0.00741118465            0.000498371523           
       2.541367             0.00727153235            0.000498516395           
       2.544008             0.00786788451            0.000535541519           
       2.546648             0.00765230217            0.000537212816           
       2.549288              0.0063115459            0.000497826884           
       2.551929             0.00791086284            0.000548458675           
       2.554569             0.00695176556            0.000495328745           
       2.557209             0.00801669219            0.000536801644           
       2.559850             0.00628335187            0.000476764929           
       2.562490             0.00760228902            0.000542018165           
       2.565131             0.00689637168            0.000535261286           
       2.567771             0.00721554566            0.000527879458           
       2.570411             0.00785843007            0.000544933435           
       2.573052             0.00603407616            0.000483521882           
       2.575692             0.00746530065            0.000534560084           
       2.578332             0.00681927809            0.000513019996           
       2.580973             0.00659389126            0.000499670867           
       2.583613             0.00713987736            0.000507565917           
       2.586254             0.00737496804            0.000515137494           
       2.588894             0.00744467538            0.000537467876           
       2.591534             0.00699748571            0.000539410903           
       2.594175             0.00709134734             0.00053276956           
       2.596815             0.00798316972            0.000568611833           
       2.599456             0.00674121123            0.000495496742           
       2.602096             0.00716869016            0.000514854304           
       2.604736             0.00673931184             0.00051103435           
       2.607377             0.00587003808            0.000464370034           
       2.610017              0.0070171198             0.00049883382           
       2.612657             0.00757446343            0.000551253611           
       2.615298             0.00829632368            0.000563258991           
       2.617938             0.00800014821            0.000591690156           
       2.620579             0.00660582649            0.000516149559           
       2.623219             0.00671640477            0.000519709784           
       2.625859             0.00710675611             0.00051978021           
       2.628500             0.00783676476            0.000542246105           
       2.631140             0.00687613978            0.000515752203           
       2.633780             0.00703203387            0.000521112529           
       2.636421             0.00745577927            0.000549779426           
       2.639061             0.00790185548            0.000532811764           
       2.641702             0.00686660496            0.000508182687           
       2.644342             0.00705227342            0.000517201756           
       2.646982             0.00773013326            0.000533392969           
       2.649623             0.00642307859             0.00050953035           
       2.652263             0.00668479403            0.000514591149           
       2.654904             0.00782473871            0.000557301117           
       2.657544             0.00760682811            0.000517559008           
       2.660184             0.00613918848            0.000492060767           
       2.662825              0.0061914123            0.000505613406           
       2.665465              0.0072602407            0.000529541095           
       2.668105             0.00661351565            0.000532717248           
       2.670746             0.00702677533            0.000507259662           
       2.673386             0.00846209439            0.000573684356           
       2.676027             0.00769989444            0.000538455484           
       2.678667              0.0100832211            0.000601236905           
       2.681307              0.0105316018            0.000603741319           
       2.683948              0.0157787681            0.000759280891           
       2.686588              0.0105583855            0.000610804361           
       2.689229               0.011577534            0.000624994916           
       2.691869             0.00958849629            0.000601143055           
       2.694509             0.00863071497            0.000570643063           
       2.697150              0.0081821477            0.000546601771           
       2.699790              0.0074905763            0.000548281914           
       2.702430             0.00798443674            0.000541092763           
       2.705071             0.00750170388            0.000541951858           
       2.707711             0.00605175195            0.000472444051           
       2.710352             0.00621345141            0.000505821431           
       2.712992             0.00722094057            0.000555372585           
       2.715632             0.00742631849             0.00052255193           
       2.718273             0.00721703568            0.000533869375           
       2.720913             0.00627352267            0.000496333796           
       2.723553             0.00672457191            0.000517314445           
       2.726194              0.0070859336            0.000555103646           
       2.728834              0.0076118035            0.000575602981           
       2.731475             0.00673927845            0.000499857706           
       2.734115             0.00689330085            0.000521226992           
       2.736755             0.00807078745             0.00056863187           
       2.739396             0.00695190851            0.000524688702           
       2.742036             0.00880745313            0.000618073951           
       2.744677             0.00586737419            0.000489477014           
       2.747317             0.00699223082            0.000530530498           
       2.749957             0.00705130587             0.00053650579           
       2.752598             0.00666514942            0.000527269188           
       2.755238             0.00881094428            0.000617175598           
       2.757878              0.0071214781            0.000550007678           
       2.760519              0.0075922699             0.00056187536           
       2.763159             0.00821708479            0.000578696975           
       2.765800             0.00758995618            0.000530026708           
       2.768440             0.00770162558            0.000537844822           
       2.771080             0.00823330097            0.000560741684           
       2.773721              0.0073128384            0.000542100648           
       2.776361             0.00676764581            0.000528696356           
       2.779001              0.0075162661            0.000577007126           
       2.781642             0.00657993004            0.000535893331           
       2.784282             0.00742491466            0.000578624581           
       2.786923             0.00691925929            0.000563492427           
       2.789563             0.00782210499            0.000577031278           
       2.792203             0.00732288279            0.000533349372           
       2.794844             0.00689059398            0.000567026242           
       2.797484             0.00738543249            0.000554016286           
       2.800125             0.00693156056            0.000564364254           
       2.802765             0.00695195745            0.000555470749           
       2.805405              0.0076295361            0.000583880731           
       2.808046             0.00651412236            0.000548998797           
       2.810686             0.00706581718            0.000525394095           
       2.813326             0.00624182865             0.00051293234           
       2.815967             0.00726468413            0.000569099867           
       2.818607             0.00669051259             0.00052117427           
       2.821248             0.00614454407            0.000489087802           
       2.823888             0.00700285032             0.00054198514           
       2.826528             0.00647186699            0.000504594157           
       2.829169             0.00788880682            0.000583530928           
       2.831809             0.00629293473            0.000528265644           
       2.834449             0.00690273427             0.00055676549           
       2.837090             0.00637623623            0.000516832419           
       2.839730             0.00731087903            0.000550714788           
       2.842371             0.00698630714            0.000539128287           
       2.845011             0.00735544086            0.000557597307           
       2.847651             0.00717469257            0.000551380007           
       2.850292             0.00656254235            0.000532508901           
       2.852932             0.00743988065            0.000579344469           
       2.855573             0.00567736918            0.000490921222           
       2.858213             0.00786778324            0.000606881489           
       2.860853              0.0073182586            0.000544467287           
       2.863494             0.00674289156            0.000541106294           
       2.866134             0.00736957817            0.000587967764           
       2.868774             0.00674607513            0.000552867086           
       2.871415             0.00682302476            0.000564671991           
       2.874055             0.00644953436            0.000524775261           
       2.876696             0.00712450646            0.000566470839           
       2.879336             0.00753973859            0.000561653822           
       2.881976             0.00760605911             0.00058184945           
       2.884617             0.00711705405            0.000554568676           
       2.887257             0.00685651284            0.000547132764           
       2.889897             0.00652096636            0.000522595405           
       2.892538             0.00723514961            0.000603041489           
       2.895178             0.00652442424             0.00051735739           
       2.897819             0.00694490448            0.000544494575           
       2.900459             0.00710463885            0.000540007469           
       2.903099             0.00727144882            0.000540718009           
       2.905740             0.00706337649            0.000546713507           
       2.908380             0.00700814508            0.000550759423           
       2.911021             0.00797356843            0.000597022776           
       2.913661               0.006699086            0.000547069095           
       2.916301             0.00708131733            0.000562996114           
       2.918942             0.00704588846            0.000537170792           
       2.921582             0.00771313268            0.000588045856           
       2.924222             0.00761911464            0.000566220536           
       2.926863             0.00707955633            0.000568517432           
       2.929503             0.00710137348            0.000576138602           
       2.932144             0.00662305027            0.000534107147           
       2.934784             0.00641957842            0.000517216538           
       2.937424             0.00715108711            0.000551494603           
       2.940065             0.00693869208            0.000518202378           
       2.942705             0.00737548267            0.000533593604           
       2.945346              0.0065748247            0.000534658461           
       2.947986             0.00714207428            0.000568197524           
       2.950626             0.00657189067            0.000541976153           
       2.953267             0.00735733632             0.00056418427           
       2.955907             0.00664577392            0.000556242316           
       2.958547             0.00634091831             0.00051293569           
       2.961188             0.00835940539            0.000614433782           
       2.963828             0.00752343797            0.000570185936           
       2.966469             0.00702905345            0.000540659983           
       2.969109             0.00714351375            0.000553119892           
       2.971749             0.00607949093            0.000507083149           
       2.974390             0.00723597453            0.000543635148           
       2.977030             0.00854604953            0.000604005038           
       2.979670             0.00775185061            0.000559546448           
       2.982311             0.00824504045            0.000598105869           
       2.984951             0.00719473347             0.00053138552           
       2.987592             0.00727105835            0.000544896187           
       2.990232             0.00799908193            0.000594379561           
       2.992872             0.00761876632            0.000546400349           
       2.995513             0.00859110172            0.000567646634           
       2.998153              0.0115123879            0.000668147619           
       3.000794              0.0121562574            0.000665020984           
       3.003434              0.0112730297            0.000641373434           
       3.006074              0.0294304566             0.00102178387           
       3.008715               0.101627096             0.00183287865           
       3.011355               0.224319879             0.00262594349           
       3.013995               0.140003155             0.00208017757           
       3.016636              0.0780215052             0.00152064011           
       3.019276               0.138912991              0.0019945055           
       3.021917               0.484748414             0.00358255773           
       3.024557                1.33189547             0.00583848339           
       3.027197                1.14718277             0.00528277913           
       3.029838               0.586622823              0.0038312688           
       3.032478               0.272406892              0.0026134461           
       3.035118               0.071797683             0.00135971379           
       3.037759              0.0817118317             0.00144868534           
       3.040399               0.102486161              0.0016735703           
       3.043040               0.409286465             0.00338544672           
       3.045680               0.402010998             0.00315678799           
       3.048320               0.116434174             0.00173585661           
       3.050961                0.11438352              0.0017508183           
       3.053601              0.0929376934             0.00151997433           
       3.056242              0.0703332246             0.00140585532           
       3.058882              0.0607531033              0.0014016001           
       3.061522               0.046765994              0.0012064984           
       3.064163              0.0606041869             0.00135615537           
       3.066803               0.122237548             0.00202768273           
       3.069443               0.115102887             0.00205863252           
       3.072084              0.0428668684             0.00122331001           
       3.074724               0.041107926              0.0013378358           
       3.077365              0.0732808095             0.00184905038           
       3.080005              0.0135626868            0.000799982451           
       3.082645              0.0126758583            0.000812460018           
       3.085286              0.0148857962            0.000887385511           
       3.087926             0.00875800443            0.000675411945           
       3.090566              0.0127003471            0.000796919563           
       3.093207              0.0105454943            0.000755658268           
       3.095847             0.00926101878            0.000678744807           
       3.098488             0.00910625624            0.000746296813           
       3.101128             0.00835724387            0.000719543794           
       3.103768             0.00894632851            0.000730465417           
       3.106409             0.00985869703            0.000816090658           
       3.109049             0.00994296695            0.000786501812           
       3.111690              0.0082162643            0.000702681826           
       3.114330             0.00820667508            0.000717211286           
       3.116970             0.00776778178            0.000703126403           
       3.119611              0.0094881648            0.000827169975           
       3.122251              0.0146188713             0.00107400474           
       3.124891               0.034298415             0.00166040069           
       3.127532              0.0274237072             0.00145246962           
       3.130172              0.0174360354             0.00117817036           
       3.132813              0.0115122878            0.000942465689           
       3.135453             0.00809146019            0.000783620878           
       3.138093              0.0083817088            0.000864175459           
       3.140734              0.0063629466            0.000694652178           
       3.143374             0.00771463548            0.000808899006           
       3.146014             0.00726211665             0.00084489091           
       3.148655              0.0075524088            0.000800948198           
       3.151295             0.00714606863            0.000830256792           
       3.153936             0.00646723046            0.000762959671           
       3.156576             0.00691755142            0.000778342559           
       3.159216             0.00660918966             0.00076460217           
       3.161857             0.00707792229            0.000788030859           
       3.164497             0.00802906088            0.000881873592           
       3.167138             0.00848230369            0.000936556081           
       3.169778               0.006347535            0.000796815227           
       3.172418               0.006546717            0.000800989382           
       3.175059             0.00608117934            0.000684397412           
       3.177699             0.00672824833            0.000762318765           
       3.180339             0.00693973749            0.000829502827           
       3.182980             0.00518345984            0.000741197722           
       3.185620             0.00782037516             0.00092717718           
       3.188261             0.00671319746            0.000874370421           
       3.190901             0.00743010971            0.000846017138           
       3.193541             0.00606095028            0.000802887981           
       3.196182             0.00601618276            0.000833628608           
       3.198822             0.00599913799            0.000832725887           
       3.201463             0.00626741877            0.000836477974           
       3.204103             0.00674491421            0.000862477943           
       3.206743              0.0062868731            0.000832599919           
       3.209384             0.00513659588            0.000813106003           
       3.212024             0.00492085417            0.000741979234           
       3.214664             0.00648431638            0.000968542059           
       3.217305             0.00442934246            0.000760921217           
       3.219945             0.00511588138            0.000841694705           
       3.222586              0.0055299531            0.000833513226           
       3.225226             0.00384598205            0.000771119576           
       3.227866             0.00567089203            0.000855825481           
       3.230507             0.00387000912            0.000732876136           
       3.233147              0.0056409108            0.000891953029           
       3.235787             0.00692885269             0.00101165599           
       3.238428             0.00531214211            0.000955893287           
       3.241068             0.00630582601            0.000973823502           
       3.243709             0.00512809282            0.000907307112           
       3.246349             0.00534820389            0.000844659067           
       3.248989             0.00557905215             0.00101865162           
       3.251630             0.00604498747             0.00102107386           
       3.254270             0.00384974946            0.000728251626           
       3.256911             0.00722049208             0.00108822213           
       3.259551             0.00626210729             0.00109104941           
       3.262191             0.00432598168            0.000926282888           
       3.264832             0.00517110154             0.00105814908           
       3.267472             0.00493497116            0.000969728708           
       3.270112             0.00531895144              0.0011125853           
       3.272753             0.00565546539             0.00105009663           
       3.275393              0.0062945818             0.00113038661           
       3.278034             0.00648953934             0.00114840464           
       3.280674             0.00405440415            0.000985001372           
       3.283314             0.00420551193            0.000897206406           
       3.285955             0.00717683547              0.0012093074           
       3.288595             0.00557055653               0.001185316           
       3.291235             0.00555461854             0.00121675034           
       3.293876             0.00574019215             0.00125468276           
       3.296516             0.00530496701             0.00115795968           
       3.299157             0.00690145672             0.00130416017           
       3.301797             0.00479122449             0.00123950837           
       3.304437             0.00434174262             0.00102227355           
       3.307078              0.0037556041             0.00104733056           
       3.309718             0.00559044604             0.00131893199           
       3.312359             0.00498035921              0.0012451815           
       3.314999             0.00693828537             0.00144703898           
       3.317639             0.00496382233             0.00117055397           
       3.320280              0.0037032979             0.00107496722           
       3.322920             0.00485424359             0.00125144119           
       3.325560             0.00449048105             0.00120445629           
       3.328201             0.00623849967             0.00127857595           
       3.330841               0.007015301             0.00165014647           
       3.333482             0.00414117638             0.00119839091           
       3.336122             0.00588825632             0.00142964953           
       3.338762             0.00549927617              0.0015959865           
       3.341403             0.00379026463             0.00126607692           
       3.344043             0.00346101381             0.00116154364           
       3.346683             0.00447243466             0.00134802185           
       3.349324             0.00823916816             0.00205712194           
       3.351964             0.00343151374             0.00140386802           
       3.354605             0.00981687822             0.00271559077           
       3.357245             0.00545078174             0.00182542829           
       3.359885             0.00627197187             0.00156719488           
       3.362526             0.00483638628             0.00172099526           
       3.365166             0.00655264056             0.00188941862           
       3.367807             0.00445787259             0.00199445778           
       3.370447             0.00368594661             0.00150438559           
       3.373087             0.00276769683             0.00139402691           
       3.375728             0.00715499849             0.00252962359           
       3.378368             0.00602366662             0.00344470069           
       3.381008             0.00877688028             0.00310005395           
       3.383649              0.0056693094             0.00199870502           
       3.386289             0.00396162758             0.00197742941           
       3.388930           -2.63864747e-05                         0           
       3.391570             0.00365704612             0.00212586258           
       3.394210             0.00594056068              0.0034288908           
       3.396851             0.00490170352             0.00348407306           
       3.399491             0.00723637968             0.00423444501           
       3.402131             0.00482512265             0.00489200049           
       3.404772           -2.65100534e-05                         0           
       3.407412                       nan                       nan           
       3.410053              0.0185992065              0.0136029617           
       3.412693                       nan                       nan           
       3.415333           -2.66261328e-05                         0           
