################################################################################
# EDF_DataBlockID                     0.Image.Psd
# EDF_BinarySize                      4366944
# EDF_HeaderSize                      2560
# ByteOrder                           LowByteFirst
# DataType                            FloatValue
# Dim_1                               1028
# Dim_2                               1062
# Image                               0
# HeaderID                            EH:000000:000000:000000
# Size                                4366944
# Center_1                            607.5200
# Center_2                            651.5500
# Comment                             Xenocs_Cell_Window - 20251028_20perc_iodine_1.23mg
# DDummy                              0.6
# Date                                2025-11-03T03:51:25
# Delta                               0
# Dummy                               -1.5
# ExposureTime                        360
# Gamma                               0
# Intensity1                          8.79977e-10
# PSize_1                             7.5e-05
# PSize_2                             7.5e-05
# Pressure                            0.0327959
# SampleDistance                      0.450002
# SampleEnvKind                       large
# SampleEnvPN                         ElectroChemical cell
# SampleEnvSN                         1141
# Thickness                           0
# Wavelength                          1.541891e-10
# Wavelength                          1.54189e-10
# aux                                 0
# aux_dial                            0.002375
# beamx                               588.434
# beamx_dial                          588.434
# beamz                               657.808
# beamz_dial                          657.808
# det0x                               0
# det0x_dial                          6.36945
# det0xvd                             0
# det0xvd_dial                        0
# det0y                               450.002
# det0y_dial                          481.635
# det0z                               0
# det0z_dial                          1.23302
# det0zvd                             0
# det0zvd_dial                        0
# mag                                 1.818
# mag_dial                            1.818
# om                                  0.2499
# om_dial                             -0.610199
# phi                                 -0.0120535
# phi_dial                            0
# ry                                  0.599993
# ry_dial                             0.599993
# s1bot                               0.8
# s1bot_dial                          -1.66094
# s1hl                                0.8
# s1hl_dial                           -0.608437
# s1hr                                0.8
# s1hr_dial                           0.970938
# s1top                               0.8
# s1top_dial                          -0.461562
# s2bot                               0.45
# s2bot_dial                          1.36109
# s2hl                                0.45
# s2hl_dial                           -0.83375
# s2hr                                0.45
# s2hr_dial                           -0.118594
# s2top                               0.45
# s2top_dial                          1.44734
# w2theta                             32
# w2theta_dial                        32
# waxsch                              19.2605
# waxsch_dial                         -32.7355
# waxsh                               137.085
# waxsh_dial                          -43.5338
# waxsth                              26.0607
# waxsth_dial                         -19.4086
# waxsz                               67.0407
# waxsz_dial                          -23.7954
# wind                                65.9854
# wind_dial                           66.0041
# wpsi                                124
# wpsi_dial                           124
# wstod                               115
# wstod_dial                          115
# x                                   0
# x_dial                              1.00969
# z                                   0
# z_dial                              13.3172
# CountCutoff                         15302352
# DetectorModel                       Dectris EIGER2 Si 1M, S/N E-02-0362
# ThresholdSetting                    4023.88989258
# Saturation                          0
# FlatField                           Corrected
# BackgroundReductionExtra            0.02
# BackgroundCorrectionConstant        0.0026712
# Detector                            0
# Monitor                             0
# Pil_Roi0                            0
# SumForIntensity1                    3.16792e+08
# TransmittedFlux                     879977
# det                                 0
# mon                                 0
# pilai0                              3.16792e+08
# pilai1                              796340
# pilct0                              5.4782e+08
# pilct1                              796340
# pilroi0                             0
# pilroi1                             0
# sec                                 1
# title                               20251028_20perc_iodine_1.23mg_0_01213.edf
# usaxs0                              0
# Operation                           Azimuthal average I(q)
# Error_model                         ErrorModel.poisson
# Geometrical_correction              True
# Transmission_correction             True
# Thickness_correction                False
# Binning mode                        Uniform
# Binning factor                      1.0
# Psi                                 0.0
# Omega                               0.2499
# MaskInvalidPixels                   True
# DetectorEdge                        3
# MaskFiles                           ['20251028_20perc_iodine_1.23mg_0_00012_mask.edf']
################################################################################
    q(A⁻¹)                Intensity(a.u.)            Sigma_I(a.u.)            
       0.000340                372021.297                118.710613           
       0.001019                359022.424                71.4137902           
       0.001698                 349420.93                49.8173695           
       0.002377                330657.683                43.3451676           
       0.003056                308061.228                35.3594867           
       0.003735                253741.338                28.3015942           
       0.004415                204669.536                25.4180361           
       0.005094                152756.084                19.0171487           
       0.005773                100680.959                14.2937628           
       0.006452                58540.6401                10.4431351           
       0.007131                32235.5698                7.50720468           
       0.007810                16215.7214                5.28400987           
       0.008490                8158.16406                3.32218828           
       0.009169                3943.22271                2.28267634           
       0.009848                1207.32832                1.22120043           
       0.010527                466.362084               0.758990139           
       0.011206                116.656712               0.362295459           
       0.011885                53.5439759               0.228050696           
       0.012564                24.8379372               0.159465091           
       0.013244                16.7379196                0.12238229           
       0.013923                12.2894593               0.106557467           
       0.014602                9.22662375              0.0856295829           
       0.015281                7.24529636              0.0772430429           
       0.015960                6.05375357              0.0701002544           
       0.016639                4.97268758              0.0599953282           
       0.017319                4.15999173              0.0540207807           
       0.017998                3.31186259              0.0461128688           
       0.018677                  2.885836              0.0445827608           
       0.019356                2.41926026              0.0403340225           
       0.020035                2.11934609              0.0354180332           
       0.020714                1.84367894              0.0333840007           
       0.021394                1.57188642              0.0291659527           
       0.022073                1.40668618              0.0287060579           
       0.022752                1.19190494              0.0252772184           
       0.023431                 1.0820728              0.0233783581           
       0.024110                0.99976937               0.023428387           
       0.024789                0.87819226              0.0203923594           
       0.025469               0.804033193              0.0201076692           
       0.026148               0.768233618              0.0184674246           
       0.026827                0.66754421              0.0174901912           
       0.027506               0.590959255              0.0166936513           
       0.028185               0.572587167              0.0156703857           
       0.028864                 0.4923301               0.014449186           
       0.029544               0.449578977              0.0133894873           
       0.030223                0.43076449              0.0132942625           
       0.030902                 0.4111462              0.0131068603           
       0.031581               0.355358738              0.0115834001           
       0.032260               0.349665245              0.0116860139           
       0.032939               0.306300758              0.0105460395           
       0.033619               0.273460169               0.010111106           
       0.034298               0.285956553              0.0100620583           
       0.034977               0.253416084             0.00928611612           
       0.035656               0.249688826             0.00946152452           
       0.036335               0.217769724              0.0085699036           
       0.037014                0.20337389             0.00830650442           
       0.037693               0.189836347             0.00772021707           
       0.038373               0.174959473             0.00748427423           
       0.039052               0.178974478             0.00760186902           
       0.039731               0.156900382             0.00695177991           
       0.040410               0.143197721             0.00659675751           
       0.041089               0.143926544              0.0065099276           
       0.041768               0.133276154             0.00629716407           
       0.042448               0.138635897             0.00637270137           
       0.043127               0.123453646             0.00587161368           
       0.043806               0.126899004             0.00599736949           
       0.044485               0.112864304             0.00553981454           
       0.045164               0.106331621             0.00548307811           
       0.045843               0.112906125             0.00541907911           
       0.046523               0.108711197             0.00533581761           
       0.047202               0.108880164             0.00537727748           
       0.047881               0.103720665             0.00514711467           
       0.048560                0.10224682              0.0051569944           
       0.049239              0.0943898315             0.00475759233           
       0.049918              0.0967494982             0.00491085442           
       0.050598              0.0930580709             0.00474399864           
       0.051277              0.0874310956             0.00458374241           
       0.051956              0.0899076858             0.00461901997           
       0.052635              0.0763131433             0.00416519429           
       0.053314              0.0839895794             0.00449742257           
       0.053993              0.0751352791             0.00413709105           
       0.054673              0.0712087735             0.00393782459           
       0.055352              0.0779155198             0.00417959648           
       0.056031              0.0690969016             0.00385326864           
       0.056710              0.0684864083             0.00393021448           
       0.057389              0.0689220401             0.00380198376           
       0.058068              0.0685014256             0.00382943706           
       0.058748               0.069333742             0.00390068952           
       0.059427              0.0641572281             0.00368872183           
       0.060106              0.0645470347             0.00373492915           
       0.060785              0.0680040464             0.00371877748           
       0.061464              0.0615175997              0.0036222335           
       0.062143               0.063698082             0.00364842745           
       0.062822              0.0532880817             0.00329785149           
       0.063502              0.0509138086             0.00321778655           
       0.064181              0.0549613018             0.00330793912           
       0.064860              0.0514655707             0.00324976743           
       0.065539               0.056559923             0.00337349956           
       0.066218               0.050267108             0.00311220488           
       0.066897              0.0555994483             0.00329838389           
       0.067577               0.052570525              0.0032380948           
       0.068256              0.0455942617             0.00308967514           
       0.068935              0.0450538179             0.00302164773           
       0.069614              0.0454547883             0.00306527746           
       0.070293              0.0451342907             0.00308261726           
       0.070972              0.0425936066              0.0029726718           
       0.071652              0.0404684882             0.00290288016           
       0.072331              0.0428334809             0.00293327206           
       0.073010              0.0413297264             0.00294715824           
       0.073689              0.0432169499             0.00299713397           
       0.074368              0.0439137038             0.00301570304           
       0.075047              0.0383438823             0.00278768259           
       0.075727               0.040682922             0.00285371531           
       0.076406              0.0386951814             0.00283865681           
       0.077085              0.0430670784             0.00293875903           
       0.077764              0.0382747158             0.00276072283           
       0.078443              0.0375180098             0.00275021919           
       0.079122              0.0387931661             0.00276970004           
       0.079802               0.038197453             0.00277750053           
       0.080481               0.033769945             0.00252347969           
       0.081160              0.0376080506             0.00271766919           
       0.081839              0.0374860113             0.00266981801           
       0.082518              0.0395863158               0.002745903           
       0.083197               0.038758802             0.00267483402           
       0.083876              0.0353877696             0.00251339738           
       0.084556               0.037383649             0.00265514791           
       0.085235              0.0354241725             0.00253469011           
       0.085914              0.0362905786             0.00259042152           
       0.086593              0.0307041072             0.00236737768           
       0.087272              0.0358081507             0.00252044712           
       0.087951              0.0317415848             0.00242662156           
       0.088631              0.0323431393             0.00236607635           
       0.089310              0.0384177325             0.00263340913           
       0.089989              0.0336828261             0.00243696644           
       0.090668              0.0313338996             0.00237640292           
       0.091347              0.0311811481             0.00238387605           
       0.092026              0.0343659639             0.00239213835           
       0.092706              0.0282899262             0.00224916974           
       0.093385              0.0298309816             0.00227415049           
       0.094064              0.0307206845             0.00233467402           
       0.094743              0.0271920663              0.0021630308           
       0.095422              0.0295929036             0.00223133783           
       0.096101              0.0277121385              0.0022037388           
       0.096781              0.0313573968             0.00231063722           
       0.097460              0.0278874568             0.00211960376           
       0.098139              0.0344880425             0.00233899816           
       0.098818              0.0316091461             0.00221167096           
       0.099497              0.0294493856             0.00213915873           
       0.100176              0.0264500044             0.00197409168           
       0.100856              0.0302047669             0.00210820969           
       0.101535              0.0280707319               0.002028451           
       0.102214              0.0293959187             0.00207579213           
       0.102893              0.0295476173             0.00205742924           
       0.103572              0.0288920467             0.00200442213           
       0.104251              0.0243938814              0.0018485956           
       0.104931              0.0292803484             0.00200686258           
       0.105610               0.027646667             0.00195839156           
       0.106289              0.0260604233             0.00186973775           
       0.106968              0.0237682698             0.00179091811           
       0.107647              0.0243529075             0.00181389829           
       0.108326              0.0264740609             0.00186594422           
       0.109005              0.0272005784             0.00187947413           
       0.109685              0.0250633918             0.00178389055           
       0.110364              0.0241539597             0.00177111737           
       0.111043              0.0236000686             0.00174375085           
       0.111722              0.0273978606             0.00185585972           
       0.112401              0.0237700626             0.00173343679           
       0.113080              0.0233404374             0.00169801612           
       0.113760              0.0223835808             0.00169062029           
       0.114439              0.0247367057             0.00175190049           
       0.115118              0.0201041581             0.00156745237           
       0.115797              0.0228135696             0.00168520544           
       0.116476              0.0254732166             0.00175407785           
       0.117155              0.0231064658              0.0016840789           
       0.117835              0.0254863234             0.00173351909           
       0.118514              0.0221030647              0.0016348326           
       0.119193               0.020811518              0.0015863611           
       0.119872              0.0232570143             0.00165600433           
       0.120551              0.0244340672             0.00168608637           
       0.121230              0.0224724232             0.00160071607           
       0.121910              0.0253286302             0.00171582262           
       0.122589              0.0223584238             0.00161374319           
       0.123268              0.0199148979              0.0014935046           
       0.123947              0.0255135097             0.00170138392           
       0.124626              0.0229077804             0.00159245053           
       0.125305              0.0212203174             0.00154019739           
       0.125985              0.0218964159             0.00155240102           
       0.126664              0.0181091118             0.00139832888           
       0.127343              0.0200803223             0.00148953659           
       0.128022              0.0237073182             0.00160606521           
       0.128701              0.0204378725             0.00148344539           
       0.129380              0.0217790975             0.00151216777           
       0.130059              0.0215643438             0.00150818833           
       0.130739              0.0205218261             0.00148162686           
       0.131418              0.0219796699             0.00152905746           
       0.132097              0.0169808345              0.0013267435           
       0.132776              0.0196082404              0.0014192589           
       0.133455               0.021768852             0.00150702736           
       0.134134              0.0203941767             0.00145402281           
       0.134814              0.0209531261             0.00145862778           
       0.135493              0.0183048631             0.00136885464           
       0.136172              0.0211500054             0.00146028749           
       0.136851              0.0240496399             0.00156623134           
       0.137530              0.0205643358             0.00141389221           
       0.138209              0.0193702952             0.00138834123           
       0.138889              0.0209607079             0.00145057853           
       0.139568              0.0205244541             0.00143478339           
       0.140247              0.0187794342             0.00137063644           
       0.140926              0.0206064183             0.00139470882           
       0.141605              0.0194309603             0.00138875351           
       0.142284              0.0197342271             0.00137635747           
       0.142964              0.0173682729             0.00129615643           
       0.143643              0.0188988917             0.00135035605           
       0.144322               0.016966461             0.00125268416           
       0.145001              0.0206687325                  0.001411           
       0.145680               0.020615329             0.00137583703           
       0.146359              0.0190026363             0.00132575882           
       0.147039              0.0199739894             0.00137041108           
       0.147718              0.0185018819             0.00129717994           
       0.148397              0.0195594462             0.00135446349           
       0.149076              0.0173797085             0.00123715562           
       0.149755              0.0199957846             0.00134749401           
       0.150434              0.0204692886             0.00136391156           
       0.151114              0.0166743263             0.00122419385           
       0.151793              0.0201994197             0.00134740922           
       0.152472              0.0195336452             0.00130161254           
       0.153151               0.019047938             0.00129775465           
       0.153830               0.020592964             0.00133952946           
       0.154509              0.0194689953             0.00129702638           
       0.155188              0.0193631148             0.00129301659           
       0.155868              0.0185062009             0.00125508632           
       0.156547              0.0200985487             0.00131637035           
       0.157226              0.0191019375             0.00125197404           
       0.157905              0.0190188593             0.00125974169           
       0.158584              0.0169596211             0.00118742894           
       0.159263              0.0176861706             0.00121705863           
       0.159943              0.0188549428             0.00125756658           
       0.160622              0.0186399278             0.00122624514           
       0.161301              0.0182322235             0.00122898138           
       0.161980              0.0160157847             0.00113227736           
       0.162659              0.0208724139             0.00130692966           
       0.163338              0.0178803611             0.00119977486           
       0.164018              0.0185679533             0.00121620897           
       0.164697              0.0178034127             0.00120619857           
       0.165376              0.0178122141             0.00118013622           
       0.166055              0.0179726905             0.00119325843           
       0.166734              0.0166335156             0.00114279986           
       0.167413              0.0165460883              0.0011405906           
       0.168093              0.0185008718             0.00121749459           
       0.168772              0.0180559452             0.00116759098           
       0.169451              0.0167418169             0.00114498445           
       0.170130              0.0195902011             0.00122230186           
       0.170809               0.017643033             0.00117381007           
       0.171488              0.0181627308             0.00118011561           
       0.172168              0.0166812732              0.0011200986           
       0.172847              0.0159863612             0.00111092362           
       0.173526              0.0173571843             0.00113549217           
       0.174205               0.017743105             0.00115333342           
       0.174884              0.0157673111             0.00108155787           
       0.175563              0.0174870672             0.00114387813           
       0.176243              0.0186096181             0.00119183101           
       0.176922              0.0172725169             0.00111829399           
       0.177601              0.0156648536             0.00107668364           
       0.178280              0.0179856422             0.00114080856           
       0.178959              0.0185181853              0.0011668854           
       0.179638              0.0151055549             0.00105086009           
       0.180317              0.0171781292             0.00111247199           
       0.180997              0.0180435733             0.00114633964           
       0.181676              0.0163803961             0.00108056777           
       0.182355              0.0167792704             0.00110021328           
       0.183034              0.0177088738             0.00111213932           
       0.183713              0.0174480774             0.00111736382           
       0.184392              0.0166453328             0.00109102742           
       0.185072              0.0174874645             0.00110554121           
       0.185751              0.0183953686             0.00113703091           
       0.186430              0.0158171025             0.00104695729           
       0.187109               0.017392205             0.00111007603           
       0.187788              0.0174413863             0.00110890382           
       0.188467              0.0173671191             0.00109344546           
       0.189147              0.0171713363             0.00109827533           
       0.189826              0.0155455148             0.00102650974           
       0.190505              0.0172516365             0.00109917425           
       0.191184              0.0154815902             0.00102625304           
       0.191863              0.0170345627             0.00107876322           
       0.192542              0.0148566233             0.00101694391           
       0.193222              0.0179896262             0.00109396818           
       0.193901              0.0174322023             0.00109132017           
       0.194580              0.0170453054             0.00106026475           
       0.195259              0.0168336853             0.00106576365           
       0.195938              0.0181904251             0.00111052479           
       0.196617              0.0180906989             0.00109201763           
       0.197297              0.0180380403              0.0010948795           
       0.197976              0.0171431106             0.00105097833           
       0.198655              0.0168564073             0.00105353618           
       0.199334              0.0154715397             0.00100043025           
       0.200013              0.0168063949             0.00104211695           
       0.200692              0.0161529976             0.00102780373           
       0.201371              0.0164852369             0.00102662626           
       0.202051              0.0159538539             0.00101308534           
       0.202730              0.0158305604            0.000999083713           
       0.203409              0.0173609814             0.00105328639           
       0.204088               0.014608111            0.000965107596           
       0.204767              0.0167132778             0.00102688286           
       0.205446              0.0144453913            0.000956538756           
       0.206126              0.0151787838            0.000967198397           
       0.206805              0.0143890191            0.000958963926           
       0.207484              0.0167642749             0.00101648383           
       0.208163              0.0148920256            0.000963799907           
       0.208842              0.0149531539            0.000963158886           
       0.209521              0.0152955416            0.000966027785           
       0.210201              0.0157883307            0.000992418476           
       0.210880              0.0155840541            0.000966629519           
       0.211559              0.0152977842            0.000971869965           
       0.212238              0.0183329881             0.00105851001           
       0.212917                0.01399352            0.000921351261           
       0.213596              0.0168550416             0.00101715474           
       0.214276               0.014464059            0.000922621864           
       0.214955              0.0153333568            0.000969919018           
       0.215634              0.0149125362            0.000949661519           
       0.216313              0.0165482968            0.000998290237           
       0.216992              0.0148009264            0.000943877961           
       0.217671              0.0163608358             0.00098564929           
       0.218351              0.0182819074             0.00105210056           
       0.219030              0.0147619579            0.000930483294           
       0.219709              0.0145247062            0.000928733018           
       0.220388              0.0143662439            0.000922466364           
       0.221067              0.0140588903            0.000913268797           
       0.221746              0.0152547362            0.000950342952           
       0.222426              0.0147485584            0.000920477807           
       0.223105              0.0166789157            0.000992199743           
       0.223784              0.0149201558            0.000929121548           
       0.224463              0.0164998297            0.000984850831           
       0.225142               0.014434755            0.000906585708           
       0.225821               0.014607697            0.000915673988           
       0.226500              0.0165540741            0.000980968598           
       0.227180              0.0172135795            0.000984907216           
       0.227859              0.0156657476            0.000943798413           
       0.228538               0.015001825            0.000914308439           
       0.229217               0.014852257            0.000916940248           
       0.229896              0.0141803983            0.000895529491           
       0.230575              0.0162831379            0.000944334828           
       0.231255              0.0156456904            0.000939524861           
       0.231934              0.0156107209            0.000932062689           
       0.232613              0.0148796667            0.000913333924           
       0.233292              0.0155286343            0.000924023738           
       0.233971              0.0150060263            0.000907918001           
       0.234650              0.0147542147            0.000910857339           
       0.235330              0.0139951221            0.000879369912           
       0.236009              0.0147024151            0.000899374266           
       0.236688              0.0144965065            0.000889858166           
       0.237367              0.0153538367            0.000917123642           
       0.238046              0.0150685172            0.000914960788           
       0.238725               0.014703906            0.000889879374           
       0.239405              0.0149261768            0.000902139723           
       0.240084              0.0119492365            0.000802038715           
       0.240763              0.0157551438            0.000929769199           
       0.241442              0.0146701895              0.0008845429           
       0.242121              0.0147853312            0.000889683567           
       0.242800              0.0165441424            0.000945569286           
       0.243480              0.0142376656            0.000873076614           
       0.244159              0.0145747077            0.000883777575           
       0.244838              0.0147561894            0.000874630364           
       0.245517              0.0142362656            0.000871441268           
       0.246196              0.0146286468            0.000883794953           
       0.246875              0.0144297867              0.0008655314           
       0.247554              0.0135124835            0.000846081139           
       0.248234              0.0136210698            0.000836593213           
       0.248913              0.0155475999            0.000903825969           
       0.249592              0.0141648065            0.000854499654           
       0.250271              0.0145303241            0.000862941426           
       0.250950              0.0128090342            0.000815180406           
       0.251629              0.0116646349            0.000771301365           
       0.252309              0.0123859323            0.000796403962           
       0.252988              0.0137249865            0.000823908394           
       0.253667              0.0137558821            0.000834472452           
       0.254346              0.0140458526            0.000843048293           
       0.255025              0.0137907247            0.000833526784           
       0.255704              0.0163398131            0.000903141672           
       0.256384              0.0140117509            0.000833438354           
       0.257063              0.0141402417            0.000842024583           
       0.257742              0.0163915207            0.000900298146           
       0.258421              0.0147003212            0.000850948705           
       0.259100              0.0140195487            0.000832460566           
       0.259779              0.0139923799             0.00083094856           
       0.260459               0.012568472            0.000789081046           
       0.261138              0.0142071059             0.00082254946           
       0.261817              0.0130460713            0.000804133915           
       0.262496              0.0130939079            0.000797706156           
       0.263175              0.0126496273            0.000785740206           
       0.263854              0.0117681277            0.000754347401           
       0.264534              0.0140783036             0.00081802717           
       0.265213              0.0135122095            0.000814041148           
       0.265892              0.0124927137            0.000772701116           
       0.266571              0.0123481332            0.000766469805           
       0.267250              0.0123282931            0.000767143941           
       0.267929              0.0133607007            0.000797800775           
       0.268609              0.0126413944            0.000780276869           
       0.269288              0.0128509329            0.000773647945           
       0.269967              0.0125661419            0.000773270086           
       0.270646              0.0117126773            0.000743321819           
       0.271325              0.0132240653            0.000791144889           
       0.272004              0.0117429067             0.00073809186           
       0.272683              0.0118245761            0.000741569204           
       0.273363              0.0131098242             0.00078581156           
       0.274042              0.0136355048            0.000796683242           
       0.274721              0.0134401693            0.000790487275           
       0.275400              0.0116905245            0.000732359759           
       0.276079              0.0108018134            0.000707970004           
       0.276758                0.01207275            0.000757907069           
       0.277438              0.0126103573            0.000765903316           
       0.278117              0.0112444985            0.000736387523           
       0.278796               0.011967051            0.000751967706           
       0.279475               0.010823476            0.000726950257           
       0.280154              0.0109065464            0.000719237897           
       0.280833              0.0132521111             0.00079763563           
       0.281513              0.0119930057            0.000770702267           
       0.282192               0.011293155            0.000735118109           
       0.282871              0.0134302046            0.000807262904           
       0.283550              0.0112308389            0.000742165792           
       0.284229              0.0108102138            0.000738829516           
       0.284908              0.0112189099            0.000760605131           
       0.285588               0.010351727            0.000722062336           
       0.286267             0.00945794464            0.000701237934           
       0.286946              0.0111304072            0.000755769002           
       0.287625              0.0110866816            0.000767125989           
       0.288304              0.0117584533            0.000779451163           
       0.288983              0.0115440097            0.000782091144           
       0.289663              0.0104518949            0.000748533072           
       0.290342             0.00989965345            0.000724611936           
       0.291021              0.0110970868            0.000771317978           
       0.291700              0.0105287321            0.000741491499           
       0.292379             0.00934159688            0.000714430851           
       0.293058              0.0105592029            0.000756696335           
       0.293738             0.00964158231            0.000716997876           
       0.294417              0.0107100523            0.000764466206           
       0.295096              0.0115168668            0.000784023174           
       0.295775              0.0111121352            0.000781884984           
       0.296454              0.0102466343            0.000741106703           
       0.297133             0.00904811425            0.000699711416           
       0.297812              0.0102275256            0.000747649364           
       0.298492             0.00938632521            0.000717626995           
       0.299171              0.0107303876            0.000765836836           
       0.299850              0.0109440402            0.000768142145           
       0.300529              0.0103139171            0.000754100664           
       0.301208             0.00966621503            0.000731814899           
       0.301887              0.0087442665            0.000695213705           
       0.302567             0.00963882711            0.000726253373           
       0.303246              0.0106028529            0.000766679137           
       0.303925             0.00981352158            0.000747059959           
       0.304604             0.00954221726            0.000720754363           
       0.305283              0.0111807427             0.00079175672           
       0.305962             0.00920383602            0.000714018185           
       0.306642             0.00817171159            0.000681930332           
       0.307321             0.00944770859            0.000730899612           
       0.308000             0.00968690056            0.000731321524           
       0.308679             0.00988946735            0.000754930386           
       0.309358             0.00886672234            0.000705159184           
       0.310037             0.00857629611            0.000695059611           
       0.310717             0.00868372059            0.000698726232           
       0.311396              0.0084589786            0.000694250219           
       0.312075             0.00798661874            0.000683142444           
       0.312754             0.00888604426            0.000706167374           
       0.313433             0.00909220944            0.000720524727           
       0.314112             0.00778489156            0.000666562315           
       0.314792             0.00945029851            0.000739593908           
       0.315471             0.00870491815            0.000701049482           
       0.316150             0.00846842192             0.00069786021           
       0.316829             0.00975673801            0.000754011516           
       0.317508             0.00828556004            0.000687045869           
       0.318187             0.00891038663             0.00072187943           
       0.318866             0.00860928174            0.000700018747           
       0.319546             0.00841506837            0.000702452038           
       0.320225             0.00793576171            0.000682166914           
       0.320904             0.00878106975            0.000706484286           
       0.321583             0.00805193635            0.000691424237           
       0.322262              0.0092388872             0.00072941003           
       0.322941             0.00700979569            0.000643492171           
       0.323621              0.0077323483             0.00067171922           
       0.324300             0.00932413188            0.000738204233           
       0.324979              0.0078962736            0.000680562266           
       0.325658             0.00856763827            0.000710189916           
       0.326337             0.00883693569            0.000722206326           
       0.327016             0.00760971329            0.000665930066           
       0.327696             0.00864238472            0.000717570757           
       0.328375             0.00711563343            0.000645616216           
       0.329054             0.00821879175            0.000697622949           
       0.329733             0.00882509547            0.000725537085           
       0.330412             0.00830681725            0.000698142642           
       0.331091             0.00714775629            0.000659354501           
       0.331771             0.00695140967            0.000633197012           
       0.332450             0.00722378019            0.000658014987           
       0.333129             0.00730424822            0.000659962394           
       0.333808             0.00811602459            0.000696589196           
       0.334487             0.00740074305            0.000668339274           
       0.335166             0.00841069259            0.000702056724           
       0.335846             0.00762662824             0.00068028089           
       0.336525             0.00723417907            0.000656005514           
       0.337204             0.00703487582            0.000648601804           
       0.337883             0.00759369491            0.000674763841           
       0.338562             0.00678180087             0.00064121124           
       0.339241             0.00656340796            0.000631984384           
       0.339921             0.00632604979            0.000610046745           
       0.340600             0.00835406908            0.000714358087           
       0.341279             0.00745169586            0.000667450179           
       0.341958             0.00559239256            0.000586373649           
       0.342637              0.0065478581            0.000625527131           
       0.343316              0.0067715296            0.000637962984           
       0.343995             0.00669923464            0.000644938493           
       0.344675             0.00590234241            0.000594240583           
       0.345354             0.00605207667            0.000605700063           
       0.346033             0.00661012119            0.000631359227           
       0.346712             0.00578590788            0.000594456287           
       0.347391             0.00617026147            0.000617684525           
       0.348070             0.00580179536            0.000590451604           
       0.348750             0.00624144058            0.000621263659           
       0.349429             0.00655127551            0.000628280089           
       0.350108             0.00634894443            0.000625944746           
       0.350787             0.00774558041            0.000679627058           
       0.351466             0.00629495493            0.000623975332           
       0.352145             0.00588114186            0.000603617991           
       0.352825             0.00700187405            0.000655642165           
       0.353504             0.00607601991             0.00061060844           
       0.354183             0.00603857884            0.000601711039           
       0.354862             0.00596318292            0.000611837445           
       0.355541             0.00659191378            0.000634859242           
       0.356220             0.00618743422            0.000616235267           
       0.356900              0.0059271459            0.000608863172           
       0.357579             0.00664491714            0.000636771311           
       0.358258             0.00520453455            0.000571345007           
       0.358937             0.00608070456             0.00060595701           
       0.359616             0.00514641299            0.000565249053           
       0.360295             0.00535395594            0.000577014291           
       0.360975             0.00541727711             0.00057793413           
       0.361654             0.00504436229             0.00056056271           
       0.362333             0.00456438965            0.000530516023           
       0.363012             0.00449659226            0.000533336161           
       0.363691              0.0060725824            0.000607564093           
       0.364370             0.00578559618            0.000600390714           
       0.365050             0.00436474105            0.000518691325           
       0.365729             0.00590141071            0.000608876276           
       0.366408             0.00410116935            0.000508704449           
       0.367087             0.00597529333            0.000604184088           
       0.367766             0.00630585033            0.000633603286           
       0.368445             0.00429126915            0.000513403098           
       0.369124             0.00617067858            0.000620483775           
       0.369804             0.00552287231             0.00058607203           
       0.370483             0.00496417442            0.000558069229           
       0.371162             0.00526217424            0.000577906806           
       0.371841             0.00563262044            0.000587477844           
       0.372520             0.00478451065            0.000552298905           
       0.373199             0.00454369151            0.000531789696           
       0.373879             0.00611461964            0.000624050213           
       0.374558             0.00500315724            0.000556253583           
       0.375237             0.00483387762            0.000547658605           
       0.375916             0.00562104078            0.000601882483           
       0.376595             0.00481387186            0.000546107915           
       0.377274             0.00601698234            0.000620322108           
       0.377954             0.00495732754             0.00055421108           
       0.378633             0.00451618888             0.00053566263           
       0.379312             0.00443916779            0.000530941202           
       0.379991             0.00465996125            0.000541169285           
       0.380670             0.00424371811            0.000525562348           
       0.381349             0.00474104743            0.000547529073           
       0.382029             0.00456800987            0.000545145055           
       0.382708             0.00448441638            0.000528338909           
       0.383387             0.00424613063            0.000525761216           
       0.384066             0.00427432106            0.000522663552           
       0.384745             0.00469979034            0.000550214189           
       0.385424             0.00519396523            0.000580382903           
       0.386104             0.00552695595            0.000592082175           
       0.386783             0.00399380515            0.000514192819           
       0.387462              0.0042869725            0.000519478245           
       0.388141             0.00312209716            0.000450398389           
       0.388820              0.0045593014            0.000540346063           
       0.389499             0.00382990923            0.000498029528           
       0.390178             0.00451379383            0.000542822363           
       0.390858             0.00347378575            0.000472345645           
       0.391537             0.00415580217            0.000521912928           
       0.392216             0.00473116812            0.000549891342           
       0.392895             0.00450177665            0.000538201983           
       0.393574             0.00442493345            0.000532266147           
       0.394253             0.00421087839            0.000521568332           
       0.394933             0.00438076759            0.000538064842           
       0.395612             0.00279818341            0.000417537619           
       0.396291             0.00377259519            0.000494686992           
       0.396970             0.00402510691            0.000506447155           
       0.397649             0.00494692563            0.000563181256           
       0.398328             0.00458272097            0.000539670958           
       0.399008              0.0040596122            0.000506832835           
       0.399687             0.00363814231            0.000481668218           
       0.400366             0.00373526312            0.000486188271           
       0.401045             0.00264552626            0.000408392741           
       0.401724             0.00341922019              0.0004650609           
       0.402403             0.00328410789            0.000459332104           
       0.403083             0.00493304597            0.000554839943           
       0.403762              0.0039705864            0.000500234655           
       0.404441             0.00396441524            0.000503029299           
       0.405120             0.00335906808            0.000461515843           
       0.405799             0.00414990069            0.000510746317           
       0.406478             0.00464172365            0.000540178058           
       0.407158             0.00363116793            0.000476875083           
       0.407837             0.00413800051            0.000513562332           
       0.408516             0.00299100672             0.00043282461           
       0.409195             0.00407973815            0.000511232289           
       0.409874             0.00289981313            0.000437006529           
       0.410553             0.00284387754            0.000437425694           
       0.411233             0.00439995604            0.000541273588           
       0.411912             0.00290517346            0.000446055697           
       0.412591             0.00315242034            0.000467724298           
       0.413270             0.00421240135            0.000538101971           
       0.413949             0.00283794804            0.000446498082           
       0.414628             0.00319131983            0.000472630877           
       0.415307              0.0039670971            0.000532816365           
       0.415987             0.00264783433            0.000431710775           
       0.416666             0.00274322701            0.000436774732           
       0.417345             0.00234151642             0.00041026809           
       0.418024             0.00342620874             0.00049629181           
       0.418703             0.00362854053            0.000509797389           
       0.419382             0.00217147106            0.000392441747           
       0.420062             0.00247066053            0.000419778134           
       0.420741             0.00283991739            0.000452448969           
       0.421420             0.00281366965            0.000452061216           
       0.422099             0.00303120712            0.000469223538           
       0.422778             0.00283517652            0.000456254887           
       0.423457             0.00316635764            0.000485118199           
       0.424137             0.00212531253            0.000390969722           
       0.424816             0.00223405117            0.000409224075           
       0.425495             0.00281722487            0.000459107441           
       0.426174             0.00237972104            0.000422103196           
       0.426853             0.00264683098             0.00044245862           
       0.427532              0.0032187001            0.000492046572           
       0.428212              0.0028160715            0.000463281798           
       0.428891             0.00218644189            0.000407289713           
       0.429570              0.0023441811            0.000422014036           
       0.430249             0.00306765497            0.000480257174           
       0.430928             0.00172980142            0.000368521864           
       0.431607             0.00196117953            0.000385653029           
       0.432287             0.00200098007            0.000392399664           
       0.432966              0.0021858753            0.000413735987           
       0.433645             0.00203467924            0.000399587481           
       0.434324             0.00240294917            0.000431628758           
       0.435003             0.00262943461            0.000452283134           
       0.435682             0.00213912505            0.000411286713           
       0.436361             0.00292685833            0.000480447363           
       0.437041              0.0027567656            0.000465655691           
       0.437720             0.00206836203            0.000405291981           
       0.438399             0.00217273384            0.000417559511           
       0.439078             0.00223457072            0.000435739303           
       0.439757             0.00228461363            0.000437877204           
       0.440436             0.00240827303            0.000459703352           
       0.441116             0.00166901908            0.000388955213           
       0.441795             0.00240456009            0.000467422576           
       0.442474             0.00314079812            0.000535699442           
       0.443153             0.00179341684            0.000414245069           
       0.443832              0.0020866024            0.000447577245           
       0.444511             0.00206786175            0.000443555147           
       0.445191             0.00169077735            0.000410834679           
       0.445870             0.00258117578            0.000507626791           
       0.446549              0.0024403262            0.000498787294           
       0.447228             0.00240516878            0.000492383206           
       0.447907             0.00237256022            0.000494902111           
       0.448586             0.00259339709            0.000529872095           
       0.449266             0.00223951966            0.000487866225           
       0.449945             0.00137149303            0.000380228861           
       0.450624             0.00267500019            0.000539451937           
       0.451303             0.00191831229            0.000462747391           
       0.451982             0.00145132931            0.000400013095           
       0.452661             0.00208795407            0.000488729096           
       0.453341             0.00267967392            0.000555607366           
       0.454020             0.00316071345            0.000604339386           
       0.454699             0.00273731811            0.000567543932           
       0.455378              0.0018005503            0.000460545432           
       0.456057             0.00114896255            0.000374436887           
       0.456736             0.00223661095            0.000520792262           
       0.457416             0.00209554567            0.000504115668           
       0.458095             0.00181020979            0.000475320082           
       0.458774             0.00185999332            0.000488179264           
       0.459453             0.00162637992            0.000458795862           
       0.460132             0.00142218136            0.000419763015           
       0.460811             0.00234877275            0.000559571482           
       0.461490             0.00151340045            0.000444603024           
       0.462170              0.0018348703            0.000497190897           
       0.462849             0.00281638893            0.000619975455           
       0.463528             0.00254690121            0.000588201269           
       0.464207             0.00208364979            0.000541980067           
       0.464886             0.00258824685            0.000599347732           
       0.465565             0.00237164319            0.000580023328           
       0.466245             0.00196543232            0.000529657845           
       0.466924             0.00192919432             0.00053714792           
       0.467603             0.00111341286            0.000399413905           
       0.468282             0.00119449007             0.00042351091           
       0.468961             0.00166205301            0.000502851141           
       0.469640             0.00152130741            0.000483008297           
       0.470320             0.00167965631            0.000507874471           
       0.470999             0.00141268898            0.000470160878           
       0.471678             0.00175649521            0.000529299186           
       0.472357            0.000325487911            0.000228484061           
       0.473036             0.00277819206            0.000671741698           
       0.473715             0.00214202268            0.000594452842           
       0.474395             0.00187200259            0.000563405142           
       0.475074             0.00104577834            0.000421114365           
       0.475753             0.00199680727            0.000576878872           
       0.476432            0.000401664235            0.000268150149           
       0.477111             0.00142128024            0.000498313263           
       0.477790             0.00178087009            0.000560780569           
       0.478470            0.000762060595             0.00037168685           
       0.479149            0.000774988683            0.000378703284           
       0.479828             0.00114927472            0.000460086774           
       0.480507            0.000440354714            0.000287088966           
       0.481186            0.000859863846            0.000410214796           
       0.481865            0.000641146614            0.000349835269           
       0.482545             0.00104954116            0.000452851983           
       0.483224            0.000868268009            0.000414706543           
       0.483903            0.000495853785            0.000318330586           
       0.484582            0.000524873938            0.000332839364           
       0.485261            8.89455841e-05            0.000133544018           
       0.485940            0.000113027867            0.000156613987           
       0.486619            0.000323008313            0.000261842895           
       0.487299            0.000559888364            0.000350230113           
       0.487978           -9.84575139e-05                         0           
       0.488657           -8.34229358e-05                         0           
       0.489336           -0.000310217633                         0           
       0.490015            0.000137671141            0.000177237612           
       0.490694            0.000154361101            0.000192864323           
       0.491374            0.000123879014            0.000170669126           
       0.492053            0.000186928764            0.000215401109           
       0.492732           -0.000310311786                         0           
       0.493411             0.00016254922            0.000200662052           
       0.494090           -0.000310349926                         0           
       0.494769           -0.000310368689                         0           
       0.495449           -0.000310387716                         0           
       0.496128           -0.000310406802                         0           
       0.496807           -0.000310425678                         0           
       0.497486           -0.000310444729                         0           
       0.498165           -0.000310464054                         0           
       0.498844           -0.000310483087                         0           
       0.499524           -2.87304518e-05                         0           
       0.500203           -0.000310521636                         0           
       0.500882            -0.00031054068                         0           
       0.501561           -2.06351248e-05                         0           
       0.502240           -0.000310579143                         0           
       0.502919           -0.000310598416                         0           
       0.503599            -2.2688503e-05                         0           
       0.504278           -0.000310637389                         0           
       0.504957            -0.00031065678                         0           
       0.505636           -0.000310676048                         0           
       0.506315            7.00662296e-06            4.72522296e-05           
       0.506994           -0.000310714867                         0           
       0.507673            2.38180173e-05            8.96157776e-05           
       0.508353           -0.000310753662                         0           
       0.509032           -0.000310773179                         0           
       0.509711             2.0546073e-05            8.27625564e-05           
       0.510390           -0.000310812534                         0           
       0.511069           -0.000310832299                         0           
       0.511748           -0.000310851985                         0           
       0.512428            5.72154585e-05            0.000145622784           
       0.513107           -0.000310891332                         0           
       0.513786           -0.000310910915                         0           
       0.514465            0.000398881387            0.000382108774           
       0.515144           -0.000310950734                         0           
       0.515823           -0.000310970455                         0           
       0.516503            0.000504046254            0.000453767117           
       0.517182           -0.000311010266                         0           
       0.517861           -0.000311030122                         0           
       0.518540            -0.00031105009                         0           
       0.519219           -0.000311069943                         0           
       0.519898           -0.000311089996                         0           
       0.520578            -0.00031111017                         0           
       0.521257            0.000165988306            0.000282067729           
       0.521936           -0.000311150044                         0           
       0.522615           -0.000311170245                         0           
       0.523294            -0.00031119052                         0           
       0.523973           -0.000311210515                         0           
       0.524653            0.000196641234            0.000314933658           
       0.525332           -0.000311250505                         0           
       0.526011           -0.000311271007                         0           
       0.526690             0.00016326014            0.000278668218           
       0.527369             0.00123899321            0.000799327584           
       0.528048           -0.000311332202                         0           
       0.528728           -0.000311352616                         0           
       0.529407           -0.000311372936                         0           
       0.530086            0.000207220923            0.000325499778           
       0.530765           -0.000311413395                         0           
       0.531444           -0.000311433857                         0           
       0.532123           -0.000311454681                         0           
       0.532802           -0.000311475335                         0           
       0.533482           -0.000311495919                         0           
       0.534161           -0.000311516535                         0           
       0.534840           -0.000311536975                         0           
       0.535519            0.000264153286            0.000387674449           
       0.536198           -0.000311578397                         0           
       0.536877           -0.000311598716                         0           
       0.537557           -0.000311619385                         0           
       0.538236            -0.00031164024                         0           
       0.538915           -0.000311661087                         0           
       0.539594           -0.000311681906                         0           
       0.540273           -0.000311703051                         0           
       0.540952            -0.00031172396                         0           
       0.541632           -0.000311744487                         0           
       0.542311             0.00155319156            0.000981960903           
       0.542990           -0.000311786149                         0           
       0.543669           -0.000311807271                         0           
       0.544348           -0.000311828368                         0           
       0.545027             0.00166363724             0.00104165058           
       0.545707            0.000407261407            0.000540103249           
       0.546386            -0.00031189171                         0           
       0.547065            -0.00031191263                         0           
       0.547744           -0.000311933646                         0           
       0.548423           -0.000311954893                         0           
       0.549102           -0.000311976162                         0           
       0.549782           -0.000311997323                         0           
       0.550461           -0.000312018736                         0           
       0.551140           -0.000312040277                         0           
       0.551819           -0.000312061565                         0           
       0.552498           -0.000312083034                         0           
       0.553177           -0.000312104134                         0           
       0.553856            0.000558481625            0.000700470593           
       0.554536            0.000489278407             0.00062578862           
       0.555215           -0.000312168126                         0           
       0.555894           -0.000312189645                         0           
       0.556573           -0.000312211291                         0           
       0.557252            -0.00031223292                         0           
       0.557931             0.00155198424             0.00120473009           
       0.558611           -0.000312276485                         0           
       0.559290           -0.000312297959                         0           
       0.559969           -0.000312318905                         0           
       0.560648           -0.000312340406                         0           
       0.561327           -0.000312362385                         0           
       0.562006           -0.000312384263                         0           
       0.562686           -0.000312406154                         0           
       0.563365           -0.000312428125                         0           
       0.564044           -0.000312449985                         0           
       0.564723            0.000805875511            0.000943046808           
       0.565402           -0.000312493202                         0           
       0.566081            -0.00031251475                         0           
       0.566761            -0.00031253653                         0           
       0.567440           -0.000312558752                         0           
       0.568119           -0.000312580799                         0           
       0.568798           -0.000312603156                         0           
       0.569477           -0.000312625369                         0           
       0.570156            -0.00031264769                         0           
       0.570836           -0.000312669927                         0           
       0.571515           -0.000312691693                         0           
       0.572194           -0.000312714091                         0           
       0.572873             0.00117264302             0.00131827215           
       0.573552           -0.000312757733                         0           
       0.574231             0.00114778073             0.00129613638           
       0.574911           -0.000312802688                         0           
       0.575590           -0.000312825008                         0           
       0.576269           -0.000312847258                         0           
       0.576948           -0.000312869937                         0           
       0.577627             0.00162317221             0.00176547409           
       0.578306           -0.000312914221                         0           
       0.578985           -0.000312936709                         0           
       0.579665           -0.000312959068                         0           
       0.580344           -0.000312981764                         0           
       0.581023           -0.000313004436                         0           
       0.581702           -0.000313026898                         0           
       0.582381           -0.000313049156                         0           
       0.583060           -0.000313072079                         0           
       0.583740           -0.000313094641                         0           
       0.584419           -0.000313117278                         0           
       0.585098           -0.000313139888                         0           
       0.585777           -0.000313162675                         0           
       0.586456           -0.000313185832                         0           
       0.587135           -0.000313208373                         0           
       0.587815           -0.000313230671                         0           
       0.588494           -0.000313253664                         0           
       0.589173           -0.000313277185                         0           
       0.589852           -0.000313299455                         0           
       0.590531           -0.000313322566                         0           
       0.591210           -0.000313345143                         0           
       0.591890           -0.000313368157                         0           
       0.592569             -0.0003133904                         0           
       0.593248           -0.000313414719                         0           
       0.593927           -0.000313437841                         0           
       0.594606           -0.000313461438                         0           
       0.595285           -0.000313483629                         0           
       0.595965           -0.000313504336                         0           
       0.596644           -0.000313525646                         0           
