################################################################################
# EDF_DataBlockID                     0.Image.Psd
# EDF_BinarySize                      4366944
# EDF_HeaderSize                      2560
# ByteOrder                           LowByteFirst
# DataType                            FloatValue
# Dim_1                               1028
# Dim_2                               1062
# Image                               0
# HeaderID                            EH:000000:000000:000000
# Size                                4366944
# Center_1                            607.5200
# Center_2                            651.5500
# Comment                             Xenocs_Cell_Window - 20251028_20perc_iodine_1.23mg
# DDummy                              0.6
# Date                                2025-10-30T21:48:20
# Delta                               0
# Dummy                               -1.5
# ExposureTime                        360
# Gamma                               0
# Intensity1                          8.53203e-10
# PSize_1                             7.5e-05
# PSize_2                             7.5e-05
# Pressure                            0.0327749
# SampleDistance                      0.450002
# SampleEnvKind                       large
# SampleEnvPN                         ElectroChemical cell
# SampleEnvSN                         1141
# Thickness                           0
# Wavelength                          1.541891e-10
# Wavelength                          1.54189e-10
# aux                                 0
# aux_dial                            0.002375
# beamx                               588.434
# beamx_dial                          588.434
# beamz                               657.808
# beamz_dial                          657.808
# det0x                               0
# det0x_dial                          6.36945
# det0xvd                             0
# det0xvd_dial                        0
# det0y                               450.002
# det0y_dial                          481.635
# det0z                               0
# det0z_dial                          1.23302
# det0zvd                             0
# det0zvd_dial                        0
# mag                                 1.818
# mag_dial                            1.818
# om                                  0.2499
# om_dial                             -0.610199
# phi                                 -0.0120535
# phi_dial                            0
# ry                                  0.599993
# ry_dial                             0.599993
# s1bot                               0.8
# s1bot_dial                          -1.66094
# s1hl                                0.8
# s1hl_dial                           -0.608437
# s1hr                                0.8
# s1hr_dial                           0.970938
# s1top                               0.8
# s1top_dial                          -0.461562
# s2bot                               0.45
# s2bot_dial                          1.36109
# s2hl                                0.45
# s2hl_dial                           -0.83375
# s2hr                                0.45
# s2hr_dial                           -0.118594
# s2top                               0.45
# s2top_dial                          1.44734
# w2theta                             32
# w2theta_dial                        32
# waxsch                              19.2605
# waxsch_dial                         -32.7355
# waxsh                               137.085
# waxsh_dial                          -43.5338
# waxsth                              26.0607
# waxsth_dial                         -19.4086
# waxsz                               67.0407
# waxsz_dial                          -23.7954
# wind                                65.9854
# wind_dial                           66.0041
# wpsi                                124
# wpsi_dial                           124
# wstod                               115
# wstod_dial                          115
# x                                   0
# x_dial                              1.00969
# z                                   0
# z_dial                              13.3172
# CountCutoff                         15302352
# DetectorModel                       Dectris EIGER2 Si 1M, S/N E-02-0362
# ThresholdSetting                    4023.88989258
# Saturation                          0
# FlatField                           Corrected
# BackgroundReductionExtra            0.02
# BackgroundCorrectionConstant        0.0026712
# Detector                            0
# Monitor                             0
# Pil_Roi0                            0
# SumForIntensity1                    3.07153e+08
# TransmittedFlux                     853203
# det                                 0
# mon                                 0
# pilai0                              3.07153e+08
# pilai1                              771989
# pilct0                              5.31481e+08
# pilct1                              771989
# pilroi0                             0
# pilroi1                             0
# sec                                 1
# title                               20251028_20perc_iodine_1.23mg_0_00504.edf
# usaxs0                              0
# Operation                           Azimuthal average I(q)
# Error_model                         ErrorModel.poisson
# Geometrical_correction              True
# Transmission_correction             True
# Thickness_correction                False
# Binning mode                        Uniform
# Binning factor                      1.0
# Psi                                 0.0
# Omega                               0.2499
# MaskInvalidPixels                   True
# DetectorEdge                        3
# MaskFiles                           ['20251028_20perc_iodine_1.23mg_0_00012_mask.edf']
################################################################################
    q(A⁻¹)                Intensity(a.u.)            Sigma_I(a.u.)            
       0.000340                372507.588                120.637599           
       0.001019                359083.347                72.5317912           
       0.001698                349561.984                50.6031911           
       0.002377                330823.195                44.0310282           
       0.003056                308131.711                35.9141095           
       0.003735                253496.948                28.7283794           
       0.004415                204779.026                25.8206755           
       0.005094                152937.487                19.3246925           
       0.005773                100945.883                14.5353897           
       0.006452                58704.9255                10.6205965           
       0.007131                32261.6245                7.62716552           
       0.007810                16223.3541                5.36753989           
       0.008490                8140.52745                3.37026283           
       0.009169                3941.66817                2.31775853           
       0.009848                1204.02502                1.23851561           
       0.010527                464.640648               0.769383007           
       0.011206                116.624284               0.367884927           
       0.011885                53.3595316               0.231201992           
       0.012564                25.3850572               0.163721762           
       0.013244                  16.74348               0.124308313           
       0.013923                12.4090831               0.108741875           
       0.014602                9.29911152              0.0873036949           
       0.015281                  7.512976               0.079881603           
       0.015960                6.06179812              0.0712389374           
       0.016639                4.95791527              0.0608388323           
       0.017319                 4.0938524               0.054423966           
       0.017998                3.41965408              0.0475868052           
       0.018677                3.05476448              0.0465832168           
       0.019356                2.51833881              0.0417923501           
       0.020035                2.18845507              0.0365512126           
       0.020714                1.87621582              0.0342016142           
       0.021394                1.58191548              0.0297143817           
       0.022073                1.44059886              0.0295023053           
       0.022752                1.22369153              0.0260108127           
       0.023431                1.14655537              0.0244395247           
       0.024110                1.02585405              0.0241015369           
       0.024789               0.914498989              0.0211336136           
       0.025469               0.813354997              0.0205387632           
       0.026148               0.732285456              0.0183108859           
       0.026827               0.684593046              0.0179878913           
       0.027506               0.609332687              0.0172150893           
       0.028185               0.580805439              0.0160281608           
       0.028864               0.523367246              0.0151296169           
       0.029544               0.482163407               0.014082104           
       0.030223               0.446861821              0.0137511938           
       0.030902               0.399965142              0.0131286804           
       0.031581               0.388594313              0.0123015618           
       0.032260               0.351791671              0.0119039861           
       0.032939               0.321242336               0.010968348           
       0.033619               0.303321743              0.0108146599           
       0.034298               0.264718204              0.0098319165           
       0.034977               0.254436326             0.00944965718           
       0.035656               0.224286266             0.00910693799           
       0.036335               0.222506734             0.00879747902           
       0.037014               0.208666079             0.00854488266           
       0.037693               0.194110551             0.00792818678           
       0.038373               0.196012808             0.00804512246           
       0.039052               0.175871508              0.0076530059           
       0.039731               0.157029927             0.00706292673           
       0.040410               0.167208879             0.00723938392           
       0.041089               0.145772303             0.00665353877           
       0.041768               0.154909328             0.00689472647           
       0.042448               0.134545615             0.00637573071           
       0.043127               0.133689239             0.00620530616           
       0.043806               0.125076462             0.00604684682           
       0.044485               0.119434141             0.00578749515           
       0.045164               0.109354895             0.00564705219           
       0.045843               0.113269191              0.0055122907           
       0.046523               0.109177078             0.00543049033           
       0.047202               0.107710201             0.00543157718           
       0.047881              0.0997953732             0.00512738435           
       0.048560              0.0940859775             0.00502393115           
       0.049239              0.0939995762             0.00482166509           
       0.049918              0.0944077588             0.00492658541           
       0.050598              0.0838217267             0.00457251678           
       0.051277              0.0803150739             0.00446164743           
       0.051956              0.0855832675             0.00457673046           
       0.052635              0.0848081827             0.00445927182           
       0.053314              0.0788992061             0.00442687014           
       0.053993              0.0840716756              0.0044443418           
       0.054673              0.0700417724             0.00396622778           
       0.055352               0.079044055             0.00427529856           
       0.056031              0.0681757847             0.00388708956           
       0.056710              0.0764875969             0.00421812104           
       0.057389              0.0775815613             0.00409656572           
       0.058068              0.0718749791             0.00398367106           
       0.058748              0.0693147613             0.00396087743           
       0.059427              0.0667094334             0.00381993708           
       0.060106              0.0657263836              0.0038275737           
       0.060785              0.0691503401             0.00380837275           
       0.061464               0.062168583              0.0036980409           
       0.062143              0.0616321539             0.00364464878           
       0.062822              0.0541693102             0.00337677542           
       0.063502              0.0579746206             0.00348712785           
       0.064181              0.0550218289             0.00336129003           
       0.064860              0.0520288181             0.00331837405           
       0.065539              0.0488080439             0.00318259538           
       0.066218              0.0553689711             0.00331717917           
       0.066897              0.0511931177             0.00321426162           
       0.067577              0.0527890993             0.00329533827           
       0.068256              0.0511518238             0.00332351589           
       0.068935              0.0441323768             0.00303714946           
       0.069614              0.0532870797             0.00337054714           
       0.070293              0.0460210097             0.00316121358           
       0.070972              0.0477417319             0.00319619534           
       0.071652              0.0471265303             0.00318136005           
       0.072331              0.0497826168             0.00321150791           
       0.073010              0.0433854147             0.00306657464           
       0.073689              0.0448375339             0.00310034078           
       0.074368              0.0393503442             0.00289916065           
       0.075047              0.0391629867             0.00286116338           
       0.075727              0.0440202107             0.00301467228           
       0.076406               0.038733282             0.00288427104           
       0.077085              0.0453119521             0.00306130874           
       0.077764              0.0359909806             0.00271877415           
       0.078443              0.0374275173             0.00278966719           
       0.079122               0.039606352             0.00284215017           
       0.079802              0.0377337521             0.00280357008           
       0.080481              0.0332785401             0.00254405352           
       0.081160              0.0360938103             0.00270384642           
       0.081839              0.0357261918             0.00264697524           
       0.082518              0.0355603082             0.00264304697           
       0.083197              0.0333028511             0.00251803549           
       0.083876              0.0331750589             0.00247143896           
       0.084556               0.033101935             0.00253737139           
       0.085235              0.0319979083             0.00244650034           
       0.085914              0.0324695617             0.00248840565           
       0.086593              0.0307438477               0.002405791           
       0.087272              0.0323561866             0.00243318306           
       0.087951              0.0343277038             0.00256282883           
       0.088631              0.0332155534              0.0024351061           
       0.089310              0.0377659453             0.00265162513           
       0.089989              0.0318267305             0.00240575155           
       0.090668              0.0312459055             0.00241001022           
       0.091347              0.0318081169             0.00244520949           
       0.092026              0.0316239136             0.00233044742           
       0.092706              0.0286302585             0.00229788576           
       0.093385              0.0286010516             0.00226144434           
       0.094064              0.0276394997             0.00224897884           
       0.094743              0.0302253288             0.00231598952           
       0.095422              0.0267226963             0.00215338235           
       0.096101              0.0300232465             0.00232950367           
       0.096781              0.0305584713             0.00231652532           
       0.097460              0.0289791711             0.00219433373           
       0.098139              0.0272213502             0.00211037636           
       0.098818              0.0276689249             0.00210145333           
       0.099497              0.0290879394             0.00215909049           
       0.100176              0.0322635077              0.0022142146           
       0.100856              0.0302787508             0.00214365312           
       0.101535              0.0280770699             0.00206026469           
       0.102214              0.0303303179             0.00214135316           
       0.102893              0.0310722079             0.00214268932           
       0.103572              0.0252821049             0.00190421562           
       0.104251              0.0251638193             0.00190677397           
       0.104931              0.0266982567             0.00194616851           
       0.105610               0.028155079             0.00200708602           
       0.106289              0.0262820875             0.00190690635           
       0.106968              0.0266170629             0.00192471523           
       0.107647              0.0210905929             0.00171431802           
       0.108326              0.0258462063             0.00187238974           
       0.109005              0.0248604158             0.00182478184           
       0.109685              0.0251329226             0.00181417532           
       0.110364              0.0213448985             0.00169086796           
       0.111043              0.0262951928             0.00186928471           
       0.111722              0.0263279681             0.00184758729           
       0.112401              0.0260924721             0.00184442047           
       0.113080              0.0217584707             0.00166498748           
       0.113760              0.0247935495             0.00180700819           
       0.114439              0.0286671589             0.00191531541           
       0.115118              0.0224318901             0.00168148816           
       0.115797              0.0241731868             0.00176170285           
       0.116476              0.0213450506             0.00163066608           
       0.117155              0.0230428735             0.00170794336           
       0.117835              0.0263559731             0.00179029267           
       0.118514              0.0238191271             0.00172353234           
       0.119193              0.0250590972             0.00176783756           
       0.119872              0.0236959638             0.00169758352           
       0.120551              0.0224436112             0.00164111032           
       0.121230              0.0243254812             0.00169133465           
       0.121910              0.0220588351             0.00162617507           
       0.122589              0.0214105949              0.0016037537           
       0.123268              0.0231357114             0.00163481429           
       0.123947              0.0205841602             0.00155200555           
       0.124626              0.0236540955             0.00164337656           
       0.125305              0.0227083807             0.00161809122           
       0.125985              0.0212251947             0.00155221801           
       0.126664              0.0195703895             0.00147628416           
       0.127343              0.0209528435             0.00154524304           
       0.128022              0.0227743139             0.00159865255           
       0.128701              0.0218956792             0.00155934569           
       0.129380              0.0205366099             0.00149126178           
       0.130059              0.0218335594              0.0015412007           
       0.130739              0.0212485293             0.00153110422           
       0.131418              0.0220122624             0.00155401439           
       0.132097              0.0221898675             0.00154026088           
       0.132776              0.0202211524             0.00146370899           
       0.133455              0.0236436917             0.00159503601           
       0.134134              0.0198641991             0.00145734754           
       0.134814              0.0212429017             0.00149154534           
       0.135493              0.0204326039             0.00146874168           
       0.136172              0.0172469749             0.00133921117           
       0.136851              0.0216255427             0.00150832386           
       0.137530               0.020434495             0.00143136497           
       0.138209              0.0215367996             0.00148671649           
       0.138889               0.021681391             0.00149827425           
       0.139568              0.0167650307             0.00131692846           
       0.140247              0.0212204572              0.0014796802           
       0.140926              0.0192297607             0.00136829174           
       0.141605              0.0177758931              0.0013489729           
       0.142284              0.0163919158             0.00127392985           
       0.142964              0.0227989921             0.00150815646           
       0.143643              0.0195651545             0.00139534385           
       0.144322              0.0188169457             0.00133976921           
       0.145001              0.0208454551             0.00143908106           
       0.145680              0.0202033203             0.00138322461           
       0.146359              0.0192187653             0.00135403476           
       0.147039              0.0214893103             0.00144357437           
       0.147718              0.0197324089             0.00136047886           
       0.148397              0.0163034269             0.00125585052           
       0.149076              0.0191813653             0.00131993431           
       0.149755              0.0194403628             0.00134933341           
       0.150434              0.0191521791             0.00133984145           
       0.151114              0.0188610544               0.001322265           
       0.151793              0.0204326795             0.00137626544           
       0.152472              0.0180232449             0.00126974363           
       0.153151              0.0195446685             0.00133503372           
       0.153830              0.0174789637             0.00125331476           
       0.154509              0.0174138086             0.00124575717           
       0.155188              0.0175560395             0.00125037199           
       0.155868              0.0174323246             0.00123709224           
       0.156547              0.0195047467             0.00131696846           
       0.157226              0.0187823249             0.00126078422           
       0.157905              0.0176457582             0.00123230697           
       0.158584              0.0212728273             0.00135058412           
       0.159263              0.0192758085             0.00129035845           
       0.159943              0.0183296176             0.00125922852           
       0.160622              0.0196635295             0.00127907319           
       0.161301              0.0195809479             0.00129345646           
       0.161980              0.0183328869             0.00123027901           
       0.162659              0.0197536347             0.00129121588           
       0.163338              0.0187615272             0.00124811666           
       0.164018              0.0177447535             0.00120745414           
       0.164697              0.0173825122             0.00121041117           
       0.165376              0.0186959101             0.00122788011           
       0.166055              0.0177935851             0.00120578303           
       0.166734              0.0163603016             0.00115102109           
       0.167413              0.0154795646             0.00112039448           
       0.168093               0.018766163             0.00124528328           
       0.168772              0.0189902154              0.0012160601           
       0.169451              0.0165529256             0.00115623244           
       0.170130              0.0172175783             0.00116373617           
       0.170809              0.0173266941             0.00118134986           
       0.171488               0.016219244             0.00113255358           
       0.172168              0.0180459122             0.00118315202           
       0.172847              0.0168671587             0.00115888363           
       0.173526              0.0153633654             0.00108491861           
       0.174205              0.0192421909             0.00121976678           
       0.174884              0.0213315766             0.00127759115           
       0.175563              0.0169399663             0.00114337058           
       0.176243              0.0183219984             0.00120099679           
       0.176922              0.0188757891             0.00118724462           
       0.177601              0.0159294777             0.00110264366           
       0.178280              0.0186996132             0.00118134183           
       0.178959              0.0168202079             0.00112941654           
       0.179638              0.0175416674             0.00115006256           
       0.180317              0.0161700486             0.00109614066           
       0.180997              0.0155352454             0.00108024078           
       0.181676              0.0161375236             0.00108922532           
       0.182355              0.0153273459             0.00106790667           
       0.183034              0.0161577383               0.001078856           
       0.183713              0.0164403849             0.00110150451           
       0.184392              0.0145668595             0.00103652997           
       0.185072               0.014603171             0.00102599341           
       0.185751              0.0161258546             0.00108115726           
       0.186430              0.0160981955             0.00107266367           
       0.187109              0.0167394814              0.0011060019           
       0.187788              0.0164621067             0.00109409632           
       0.188467              0.0161516254              0.0010709047           
       0.189147              0.0155515192              0.0010614635           
       0.189826              0.0158234349             0.00105176902           
       0.190505              0.0167119842             0.00109868925           
       0.191184              0.0166556832             0.00108102907           
       0.191863              0.0168009536             0.00108802049           
       0.192542              0.0162379067             0.00107972073           
       0.193222              0.0171762896             0.00108559484           
       0.193901              0.0156687935             0.00105075946           
       0.194580              0.0172904537             0.00108448762           
       0.195259              0.0159470437             0.00105346684           
       0.195938              0.0156878481             0.00104736485           
       0.196617              0.0175492275             0.00109229628           
       0.197297              0.0155781799             0.00103333105           
       0.197976               0.015284958             0.00100783757           
       0.198655              0.0140689137             0.00097747735           
       0.199334              0.0163490063             0.00104442005           
       0.200013              0.0164743442             0.00104783456           
       0.200692              0.0167389078             0.00106256781           
       0.201371              0.0169660346             0.00105770467           
       0.202051               0.016673551             0.00105180868           
       0.202730              0.0141282884            0.000958535019           
       0.203409              0.0163483209              0.0010380192           
       0.204088              0.0146810517             0.00098257738           
       0.204767              0.0165212305             0.00103686153           
       0.205446              0.0143668481            0.000968786635           
       0.206126              0.0153730601             0.00098852286           
       0.206805              0.0168617056             0.00105425799           
       0.207484              0.0159048464             0.00100550052           
       0.208163              0.0150013354            0.000982391117           
       0.208842              0.0157900087             0.00100515305           
       0.209521              0.0149695831            0.000970558045           
       0.210201              0.0149484632            0.000980696172           
       0.210880              0.0160709323            0.000996895968           
       0.211559              0.0166145661              0.0010286032           
       0.212238              0.0154483273            0.000986798647           
       0.212917              0.0156305739             0.00098891436           
       0.213596              0.0153814223            0.000986801579           
       0.214276              0.0151065747            0.000957571309           
       0.214955              0.0148678074            0.000969950992           
       0.215634               0.016340529             0.00100956809           
       0.216313              0.0153293652            0.000975779594           
       0.216992              0.0135975988            0.000918780952           
       0.217671               0.014443238             0.00094050569           
       0.218351              0.0175976317             0.00104829396           
       0.219030              0.0139027866            0.000917058413           
       0.219709              0.0154159715            0.000971699836           
       0.220388              0.0167831005             0.00101256869           
       0.221067              0.0143184525            0.000936010271           
       0.221746              0.0165940187              0.0010066147           
       0.222426              0.0150693195            0.000944919541           
       0.223105              0.0158676587            0.000982836105           
       0.223784              0.0164891863            0.000991961779           
       0.224463               0.014175817            0.000927073672           
       0.225142              0.0152468012            0.000946243701           
       0.225821              0.0150102445            0.000942656264           
       0.226500              0.0159822361            0.000978883261           
       0.227180              0.0157118407            0.000955614503           
       0.227859              0.0155331351            0.000954426994           
       0.228538              0.0161660008            0.000963898828           
       0.229217               0.014608652             0.00092354775           
       0.229896              0.0144816087            0.000919080509           
       0.230575              0.0139761115            0.000888504455           
       0.231255              0.0145128869            0.000918961441           
       0.231934              0.0147012166            0.000918585861           
       0.232613              0.0152922652            0.000940325841           
       0.233292              0.0158349031            0.000947618815           
       0.233971              0.0138206589            0.000884886608           
       0.234650              0.0141638354            0.000906342243           
       0.235330              0.0161495535            0.000959340967           
       0.236009              0.0131737371            0.000864589757           
       0.236688              0.0162549324            0.000956954238           
       0.237367              0.0138610761            0.000884967616           
       0.238046              0.0133646752            0.000875096409           
       0.238725              0.0133360814            0.000860673385           
       0.239405              0.0129170546            0.000852296562           
       0.240084              0.0158290077            0.000937479054           
       0.240763              0.0144373538            0.000903893456           
       0.241442              0.0140229728            0.000878275076           
       0.242121              0.0144488208            0.000893193833           
       0.242800              0.0151152119            0.000917884046           
       0.243480              0.0134125329            0.000860593051           
       0.244159              0.0149223907             0.00090817957           
       0.244838              0.0144806991            0.000879916938           
       0.245517              0.0135873875            0.000864604588           
       0.246196              0.0138181182            0.000872335137           
       0.246875              0.0138609999            0.000861508618           
       0.247554               0.014304023            0.000884062561           
       0.248234              0.0123383568             0.00080862444           
       0.248913              0.0147985685            0.000895514176           
       0.249592              0.0126413216            0.000819808245           
       0.250271              0.0129310555            0.000826742244           
       0.250950              0.0123016627            0.000811310172           
       0.251629              0.0123960571            0.000807494889           
       0.252309              0.0132895899            0.000837788362           
       0.252988               0.014699279            0.000865925353           
       0.253667              0.0143892575            0.000866755183           
       0.254346              0.0160058481            0.000913960063           
       0.255025              0.0145293972            0.000868878972           
       0.255704              0.0135792422            0.000836141119           
       0.256384              0.0125187644            0.000800050656           
       0.257063              0.0132706518            0.000828422634           
       0.257742              0.0139616916            0.000843830515           
       0.258421              0.0121721155            0.000786380031           
       0.259100              0.0142067222            0.000851046069           
       0.259779              0.0130581518            0.000815227229           
       0.260459              0.0138391374            0.000840900004           
       0.261138              0.0128344692            0.000793976487           
       0.261817              0.0122928115            0.000792726889           
       0.262496              0.0129065414            0.000804308604           
       0.263175              0.0134617802            0.000823191416           
       0.263854              0.0126398623            0.000793959514           
       0.264534              0.0137950205            0.000822362343           
       0.265213              0.0126695139            0.000800520803           
       0.265892              0.0120059558            0.000769291597           
       0.266571               0.012871722             0.00079473474           
       0.267250              0.0112558237            0.000744429368           
       0.267929              0.0124444383            0.000781946354           
       0.268609              0.0112436944            0.000747334845           
       0.269288              0.0131674846            0.000795310895           
       0.269967              0.0139548889            0.000827566486           
       0.270646              0.0122762628            0.000772843136           
       0.271325              0.0125115016            0.000781515733           
       0.272004               0.013076386            0.000790999029           
       0.272683              0.0113733531            0.000738605659           
       0.273363              0.0119687781             0.00076252548           
       0.274042              0.0112423298            0.000734662221           
       0.274721              0.0129862448            0.000789121324           
       0.275400              0.0108788888            0.000717479039           
       0.276079              0.0123350095            0.000768326373           
       0.276758              0.0117515972            0.000759400319           
       0.277438              0.0136382094            0.000808906647           
       0.278117              0.0121585116            0.000777653367           
       0.278796              0.0111117318            0.000735878251           
       0.279475              0.0130642085            0.000811096154           
       0.280154              0.0107604782            0.000725528034           
       0.280833              0.0130719638             0.00080452937           
       0.281513              0.0109201439            0.000746872157           
       0.282192              0.0117461946            0.000761390663           
       0.282871              0.0115978969            0.000761855798           
       0.283550              0.0109664403            0.000744795675           
       0.284229              0.0103492324            0.000734159866           
       0.284908               0.011618595            0.000786086249           
       0.285588               0.010479022            0.000737799127           
       0.286267              0.0117350712            0.000793266942           
       0.286946              0.0111310734            0.000767558609           
       0.287625              0.0113837089            0.000789436628           
       0.288304               0.011063004            0.000767820703           
       0.288983              0.0114700419             0.00079171888           
       0.289663              0.0100593884            0.000745776575           
       0.290342              0.0101193388            0.000744013865           
       0.291021              0.0112692981            0.000789381363           
       0.291700              0.0110796679            0.000772486652           
       0.292379              0.0108355457             0.00078141997           
       0.293058              0.0111375304            0.000789241637           
       0.293738              0.0114414489            0.000793220078           
       0.294417             0.00991720182            0.000747079029           
       0.295096              0.0102315027            0.000750483093           
       0.295775              0.0103915285             0.00076787991           
       0.296454              0.0109408493            0.000777723308           
       0.297133              0.0115928004             0.00080434724           
       0.297812             0.00965282001             0.00073764815           
       0.298492              0.0100835528            0.000755383043           
       0.299171             0.00960319057            0.000735776299           
       0.299850              0.0104709383            0.000763053571           
       0.300529             0.00995869178            0.000752537461           
       0.301208             0.00909072863            0.000720745337           
       0.301887             0.00970879158            0.000743958474           
       0.302567             0.00937188412            0.000727275564           
       0.303246              0.0109896936            0.000792692122           
       0.303925             0.00940076763            0.000742564446           
       0.304604             0.00786655118            0.000664606049           
       0.305283              0.0100095706            0.000760805473           
       0.305962              0.0100134973            0.000756357649           
       0.306642             0.00898684767            0.000726267578           
       0.307321             0.00905222565               0.000726577           
       0.308000             0.00810974512            0.000679561883           
       0.308679             0.00957987991            0.000754588117           
       0.309358              0.0106560589            0.000785079058           
       0.310037             0.00948460562            0.000742320204           
       0.310717             0.00913664123             0.00072787514           
       0.311396             0.00783927051            0.000678741434           
       0.312075             0.00901430364            0.000737064268           
       0.312754             0.00954469881            0.000743265544           
       0.313433             0.00856905537            0.000710379012           
       0.314112             0.00839282138            0.000702874742           
       0.314792             0.00933308703              0.0007464362           
       0.315471             0.00781680264            0.000674668408           
       0.316150              0.0105312408            0.000790344506           
       0.316829              0.0109098679            0.000809738663           
       0.317508             0.00901483044            0.000727801679           
       0.318187             0.00995761918            0.000775003427           
       0.318866             0.00807282508            0.000688412037           
       0.319546             0.00910036545            0.000741868177           
       0.320225             0.00724550163            0.000661972648           
       0.320904             0.00903660779            0.000727848487           
       0.321583             0.00898229108            0.000741647382           
       0.322262             0.00792658649            0.000686142742           
       0.322941             0.00850851533            0.000719990811           
       0.323621             0.00821389669            0.000703098486           
       0.324300             0.00864148245            0.000721731943           
       0.324979             0.00881159111            0.000730118602           
       0.325658             0.00816108951            0.000703926775           
       0.326337             0.00807921797            0.000701301193           
       0.327016             0.00839128461            0.000710179571           
       0.327696              0.0077822603             0.00069152882           
       0.328375             0.00799739782            0.000695106693           
       0.329054             0.00852482633            0.000721554292           
       0.329733             0.00810870042            0.000706293177           
       0.330412             0.00934657978            0.000752077628           
       0.331091             0.00883003998            0.000744260406           
       0.331771              0.0076445796            0.000674355171           
       0.332450              0.0070190901            0.000658723878           
       0.333129             0.00791243319            0.000697583066           
       0.333808             0.00806625912            0.000705262213           
       0.334487             0.00821426271            0.000715077458           
       0.335166             0.00716104284            0.000657890981           
       0.335846             0.00613053363            0.000619413399           
       0.336525             0.00660996327            0.000636827573           
       0.337204             0.00714336017            0.000663759396           
       0.337883             0.00757851346            0.000684583956           
       0.338562             0.00730774438            0.000675973635           
       0.339241             0.00707105256            0.000666182399           
       0.339921             0.00719043262            0.000660516689           
       0.340600             0.00616877658            0.000623413107           
       0.341279             0.00621508501             0.00061904797           
       0.341958             0.00607831336            0.000620835635           
       0.342637             0.00775064809            0.000691154285           
       0.343316             0.00680531673            0.000649509841           
       0.343995             0.00665561489            0.000652843779           
       0.344675             0.00540898691            0.000577720192           
       0.345354             0.00661517236            0.000643110298           
       0.346033             0.00714330662            0.000666547249           
       0.346712              0.0066072079            0.000645138005           
       0.347391             0.00617925826            0.000627758474           
       0.348070             0.00686418379            0.000652239398           
       0.348750             0.00611443705            0.000624483895           
       0.349429              0.0048943943            0.000551504824           
       0.350108             0.00621650654               0.000629025           
       0.350787             0.00691856106             0.00065232052           
       0.351466             0.00726697242            0.000680859243           
       0.352145             0.00580646663            0.000609111486           
       0.352825              0.0054337927            0.000586571199           
       0.353504              0.0051847303            0.000572830017           
       0.354183             0.00759002895            0.000685096579           
       0.354862             0.00491738543            0.000564252622           
       0.355541             0.00565907573             0.00059738445           
       0.356220             0.00538467458               0.000583822           
       0.356900             0.00476681495            0.000554524217           
       0.357579             0.00709753492            0.000668346913           
       0.358258             0.00634069048            0.000640450013           
       0.358937             0.00596752609            0.000609637256           
       0.359616             0.00588400709            0.000613809483           
       0.360295             0.00576847212            0.000608259703           
       0.360975              0.0061052282            0.000623086356           
       0.361654             0.00514300813            0.000574829632           
       0.362333             0.00591226829             0.00061318806           
       0.363012             0.00626067524            0.000639115482           
       0.363691              0.0054541886            0.000584763073           
       0.364370              0.0051428298            0.000574871074           
       0.365050             0.00495279464            0.000561131149           
       0.365729               0.004719464            0.000552976844           
       0.366408             0.00605131028            0.000627546438           
       0.367087             0.00616456463            0.000623232865           
       0.367766             0.00512246754            0.000579955502           
       0.368445             0.00556206749            0.000593599066           
       0.369124             0.00450221513            0.000538253128           
       0.369804             0.00647620081            0.000644522556           
       0.370483             0.00575940657               0.000610468           
       0.371162               0.005613848            0.000606198693           
       0.371841             0.00555339587            0.000592413626           
       0.372520             0.00586108679            0.000620803232           
       0.373199             0.00480779359            0.000555543257           
       0.373879             0.00479293549            0.000561106214           
       0.374558             0.00427184694            0.000521997065           
       0.375237             0.00486346046            0.000557884453           
       0.375916             0.00459793844            0.000552833542           
       0.376595             0.00472464545            0.000549446351           
       0.377274             0.00494584303            0.000571159663           
       0.377954             0.00472175244            0.000549303641           
       0.378633              0.0053813005            0.000593824889           
       0.379312              0.0051104956            0.000578544316           
       0.379991             0.00480154293            0.000557881383           
       0.380670             0.00402890719            0.000520060759           
       0.381349             0.00379367715             0.00049740448           
       0.382029             0.00391008927            0.000512213912           
       0.382708             0.00462090463            0.000544668935           
       0.383387             0.00450960413            0.000550263308           
       0.384066             0.00455299655            0.000547831221           
       0.384745             0.00419401411            0.000527857822           
       0.385424             0.00461167292            0.000555397364           
       0.386104             0.00446000511            0.000540152184           
       0.386783             0.00554768068             0.00061545708           
       0.387462             0.00427600711            0.000526890901           
       0.388141             0.00512144876            0.000585840661           
       0.388820             0.00378378513            0.000499914284           
       0.389499             0.00408828247            0.000522565547           
       0.390178             0.00459442259            0.000556175449           
       0.390858             0.00391544641            0.000509282223           
       0.391537             0.00407411308            0.000524803394           
       0.392216              0.0051452254            0.000582377205           
       0.392895             0.00339396363            0.000474587601           
       0.393574             0.00389750231            0.000507315506           
       0.394253             0.00447395639            0.000545984372           
       0.394933             0.00528180629            0.000600012388           
       0.395612             0.00475038558             0.00055249891           
       0.396291             0.00416156893            0.000527652994           
       0.396970             0.00506251465            0.000576816993           
       0.397649             0.00470438092            0.000557752101           
       0.398328             0.00413353063            0.000520519967           
       0.399008             0.00398461448            0.000509947065           
       0.399687             0.00415677392             0.00052287253           
       0.400366             0.00444831256            0.000538829046           
       0.401045             0.00390444405            0.000503861356           
       0.401724             0.00515790121            0.000580085857           
       0.402403             0.00418383413            0.000526519907           
       0.403083              0.0044983602            0.000538079845           
       0.403762             0.00462204279            0.000548116536           
       0.404441             0.00343544714            0.000475559456           
       0.405120             0.00438777354            0.000535684138           
       0.405799              0.0040802377             0.00051432614           
       0.406478             0.00421067442            0.000522495559           
       0.407158             0.00394410654            0.000504737133           
       0.407837             0.00439996765            0.000537814006           
       0.408516             0.00443119002            0.000535023566           
       0.409195             0.00340756305            0.000474497092           
       0.409874             0.00395232187             0.00051812977           
       0.410553             0.00293328394            0.000451164968           
       0.411233             0.00343112484            0.000485423056           
       0.411912             0.00292792874            0.000454771019           
       0.412591             0.00311771442             0.00047238436           
       0.413270             0.00340588965            0.000491387915           
       0.413949             0.00243382054            0.000419924417           
       0.414628             0.00235156284            0.000412026068           
       0.415307              0.0026410316            0.000441506815           
       0.415987             0.00424880962            0.000555380458           
       0.416666             0.00362248863            0.000509729327           
       0.417345             0.00299920049            0.000471553919           
       0.418024             0.00397514241            0.000542895221           
       0.418703             0.00344049782            0.000504140671           
       0.419382             0.00209263682            0.000391250209           
       0.420062             0.00269439142            0.000445197883           
       0.420741             0.00280045447            0.000456289506           
       0.421420             0.00260254327            0.000441539081           
       0.422099              0.0029788546            0.000472395889           
       0.422778             0.00292199141            0.000470399032           
       0.423457             0.00251516562            0.000439096879           
       0.424137             0.00324354611            0.000490513806           
       0.424816             0.00268600627            0.000455698504           
       0.425495             0.00245866338            0.000435574639           
       0.426174             0.00321815154            0.000498503642           
       0.426853             0.00226631087            0.000415794528           
       0.427532             0.00224582966            0.000417410947           
       0.428212             0.00250883174            0.000444087594           
       0.428891              0.0025711589            0.000448547463           
       0.429570             0.00274120462             0.00046345921           
       0.430249             0.00184624753            0.000378377273           
       0.430928             0.00315567731              0.0005054997           
       0.431607             0.00187288443            0.000382739279           
       0.432287             0.00315523414            0.000500417529           
       0.432966             0.00258165815            0.000456635265           
       0.433645             0.00211474285            0.000413715844           
       0.434324             0.00191202304            0.000391015628           
       0.435003             0.00264291984            0.000460501103           
       0.435682             0.00220097207            0.000423685237           
       0.436361             0.00211653991            0.000414923152           
       0.437041             0.00235441407             0.00043703467           
       0.437720             0.00236969581            0.000440565521           
       0.438399             0.00223203326            0.000429808421           
       0.439078             0.00213627933            0.000432681349           
       0.439757             0.00200582975            0.000416679815           
       0.440436             0.00248461943            0.000474202917           
       0.441116             0.00266253968            0.000498914888           
       0.441795             0.00202191387            0.000435293985           
       0.442474             0.00278396147            0.000512203175           
       0.443153              0.0018551698            0.000427876105           
       0.443832             0.00255044678            0.000502534352           
       0.444511             0.00261219118            0.000506289391           
       0.445191               0.002977951             0.00055372245           
       0.445870             0.00235227764            0.000492140956           
       0.446549             0.00346246765            0.000603383981           
       0.447228             0.00206729144            0.000463597174           
       0.447907              0.0010586141            0.000335729107           
       0.448586             0.00257219429            0.000535917449           
       0.449266             0.00296550147            0.000570140456           
       0.449945             0.00314170812             0.00058444099           
       0.450624             0.00215957144             0.00049224817           
       0.451303             0.00242763942            0.000528671488           
       0.451982              0.0022892259            0.000510205369           
       0.452661             0.00309606157            0.000604396572           
       0.453341             0.00300460401            0.000597489277           
       0.454020             0.00264716301            0.000561678957           
       0.454699             0.00270927112            0.000573419631           
       0.455378             0.00246663926            0.000547434475           
       0.456057             0.00358281225            0.000671501811           
       0.456736             0.00240776448            0.000548764204           
       0.457416             0.00191862643            0.000489876172           
       0.458095             0.00236144999            0.000551341341           
       0.458774             0.00113422604            0.000387153256           
       0.459453             0.00220868842            0.000542981698           
       0.460132             0.00196755118            0.000501417136           
       0.460811             0.00214555513            0.000543143248           
       0.461490             0.00183347201            0.000496983647           
       0.462170             0.00244661967            0.000583059919           
       0.462849             0.00178300833            0.000500973025           
       0.463528             0.00108797763             0.00039042657           
       0.464207             0.00199364443             0.00053839904           
       0.464886            0.000678393854            0.000311620805           
       0.465565             0.00172783481            0.000502783907           
       0.466245             0.00129950508            0.000437385948           
       0.466924             0.00121485079            0.000432889304           
       0.467603             0.00263606176            0.000624140447           
       0.468282             0.00245479523            0.000616581428           
       0.468961             0.00108705271            0.000413001643           
       0.469640            0.000786734997            0.000352752264           
       0.470320             0.00124918998            0.000444805235           
       0.470999             0.00113057665            0.000427152242           
       0.471678             0.00229029604            0.000613808681           
       0.472357             0.00133031256            0.000469110117           
       0.473036              0.0015223344            0.000504993373           
       0.473715             0.00103972305            0.000420604277           
       0.474395            0.000899106329            0.000396535967           
       0.475074            0.000891367354            0.000394837206           
       0.475753            0.000705994123            0.000348358631           
       0.476432             0.00115749773            0.000462291607           
       0.477111             0.00111135127             0.00044750484           
       0.477790            0.000589261241            0.000327597251           
       0.478470             0.00134249861            0.000501012821           
       0.479149            0.000997546822            0.000436342494           
       0.479828             0.00117355439             0.00047215969           
       0.480507            0.000431145087            0.000288493724           
       0.481186            0.000274665209            0.000235454923           
       0.481865             0.00201228692            0.000629418263           
       0.482545            0.000688768229            0.000372565437           
       0.483224            0.000683835248            0.000373765492           
       0.483903             0.00051364159            0.000329034257           
       0.484582            0.000979051513            0.000461656999           
       0.485261           -0.000125235857                         0           
       0.485940            0.000342870531            0.000277020771           
       0.486619           -0.000105978899                         0           
       0.487299            0.000580008893            0.000362017499           
       0.487978           -0.000103717192                         0           
       0.488657            0.000142584567            0.000184996049           
       0.489336           -9.31460086e-05                         0           
       0.490015           -0.000100648639                         0           
       0.490694           -8.72399246e-05                         0           
       0.491374            0.000637088858            0.000393066086           
       0.492053           -0.000320030194                         0           
       0.492732           -0.000320049548                         0           
       0.493411           -7.03818035e-05                         0           
       0.494090           -8.06409577e-05                         0           
       0.494769           -0.000320108237                         0           
       0.495449           -0.000320127861                         0           
       0.496128            0.000472896828            0.000356882353           
       0.496807           -0.000320167014                         0           
       0.497486           -0.000320186663                         0           
       0.498165           -3.44959873e-05                         0           
       0.498844           -0.000320226224                         0           
       0.499524           -0.000320245947                         0           
       0.500203           -3.35036298e-05                         0           
       0.500882           -0.000320285625                         0           
       0.501561           -0.000320305328                         0           
       0.502240           -0.000320325295                         0           
       0.502919           -3.22021686e-06                         0           
       0.503599           -2.16636499e-05                         0           
       0.504278           -0.000320385368                         0           
       0.504957           -0.000320405368                         0           
       0.505636            2.92094328e-06            3.08565809e-05           
       0.506315            -0.00032044544                         0           
       0.506994             2.4217556e-05            9.07225155e-05           
       0.507673           -0.000320485075                         0           
       0.508353            1.08180104e-05            5.99631566e-05           
       0.509032            -0.00032052542                         0           
       0.509711           -0.000320545556                         0           
       0.510390            0.000760514871            0.000524312654           
       0.511069           -0.000320586395                         0           
       0.511748            5.52114524e-05             0.00014257352           
       0.512428           -0.000320627147                         0           
       0.513107            6.02455157e-05            0.000151519196           
       0.513786            0.000894102898            0.000600150079           
       0.514465            0.000439871956            0.000407509498           
       0.515144           -0.000320708546                         0           
       0.515823           -0.000320728887                         0           
       0.516503           -0.000320749418                         0           
       0.517182           -0.000320769947                         0           
       0.517861            0.000106700904            0.000213544495           
       0.518540            0.000126671512             0.00023870157           
       0.519219           -0.000320831497                         0           
       0.519898           -0.000320852179                         0           
       0.520578            0.000122764874            0.000234139286           
       0.521257           -0.000320893524                         0           
       0.521936           -0.000320914112                         0           
       0.522615             0.00016415845            0.000281440921           
       0.523294           -0.000320955857                         0           
       0.523973            0.000171485411            0.000289420594           
       0.524653           -0.000320996953                         0           
       0.525332           -0.000321017725                         0           
       0.526011            -0.00032103887                         0           
       0.526690           -0.000321059975                         0           
       0.527369           -0.000321080906                         0           
       0.528048            0.000695689387            0.000594021004           
       0.528728            -0.00032112304                         0           
       0.529407           -0.000321143998                         0           
       0.530086           -0.000321164847                         0           
       0.530765           -0.000321185726                         0           
       0.531444            -0.00032120683                         0           
       0.532123            0.000263765376            0.000388644871           
       0.532802            -0.00032124961                         0           
       0.533482           -0.000321270839                         0           
       0.534161           -0.000321292103                         0           
       0.534840           -0.000321313184                         0           
       0.535519           -0.000321334656                         0           
       0.536198           -0.000321355906                         0           
       0.536877           -0.000321376863                         0           
       0.537557            -0.00032139818                         0           
       0.538236            0.000995300991            0.000804589541           
       0.538915           -0.000321441191                         0           
       0.539594           -0.000321462663                         0           
       0.540273           -0.000321484471                         0           
       0.540952           -0.000321506037                         0           
       0.541632           -0.000321527208                         0           
       0.542311           -0.000321548573                         0           
       0.542990           -0.000321570178                         0           
       0.543669           -0.000321591962                         0           
       0.544348            0.000427901733            0.000563934404           
       0.545027            0.000345594915             0.00048215413           
       0.545707            0.000421152548            0.000557788236           
       0.546386           -0.000321679051                         0           
       0.547065           -0.000321700628                         0           
       0.547744           -0.000321722303                         0           
       0.548423           -0.000321744217                         0           
       0.549102           -0.000321766153                         0           
       0.549782           -0.000321787978                         0           
       0.550461           -0.000321810063                         0           
       0.551140           -0.000321832281                         0           
       0.551819           -0.000321854236                         0           
       0.552498           -0.000321876378                         0           
       0.553177           -0.000321898141                         0           
       0.553856           -0.000321919982                         0           
       0.554536           -0.000321941894                         0           
       0.555215           -0.000321964141                         0           
       0.555894           -0.000321986335                         0           
       0.556573           -0.000322008661                         0           
       0.557252            0.000570205651            0.000718928247           
       0.557931           -0.000322053175                         0           
       0.558611           -0.000322075901                         0           
       0.559290           -0.000322098048                         0           
       0.559969             0.00196212397             0.00149405192           
       0.560648           -0.000322141827                         0           
       0.561327           -0.000322164496                         0           
       0.562006           -0.000322187061                         0           
       0.562686           -0.000322209638                         0           
       0.563365           -0.000322232299                         0           
       0.564044           -0.000322254845                         0           
       0.564723           -0.000322277341                         0           
       0.565402           -0.000322299419                         0           
       0.566081           -0.000322321642                         0           
       0.566761           -0.000322344106                         0           
       0.567440           -0.000322367025                         0           
       0.568119           -0.000322389764                         0           
       0.568798           -0.000322412822                         0           
       0.569477           -0.000322435732                         0           
       0.570156           -0.000322458754                         0           
       0.570836           -0.000322481688                         0           
       0.571515           -0.000322504138                         0           
       0.572194           -0.000322527239                         0           
       0.572873           -0.000322549811                         0           
       0.573552             0.00319250695              0.0023810678           
       0.574231           -0.000322595145                         0           
       0.574911           -0.000322618616                         0           
       0.575590           -0.000322641636                         0           
       0.576269           -0.000322664585                         0           
       0.576948           -0.000322687975                         0           
       0.577627           -0.000322710652                         0           
       0.578306           -0.000322733649                         0           
       0.578985             0.00164256211             0.00180376727           
       0.579665           -0.000322779903                         0           
       0.580344           -0.000322803311                         0           
       0.581023           -0.000322826695                         0           
       0.581702           -0.000322849862                         0           
       0.582381           -0.000322872819                         0           
       0.583060            -0.00032289646                         0           
       0.583740           -0.000322919731                         0           
       0.584419           -0.000322943078                         0           
       0.585098           -0.000322966398                         0           
       0.585777           -0.000322989899                         0           
       0.586456           -0.000323013783                         0           
       0.587135           -0.000323037031                         0           
       0.587815           -0.000323060029                         0           
       0.588494           -0.000323083744                         0           
       0.589173           -0.000323108002                         0           
       0.589852           -0.000323130972                         0           
       0.590531           -0.000323154808                         0           
       0.591210           -0.000323178094                         0           
       0.591890           -0.000323201829                         0           
       0.592569           -0.000323224771                         0           
       0.593248           -0.000323249853                         0           
       0.593927             -0.0003232737                         0           
       0.594606           -0.000323298037                         0           
       0.595285           -0.000323320925                         0           
       0.595965           -0.000323342282                         0           
       0.596644            -0.00032336426                         0           
