################################################################################
# EDF_DataBlockID                     0.Image.Psd
# EDF_BinarySize                      2105344
# EDF_HeaderSize                      2560
# ByteOrder                           LowByteFirst
# DataType                            FloatValue
# Dim_1                               512
# Dim_2                               1028
# Image                               0
# HeaderID                            EH:000000:000000:000000
# Size                                2105344
# Center_1                            304.9000
# Center_2                            588.7000
# Comment                             Xenocs_Cell_Window - 20251028_20perc_iodine_1.23mg
# DDummy                              0.6
# Date                                2025-10-30T01:47:05
# Delta                               21.910000
# Dummy                               -1.5
# ExposureTime                        360
# Gamma                               15.360000
# Intensity1                          8.45634e-10
# PSize_1                             7.5e-05
# PSize_2                             7.5e-05
# Pressure                            0.0325871
# SampleDistance                      0.115750
# SampleEnvKind                       large
# SampleEnvPN                         ElectroChemical cell
# SampleEnvSN                         1141
# Thickness                           0
# Wavelength                          1.541891e-10
# Wavelength                          1.54189e-10
# aux                                 0
# aux_dial                            0.002375
# beamx                               588.434
# beamx_dial                          588.434
# beamz                               657.808
# beamz_dial                          657.808
# det0x                               0
# det0x_dial                          6.36945
# det0xvd                             0
# det0xvd_dial                        0
# det0y                               450.002
# det0y_dial                          481.635
# det0z                               0
# det0z_dial                          1.23302
# det0zvd                             0
# det0zvd_dial                        0
# mag                                 1.818
# mag_dial                            1.818
# om                                  0.2499
# om_dial                             -0.610199
# phi                                 -0.0120535
# phi_dial                            0
# ry                                  0.599993
# ry_dial                             0.599993
# s1bot                               0.8
# s1bot_dial                          -1.66094
# s1hl                                0.8
# s1hl_dial                           -0.608437
# s1hr                                0.8
# s1hr_dial                           0.970938
# s1top                               0.8
# s1top_dial                          -0.461562
# s2bot                               0.45
# s2bot_dial                          1.36109
# s2hl                                0.45
# s2hl_dial                           -0.83375
# s2hr                                0.45
# s2hr_dial                           -0.118594
# s2top                               0.45
# s2top_dial                          1.44734
# w2theta                             32
# w2theta_dial                        32
# waxsch                              19.2605
# waxsch_dial                         -32.7355
# waxsh                               137.085
# waxsh_dial                          -43.5338
# waxsth                              26.0607
# waxsth_dial                         -19.4086
# waxsz                               67.0407
# waxsz_dial                          -23.7954
# wind                                65.9854
# wind_dial                           66.0041
# wpsi                                124
# wpsi_dial                           124
# wstod                               115
# wstod_dial                          115
# x                                   0
# x_dial                              1.00969
# z                                   0
# z_dial                              13.3172
# CountCutoff                         6807993
# DetectorModel                       Dectris EIGER2 Si 500K, S/N E-01-0554
# ThresholdSetting                    4023.88989258
# Saturation                          0
# FlatField                           Corrected
# BackgroundReductionExtra            0.02
# BackgroundCorrectionConstant        0.0026712
# Detector                            0
# Monitor                             0
# Pil_Roi0                            0
# SumForIntensity1                    3.04428e+08
# TransmittedFlux                     845634
# det                                 0
# mon                                 0
# pilai0                              3.04428e+08
# pilai1                              769329
# pilct0                              5.2753e+08
# pilct1                              769329
# pilroi0                             0
# pilroi1                             0
# sec                                 1
# title                               20251028_20perc_iodine_1.23mg_1_00322.edf
# usaxs0                              0
# Operation                           Azimuthal average I(q)
# Error_model                         ErrorModel.poisson
# Geometrical_correction              True
# Transmission_correction             True
# Thickness_correction                False
# Binning mode                        Uniform
# Binning factor                      1.0
# Psi                                 0.0
# Omega                               0.2499
# MaskInvalidPixels                   True
# DetectorEdge                        3
# MaskFiles                           ['WAXS_corrected.edf']
################################################################################
    q(A⁻¹)                Intensity(a.u.)            Sigma_I(a.u.)            
       0.693100              0.0251451694              0.0106304129           
       0.695741             0.00284528958             0.00291805724           
       0.698381              0.0172466096             0.00880025574           
       0.701021              0.0178516821              0.0126571283           
       0.703662              0.0115189498              0.0058686947           
       0.706302              0.0103765104             0.00431238861           
       0.708942             0.00866801381             0.00508713287           
       0.711583              0.0110837827             0.00498130437           
       0.714223             0.00887643219             0.00514657394           
       0.716864             0.00254919432             0.00180455969           
       0.719504               0.011858809             0.00420008591           
       0.722144             0.00504327913             0.00253653557           
       0.724785             0.00562631625             0.00213711518           
       0.727425             0.00594589138             0.00297210666           
       0.730065             0.00651196644              0.0022001546           
       0.732706             0.00670875732             0.00187528339           
       0.735346             0.00437143729             0.00197324997           
       0.737987             0.00620906634             0.00166180553           
       0.740627              0.0108107769             0.00327176413           
       0.743267              0.0070339951             0.00176765182           
       0.745908               0.011029248             0.00240147112           
       0.748548             0.00530120142             0.00153463819           
       0.751189             0.00485579095              0.0019790892           
       0.753829             0.00751627776             0.00226340304           
       0.756469              0.0065592084             0.00170498101           
       0.759110             0.00680976266             0.00183075553           
       0.761750             0.00461485717             0.00133261336           
       0.764390             0.00499807872             0.00145155014           
       0.767031             0.00851219269             0.00164040234           
       0.769671              0.0093611072             0.00214589223           
       0.772312              0.0102418493             0.00170877483           
       0.774952             0.00882319239             0.00214174735           
       0.777592             0.00520424767             0.00119809577           
       0.780233             0.00637249789             0.00159952553           
       0.782873              0.0058768455              0.0014690991           
       0.785513             0.00799056154             0.00183135012           
       0.788154                0.00437341             0.00113338301           
       0.790794             0.00375299543             0.00125520499           
       0.793435             0.00713333129             0.00155461213           
       0.796075             0.00627865184             0.00140499642           
       0.798715             0.00746383334             0.00181023822           
       0.801356              0.0100069805             0.00180402356           
       0.803996             0.00778397746             0.00162212448           
       0.806637             0.00724836264             0.00124570604           
       0.809277             0.00626396382             0.00125343428           
       0.811917             0.00745259462             0.00127811033           
       0.814558              0.0080320441             0.00137904201           
       0.817198             0.00686150004             0.00121092996           
       0.819838             0.00811069048             0.00133244907           
       0.822479             0.00725772072             0.00148009956           
       0.825119             0.00720855934             0.00125547701           
       0.827760             0.00718658103             0.00126980937           
       0.830400             0.00513970128             0.00101069823           
       0.833040             0.00629705312             0.00117207366           
       0.835681             0.00989003424             0.00166986059           
       0.838321             0.00755574669             0.00122504976           
       0.840961             0.00799474214             0.00137297698           
       0.843602             0.00730473166             0.00120351592           
       0.846242             0.00790972174             0.00125217644           
       0.848883             0.00893082015             0.00136162454           
       0.851523             0.00728986489             0.00121490665           
       0.854163             0.00705951174             0.00127142186           
       0.856804             0.00813434232             0.00122712697           
       0.859444             0.00692301565             0.00110921665           
       0.862085             0.00867377222             0.00129403124           
       0.864725             0.00952664639             0.00138788931           
       0.867365             0.00624497861             0.00104199631           
       0.870006             0.00851068256             0.00115915306           
       0.872646             0.00814729259             0.00118929885           
       0.875286              0.0072039913             0.00107590503           
       0.877927             0.00642354147            0.000980349533           
       0.880567             0.00756717567             0.00110237374           
       0.883208             0.00659655255             0.00101955258           
       0.885848             0.00780288662             0.00115133577           
       0.888488             0.00627693769            0.000968551054           
       0.891129             0.00817697922             0.00113508201           
       0.893769             0.00822485932             0.00108947877           
       0.896410             0.00748398585            0.000968947345           
       0.899050             0.00818445877             0.00111433049           
       0.901690             0.00665724985             0.00109473803           
       0.904331             0.00821977255             0.00107844596           
       0.906971             0.00800303009             0.00113206171           
       0.909611             0.00782768332             0.00101918639           
       0.912252             0.00747800652             0.00102893059           
       0.914892              0.0087903047             0.00121907542           
       0.917533             0.00707466597             0.00103459658           
       0.920173             0.00726938063            0.000973022162           
       0.922813             0.00817348548             0.00108271337           
       0.925454             0.00871363766             0.00100665355           
       0.928094             0.00713737589            0.000972639159           
       0.930734             0.00612861206            0.000970336078           
       0.933375              0.0069213152             0.00102104508           
       0.936015             0.00767390545            0.000976443133           
       0.938656             0.00730904162             0.00102228744           
       0.941296             0.00739821536            0.000932108493           
       0.943936             0.00619912684            0.000836728361           
       0.946577             0.00856756776            0.000977163594           
       0.949217             0.00839392046            0.000889437625           
       0.951858             0.00650365407            0.000819550421           
       0.954498             0.00802357588             0.00105364744           
       0.957138              0.0066925673            0.000911641714           
       0.959779             0.00747164995            0.000949560083           
       0.962419             0.00676945865            0.000897827136           
       0.965059             0.00908980728             0.00109421032           
       0.967700             0.00743317065             0.00101343204           
       0.970340             0.00952315457              0.0010150623           
       0.972981             0.00708270304            0.000797564678           
       0.975621             0.00641180433            0.000807286733           
       0.978261             0.00641826463            0.000767450696           
       0.980902             0.00745439637            0.000989560867           
       0.983542             0.00668295549            0.000829738196           
       0.986182              0.0074503232             0.00086013113           
       0.988823             0.00862957169            0.000898859339           
       0.991463             0.00755356085            0.000897211705           
       0.994104             0.00730702008            0.000860841795           
       0.996744             0.00794471779            0.000915565035           
       0.999384             0.00727350941            0.000783469253           
       1.002025             0.00869723385            0.000956216279           
       1.004665             0.00623270931             0.00073976094           
       1.007306             0.00973874344            0.000919974427           
       1.009946             0.00785391165            0.000842573696           
       1.012586             0.00892907241            0.000874985308           
       1.015227             0.00769985902            0.000872910733           
       1.017867             0.00778093974            0.000843333032           
       1.020507             0.00780629138            0.000818212338           
       1.023148             0.00838660056            0.000915101093           
       1.025788             0.00946938745            0.000891597878           
       1.028429             0.00913654421            0.000917532118           
       1.031069             0.00824420585            0.000820185474           
       1.033709             0.00938753949            0.000930353122           
       1.036350               0.008334505            0.000787325438           
       1.038990             0.00826112261            0.000798256073           
       1.041630             0.00806028754              0.0008224064           
       1.044271             0.00868862545            0.000803024469           
       1.046911             0.00887370457            0.000853625946           
       1.049552             0.00833894709            0.000869399209           
       1.052192             0.00718696125            0.000736999773           
       1.054832             0.00869822922            0.000818168921           
       1.057473             0.00793763344            0.000770472223           
       1.060113              0.0076146464            0.000735973298           
       1.062754              0.0103017319            0.000873998224           
       1.065394             0.00961192723             0.00089256911           
       1.068034             0.00967562119             0.00081480182           
       1.070675             0.00815798342            0.000780439846           
       1.073315             0.00853481466            0.000809703319           
       1.075955             0.00867887643            0.000770830551           
       1.078596             0.00819236238            0.000795946629           
       1.081236             0.00786518618            0.000746796471           
       1.083877              0.0091122027            0.000796610385           
       1.086517             0.00862287941            0.000830947838           
       1.089157             0.00869458574            0.000865779009           
       1.091798              0.0086787922             0.00075835302           
       1.094438             0.00824161464            0.000736620749           
       1.097078             0.00757790148            0.000677451793           
       1.099719             0.00871601198            0.000785870061           
       1.102359             0.00801168541            0.000705613867           
       1.105000             0.00838275105            0.000807078814           
       1.107640             0.00952444171            0.000822572496           
       1.110280             0.00844433489            0.000706697763           
       1.112921             0.00838846469            0.000756630668           
       1.115561             0.00844984643            0.000721740328           
       1.118202             0.00871314934            0.000733589612           
       1.120842             0.00934829501            0.000798614498           
       1.123482             0.00777860681            0.000725305393           
       1.126123             0.00863190257            0.000732854465           
       1.128763             0.00844790614            0.000729972523           
       1.131403             0.00848754912            0.000705039495           
       1.134044             0.00787638574            0.000698879316           
       1.136684              0.0076207564              0.0007329352           
       1.139325             0.00758542484            0.000673612121           
       1.141965             0.00883243532            0.000731681026           
       1.144605             0.00875685203            0.000694668507           
       1.147246             0.00991191936            0.000756368835           
       1.149886             0.00911666373            0.000722816819           
       1.152527             0.00866360127            0.000714874064           
       1.155167             0.00922311657            0.000701567122           
       1.157807             0.00920378984            0.000751416427           
       1.160448             0.00843595131             0.00070250271           
       1.163088              0.0105976157            0.000751045823           
       1.165728             0.00841043933            0.000686947031           
       1.168369             0.00855547887            0.000699245883           
       1.171009             0.00939675753            0.000711181037           
       1.173650              0.0111031125            0.000793344476           
       1.176290              0.0107306199             0.00076215992           
       1.178930             0.00967183505            0.000709176871           
       1.181571             0.00923711287             0.00070679942           
       1.184211              0.0101154254            0.000742262015           
       1.186851              0.0111051951             0.00076037437           
       1.189492             0.00942277787            0.000695700401           
       1.192132             0.00852032452            0.000654124643           
       1.194773              0.0101746392            0.000717935391           
       1.197413             0.00982482167            0.000675955147           
       1.200053             0.00915284339            0.000669006687           
       1.202694              0.0100277721            0.000665900061           
       1.205334              0.0100109497            0.000717029653           
       1.207975               0.011126624            0.000721555841           
       1.210615              0.0112056014            0.000798818718           
       1.213255             0.00907420156            0.000643708561           
       1.215896             0.00974211725            0.000679063346           
       1.218536               0.010042147            0.000662926712           
       1.221176             0.00925309411            0.000691842488           
       1.223817             0.00915157212             0.00064587171           
       1.226457             0.00894737796            0.000651491496           
       1.229098             0.00953071702             0.00067236096           
       1.231738              0.0102067831            0.000699224025           
       1.234378             0.00937313447            0.000629622991           
       1.237019             0.00977747313            0.000662667202           
       1.239659              0.0115603253            0.000714278324           
       1.242299             0.00990686586            0.000652826032           
       1.244940               0.010501921            0.000653704242           
       1.247580             0.00976771864            0.000649719583           
       1.250221             0.00946679636            0.000635686294           
       1.252861              0.0114491962            0.000665530511           
       1.255501              0.0102661304             0.00068428535           
       1.258142                0.01107495            0.000667858495           
       1.260782               0.010546889            0.000665843978           
       1.263423              0.0106387898            0.000642582172           
       1.266063              0.0115719228             0.00068690558           
       1.268703              0.0108227987            0.000658787326           
       1.271344             0.00950668351            0.000638358437           
       1.273984              0.0109479517            0.000661614399           
       1.276624             0.00933463857            0.000599446965           
       1.279265             0.00981048401            0.000624741188           
       1.281905              0.0105823561            0.000651732394           
       1.284546              0.0123447628             0.00068039655           
       1.287186              0.0107509188            0.000622959052           
       1.289826              0.0101894314            0.000639173199           
       1.292467              0.0107717919            0.000642709834           
       1.295107             0.00998954695            0.000612785088           
       1.297747               0.010323004            0.000596091027           
       1.300388              0.0108664845            0.000666700625           
       1.303028             0.00956847102            0.000597250247           
       1.305669             0.00983832454            0.000620033841           
       1.308309              0.0106411532            0.000638485723           
       1.310949              0.0108062556            0.000642773242           
       1.313590              0.0108266864            0.000623269231           
       1.316230              0.0100319193            0.000640237131           
       1.318871              0.0107088262            0.000647843006           
       1.321511               0.010889946            0.000641189494           
       1.324151              0.0109052379            0.000622617269           
       1.326792              0.0107297485            0.000621405481           
       1.329432              0.0118643163            0.000648822751           
       1.332072              0.0100754541            0.000589000951           
       1.334713              0.0109308263            0.000633186487           
       1.337353              0.0103686513            0.000591417153           
       1.339994              0.0110588097             0.00064095596           
       1.342634              0.0125267467            0.000654158987           
       1.345274              0.0117341462            0.000655225556           
       1.347915               0.011751611            0.000637605552           
       1.350555              0.0113913214            0.000638749782           
       1.353195               0.010749543            0.000623543172           
       1.355836              0.0114967808            0.000634796162           
       1.358476              0.0114839281             0.00061613876           
       1.361117              0.0124904836            0.000643455676           
       1.363757              0.0110249767             0.00062298904           
       1.366397              0.0116776892            0.000621762879           
       1.369038              0.0111782202            0.000614377984           
       1.371678              0.0109058648            0.000601497224           
       1.374319               0.010947649            0.000597459079           
       1.376959              0.0109239251            0.000590809512           
       1.379599              0.0120922201            0.000666167178           
       1.382240              0.0111886277            0.000602250423           
       1.384880              0.0118457907            0.000656386836           
       1.387520              0.0102052378            0.000578615345           
       1.390161              0.0113408381             0.00057931494           
       1.392801              0.0113680498            0.000604313723           
       1.395442              0.0112565347            0.000609555363           
       1.398082              0.0116558074            0.000580857438           
       1.400722              0.0119730986             0.00061666055           
       1.403363             0.00986939244            0.000589332417           
       1.406003              0.0110274933            0.000582997975           
       1.408644              0.0110848541            0.000612314614           
       1.411284              0.0116394983            0.000594136252           
       1.413924              0.0117487298            0.000594704665           
       1.416565              0.0110426879            0.000574293587           
       1.419205              0.0111439431            0.000601820197           
       1.421845              0.0113089399            0.000605903105           
       1.424486               0.011000087            0.000574404118           
       1.427126              0.0110588116            0.000598285422           
       1.429767              0.0107895224             0.00055601796           
       1.432407              0.0112533907            0.000594262513           
       1.435047              0.0107883228            0.000546456952           
       1.437688               0.010578859            0.000549216785           
       1.440328              0.0103580425            0.000554656374           
       1.442968              0.0101321705            0.000560866645           
       1.445609              0.0110409255            0.000566905757           
       1.448249              0.0107378819            0.000573226928           
       1.450890              0.0122276993             0.00060770909           
       1.453530              0.0108624588             0.00059924251           
       1.456170              0.0115701337            0.000600224568           
       1.458811              0.0115078955            0.000572401721           
       1.461451              0.0105801694            0.000550284218           
       1.464092              0.0108392827            0.000560623265           
       1.466732              0.0111250431            0.000563084492           
       1.469372              0.0113799924            0.000556171916           
       1.472013              0.0102689329            0.000569808501           
       1.474653              0.0115443958            0.000594839932           
       1.477293               0.011016046            0.000593315552           
       1.479934              0.0110049892            0.000565862792           
       1.482574                0.01085281            0.000543586001           
       1.485215              0.0115984803            0.000572416489           
       1.487855              0.0122392355            0.000595772343           
       1.490495              0.0111947928            0.000567686807           
       1.493136              0.0125698765            0.000593297175           
       1.495776               0.012200076            0.000581843305           
       1.498416              0.0103855555            0.000554397202           
       1.501057             0.00936228691            0.000514776708           
       1.503697              0.0107289492            0.000538758501           
       1.506338              0.0106213396            0.000545845371           
       1.508978              0.0100471432            0.000525665119           
       1.511618              0.0103779828            0.000568973389           
       1.514259              0.0104721173            0.000551802847           
       1.516899              0.0110442471            0.000551754482           
       1.519540              0.0106260616             0.00054993509           
       1.522180              0.0101250662            0.000541530097           
       1.524820              0.0098653319            0.000531540127           
       1.527461             0.00947629591            0.000523530632           
       1.530101              0.0101432316            0.000536223307           
       1.532741              0.0107398501             0.00054856603           
       1.535382              0.0108163686            0.000559379398           
       1.538022               0.010733431             0.00052494079           
       1.540663              0.0107414955            0.000564818302           
       1.543303              0.0105127581            0.000518829022           
       1.545943             0.00947714527            0.000521393077           
       1.548584              0.0112868468            0.000579214623           
       1.551224                0.01031275             0.00051190781           
       1.553864             0.00915876087            0.000509764019           
       1.556505             0.00987131635            0.000511242699           
       1.559145             0.00991369445            0.000518615022           
       1.561786              0.0103278071            0.000529743617           
       1.564426              0.0103773576            0.000514496199           
       1.567066              0.0101057355            0.000531991203           
       1.569707              0.0103873044            0.000529663085           
       1.572347             0.00976297963             0.00053049564           
       1.574988               0.010253646            0.000517476034           
       1.577628              0.0090589689            0.000507191647           
       1.580268              0.0108520793            0.000537855022           
       1.582909             0.00961104838            0.000536517267           
       1.585549             0.00974150346            0.000524464685           
       1.588189             0.00906061373            0.000494764412           
       1.590830             0.00956189221            0.000507628666           
       1.593470              0.0095713472            0.000527989522           
       1.596111             0.00913525955            0.000503601764           
       1.598751             0.00977075058            0.000504660735           
       1.601391             0.00991103873             0.00051948463           
       1.604032             0.00887420471            0.000501837647           
       1.606672             0.00974345096            0.000510905009           
       1.609312             0.00981744499            0.000535346346           
       1.611953             0.00877502564            0.000495277156           
       1.614593             0.00968277476            0.000510338062           
       1.617234             0.00869944554            0.000501327455           
       1.619874             0.00951530525            0.000522237547           
       1.622514             0.00969347165            0.000519913634           
       1.625155             0.00953836767            0.000518784041           
       1.627795             0.00898622585            0.000491207194           
       1.630436             0.00910882595            0.000491964282           
       1.633076             0.00896695237             0.00049451984           
       1.635716             0.00899082811            0.000487473221           
       1.638357             0.00995819912            0.000514380558           
       1.640997             0.00978016544            0.000525203466           
       1.643637             0.00936682792            0.000500165693           
       1.646278             0.00866820977            0.000496269889           
       1.648918             0.00897690623            0.000506406974           
       1.651559             0.00786623428            0.000477724512           
       1.654199               0.010222496            0.000529665148           
       1.656839             0.00935994488            0.000507003712           
       1.659480             0.00884845128            0.000511467383           
       1.662120             0.00913282523            0.000489397595           
       1.664761             0.00873596064            0.000497189828           
       1.667401             0.00866339963            0.000473229366           
       1.670041             0.00965100127              0.0005070908           
       1.672682             0.00817081424            0.000464668798           
       1.675322             0.00864568473            0.000474907249           
       1.677962             0.00952276904            0.000492916415           
       1.680603             0.00954179095            0.000494926815           
       1.683243             0.00950041648            0.000515243102           
       1.685884             0.00917858892            0.000510180845           
       1.688524             0.00869509832            0.000486963339           
       1.691164             0.00900024103            0.000495546771           
       1.693805             0.00940427984            0.000512112332           
       1.696445             0.00992454038            0.000529138795           
       1.699085             0.00757109817            0.000446675418           
       1.701726               0.008188823            0.000447503444           
       1.704366             0.00874654731            0.000487222351           
       1.707007             0.00879367849            0.000477643363           
       1.709647             0.00843929655            0.000473204229           
       1.712287             0.00885361792            0.000488899654           
       1.714928             0.00959142377            0.000512965765           
       1.717568             0.00866630621            0.000459321304           
       1.720209             0.00843475988            0.000474636583           
       1.722849             0.00831425811            0.000468811317           
       1.725489             0.00830939529             0.00046906774           
       1.728130             0.00959529699            0.000535671854           
       1.730770             0.00922078186            0.000498717051           
       1.733410             0.00809660729             0.00045998214           
       1.736051             0.00866429211            0.000479146577           
       1.738691              0.0083107321             0.00045975591           
       1.741332             0.00812995878            0.000468024711           
       1.743972             0.00845529591            0.000492890562           
       1.746612             0.00826595737            0.000467971305           
       1.749253              0.0088934098            0.000494993873           
       1.751893              0.0083289719            0.000475512363           
       1.754533             0.00950930504            0.000507615336           
       1.757174             0.00930110604            0.000497326424           
       1.759814             0.00897261295            0.000481061099           
       1.762455              0.0091965687             0.00049597058           
       1.765095             0.00882344696            0.000464731724           
       1.767735             0.00868622117            0.000475328757           
       1.770376             0.00930508386            0.000493267165           
       1.773016             0.00868040327            0.000473231019           
       1.775657             0.00846456912             0.00046058669           
       1.778297             0.00824340714             0.00045061587           
       1.780937              0.0093310758             0.00050603092           
       1.783578             0.00858133957            0.000473141964           
       1.786218              0.0080857243            0.000479304354           
       1.788858              0.0077863243            0.000446715929           
       1.791499             0.00860020692            0.000464210029           
       1.794139             0.00847750869            0.000457147457           
       1.796780             0.00932727013              0.0004772003           
       1.799420             0.00911878663            0.000469224043           
       1.802060             0.00951963325            0.000483298752           
       1.804701             0.00953137466            0.000464081406           
       1.807341             0.00970127896            0.000491975779           
       1.809981             0.00947306051            0.000487775439           
       1.812622             0.00857503672            0.000455724966           
       1.815262              0.0097592537            0.000496503057           
       1.817903              0.0100100043            0.000495390552           
       1.820543             0.00915444469            0.000481129177           
       1.823183             0.00820609149            0.000455276308           
       1.825824             0.00912764647            0.000458725732           
       1.828464             0.00966838825            0.000492203629           
       1.831105             0.00867952028             0.00045346023           
       1.833745             0.00827995176            0.000452358549           
       1.836385             0.00804189009            0.000458530782           
       1.839026             0.00812727559            0.000459502225           
       1.841666             0.00825184931            0.000461368623           
       1.844306             0.00865056147            0.000459494116           
       1.846947             0.00885513487            0.000468970708           
       1.849587             0.00939976214            0.000533544917           
       1.852228             0.00858497397            0.000461072809           
       1.854868              0.0083181071            0.000479425329           
       1.857508             0.00866414583            0.000484496961           
       1.860149              0.0087363579            0.000495351036           
       1.862789             0.00908629014            0.000487609937           
       1.865429             0.00854267023             0.00049352927           
       1.868070             0.00923738201            0.000506364491           
       1.870710             0.00881999975             0.00048338523           
       1.873351             0.00872728772            0.000486782205           
       1.875991               0.008098984            0.000476585558           
       1.878631             0.00767472427            0.000455049474           
       1.881272             0.00874924332            0.000482606076           
       1.883912             0.00841067465            0.000492438871           
       1.886553               0.007780462            0.000468335241           
       1.889193             0.00817750651            0.000479315968           
       1.891833             0.00813939346            0.000496626944           
       1.894474             0.00875712637            0.000510641646           
       1.897114             0.00886794498            0.000497254006           
       1.899754             0.00885305306            0.000498915115           
       1.902395             0.00875373761            0.000486409233           
       1.905035             0.00941165305            0.000534198534           
       1.907676             0.00866674877            0.000483148412           
       1.910316             0.00779628204             0.00047041055           
       1.912956             0.00897283298            0.000493556499           
       1.915597             0.00855948309            0.000484748314           
       1.918237             0.00863220349            0.000502749197           
       1.920878             0.00882261015             0.00050618305           
       1.923518             0.00837280652            0.000493320101           
       1.926158             0.00998196594            0.000531653683           
       1.928799             0.00851468235            0.000485342821           
       1.931439             0.00803083618            0.000483714429           
       1.934079             0.00986856718            0.000558986763           
       1.936720             0.00849619953            0.000480558058           
       1.939360             0.00874651772            0.000520186121           
       1.942001             0.00864172625            0.000473912507           
       1.944641             0.00775053589            0.000457651876           
       1.947281             0.00792319394            0.000458456203           
       1.949922              0.0087404209            0.000497367055           
       1.952562              0.0088506578            0.000516181988           
       1.955202             0.00797164132            0.000489281993           
       1.957843             0.00777682997            0.000470733975           
       1.960483             0.00824552736            0.000506765383           
       1.963124             0.00827778859            0.000497338968           
       1.965764             0.00804696917            0.000462419443           
       1.968404             0.00809299616            0.000459358434           
       1.971045             0.00908978107            0.000496344676           
       1.973685             0.00890029017            0.000515173268           
       1.976326             0.00809010134             0.00048441546           
       1.978966             0.00821426151            0.000492402165           
       1.981606               0.007565763            0.000482421207           
       1.984247             0.00706622145            0.000463157759           
       1.986887             0.00831604735            0.000496432318           
       1.989527             0.00817778914            0.000486986669           
       1.992168             0.00832717008            0.000509884039           
       1.994808              0.0080218255            0.000498303188           
       1.997449             0.00804430389            0.000488753115           
       2.000089             0.00777404443             0.00047856789           
       2.002729             0.00828210904            0.000494254706           
       2.005370             0.00822377632             0.00048721179           
       2.008010             0.00886146505            0.000527821427           
       2.010650              0.0078777957            0.000501377929           
       2.013291              0.0076586067            0.000474304958           
       2.015931             0.00823981108            0.000488495451           
       2.018572             0.00764402394            0.000503248054           
       2.021212             0.00794979599              0.0005039939           
       2.023852             0.00811618213            0.000481972416           
       2.026493             0.00751923844            0.000484635957           
       2.029133             0.00740263018            0.000471186497           
       2.031774             0.00783408839            0.000508706504           
       2.034414             0.00850548792            0.000487726185           
       2.037054             0.00770483516            0.000475969229           
       2.039695             0.00703750727            0.000451454664           
       2.042335             0.00822422613            0.000507176986           
       2.044975             0.00768326126            0.000484268051           
       2.047616             0.00828774355            0.000501707984           
       2.050256             0.00801245473            0.000497973579           
       2.052897             0.00737902401            0.000486694605           
       2.055537             0.00766900816            0.000479525211           
       2.058177             0.00726874726            0.000457166001           
       2.060818             0.00760329883            0.000489814134           
       2.063458             0.00760078932             0.00051035074           
       2.066098             0.00740571272            0.000475213504           
       2.068739             0.00789652845             0.00049833591           
       2.071379             0.00628358889            0.000456130719           
       2.074020             0.00744061599            0.000485565013           
       2.076660             0.00736605651            0.000487031628           
       2.079300             0.00762684797            0.000507720853           
       2.081941             0.00744909665             0.00045942714           
       2.084581             0.00788515724            0.000498921564           
       2.087222             0.00766315295            0.000474340314           
       2.089862              0.0077210258            0.000518576126           
       2.092502             0.00795304241            0.000510182462           
       2.095143             0.00802916554            0.000529355035           
       2.097783             0.00696797997            0.000477437092           
       2.100423              0.0066437166            0.000449222464           
       2.103064             0.00761519079            0.000499046099           
       2.105704             0.00767003837            0.000498359247           
       2.108345             0.00713950874             0.00046193455           
       2.110985             0.00767035199            0.000511392796           
       2.113625             0.00760586236            0.000513682297           
       2.116266             0.00631204903            0.000474595771           
       2.118906             0.00681286189            0.000459508214           
       2.121546             0.00794985345            0.000486895598           
       2.124187             0.00735383361             0.00049155795           
       2.126827             0.00698826812             0.00048453238           
       2.129468             0.00742996006            0.000500886336           
       2.132108             0.00748793491            0.000489221853           
       2.134748             0.00719209678            0.000477600017           
       2.137389             0.00686347514            0.000486739206           
       2.140029              0.0083926153            0.000481861953           
       2.142670             0.00745347368            0.000485308508           
       2.145310             0.00759465906            0.000476812247           
       2.147950             0.00773371631            0.000495242325           
       2.150591             0.00712546391            0.000470564187           
       2.153231             0.00725918039            0.000488896416           
       2.155871             0.00755551964            0.000481850432           
       2.158512              0.0070868126            0.000486932204           
       2.161152             0.00756897744            0.000487454481           
       2.163793             0.00794488096             0.00049716391           
       2.166433             0.00827506356            0.000521035674           
       2.169073              0.0078538778            0.000496301667           
       2.171714             0.00728764422            0.000474502486           
       2.174354             0.00701395986            0.000486412188           
       2.176995             0.00750291648            0.000500964099           
       2.179635             0.00767596158            0.000535446262           
       2.182275              0.0072750698            0.000492167652           
       2.184916             0.00734147892            0.000477534763           
       2.187556             0.00739045471             0.00047432276           
       2.190196             0.00671770338            0.000472562753           
       2.192837             0.00762739281            0.000500803971           
       2.195477              0.0081347305            0.000493080569           
       2.198118             0.00739667201            0.000482228044           
       2.200758             0.00791551195            0.000511794311           
       2.203398             0.00775078804            0.000509680908           
       2.206039              0.0074698531            0.000473547161           
       2.208679             0.00805712382            0.000503255636           
       2.211319             0.00644829684            0.000452812165           
       2.213960             0.00842982599            0.000524668589           
       2.216600             0.00691308805            0.000491510655           
       2.219241             0.00695637678            0.000471219834           
       2.221881             0.00754001294            0.000491597966           
       2.224521             0.00780684786            0.000506350596           
       2.227162             0.00767194382            0.000491906264           
       2.229802             0.00751516246            0.000502094569           
       2.232443             0.00662388598            0.000463946686           
       2.235083             0.00682266077            0.000484745449           
       2.237723             0.00707156069            0.000473592892           
       2.240364              0.0079980273            0.000516069846           
       2.243004             0.00714257369            0.000483797631           
       2.245644             0.00726297768            0.000492741518           
       2.248285             0.00700383348            0.000474177756           
       2.250925             0.00729311479            0.000486810549           
       2.253566             0.00797210273            0.000544125029           
       2.256206             0.00755995475            0.000519278233           
       2.258846             0.00661278126            0.000461997281           
       2.261487             0.00744541473            0.000514532269           
       2.264127             0.00767493931            0.000504528528           
       2.266767             0.00653940835            0.000478119903           
       2.269408             0.00787308779            0.000526762627           
       2.272048             0.00808864964            0.000530738136           
       2.274689             0.00707433425            0.000502886647           
       2.277329             0.00738891889            0.000483913588           
       2.279969             0.00629694971            0.000475515613           
       2.282610              0.0071930439            0.000494089876           
       2.285250             0.00785673626             0.00049424728           
       2.287891             0.00679473658            0.000492794059           
       2.290531             0.00794278478            0.000539963921           
       2.293171             0.00669315108             0.00048282854           
       2.295812              0.0075361998            0.000510275347           
       2.298452             0.00733083777            0.000526291703           
       2.301092             0.00750475908            0.000494756203           
       2.303733             0.00840691854            0.000544779157           
       2.306373             0.00686318954            0.000499978411           
       2.309014             0.00836783529            0.000541301194           
       2.311654             0.00744520988            0.000532823169           
       2.314294             0.00757984575              0.0004953106           
       2.316935             0.00754076607             0.00049607316           
       2.319575             0.00615620518            0.000469634396           
       2.322215             0.00676078885            0.000512908758           
       2.324856             0.00664809119             0.00046761955           
       2.327496             0.00800098449            0.000545478237           
       2.330137             0.00710570174            0.000491911741           
       2.332777             0.00734532733            0.000515694917           
       2.335417             0.00759473633            0.000508724082           
       2.338058             0.00734315235            0.000515169977           
       2.340698             0.00714795193            0.000504282322           
       2.343339             0.00863295404            0.000566390635           
       2.345979             0.00848713548            0.000531305811           
       2.348619             0.00668345615            0.000488715717           
       2.351260             0.00733254191            0.000508915087           
       2.353900             0.00720552926            0.000502890063           
       2.356540             0.00663791754            0.000481991199           
       2.359181             0.00748081214            0.000504505474           
       2.361821             0.00693126967            0.000469097427           
       2.364462             0.00762476173            0.000514575996           
       2.367102             0.00656735395            0.000490773419           
       2.369742             0.00707231663            0.000536064776           
       2.372383             0.00747008398            0.000498868909           
       2.375023             0.00763073247            0.000530028299           
       2.377663             0.00699196916            0.000485110068           
       2.380304             0.00675384319            0.000484727495           
       2.382944             0.00793392666            0.000500399436           
       2.385585             0.00696163412            0.000499915032           
       2.388225             0.00684245548            0.000493288566           
       2.390865             0.00759891058            0.000514501305           
       2.393506             0.00676965291            0.000476455413           
       2.396146             0.00631199411            0.000497446658           
       2.398787              0.0072953912            0.000492855298           
       2.401427             0.00709581419             0.00046916684           
       2.404067             0.00736171208            0.000488535744           
       2.406708             0.00775350792            0.000495355139           
       2.409348             0.00725839102             0.00050836836           
       2.411988             0.00759799004            0.000509607397           
       2.414629             0.00792165577              0.0005365542           
       2.417269              0.0070944055            0.000513694308           
       2.419910             0.00702232962            0.000512264131           
       2.422550              0.0068031508            0.000482393636           
       2.425190             0.00650090462            0.000497069429           
       2.427831              0.0075132838            0.000531369772           
       2.430471             0.00703800722            0.000489959126           
       2.433112             0.00756017615             0.00049448556           
       2.435752             0.00655736937             0.00048737841           
       2.438392             0.00681235526            0.000479478762           
       2.441033             0.00690359776            0.000511542798           
       2.443673             0.00770659784            0.000540890473           
       2.446313             0.00737937936            0.000529749613           
       2.448954             0.00657649369            0.000476166289           
       2.451594             0.00779622071            0.000557450567           
       2.454235             0.00719363843            0.000502411574           
       2.456875             0.00732058247            0.000530320754           
       2.459515             0.00686649689            0.000526905934           
       2.462156             0.00843539347            0.000551384065           
       2.464796             0.00815159337            0.000535036261           
       2.467436             0.00792196712            0.000545441711           
       2.470077             0.00754609586            0.000504566214           
       2.472717             0.00768576247            0.000511419985           
       2.475358             0.00741346212            0.000507515982           
       2.477998             0.00769369189             0.00050830289           
       2.480638             0.00850140233            0.000543813166           
       2.483279             0.00733768386            0.000528039569           
       2.485919             0.00701674866            0.000497633596           
       2.488560             0.00694478018             0.00049369167           
       2.491200             0.00696053588            0.000508948296           
       2.493840             0.00648154017            0.000519673839           
       2.496481             0.00733269855            0.000543701845           
       2.499121             0.00652295051            0.000498783248           
       2.501761             0.00736073023            0.000536866947           
       2.504402             0.00732402143            0.000527702553           
       2.507042              0.0068177564            0.000505365901           
       2.509683             0.00690167145            0.000500695341           
       2.512323             0.00788871627             0.00056220101           
       2.514963             0.00796669063            0.000557992721           
       2.517604             0.00752285894            0.000562643742           
       2.520244             0.00720297601            0.000516143118           
       2.522884             0.00817307486            0.000557665433           
       2.525525             0.00958301813            0.000610708136           
       2.528165             0.00746536538            0.000530621839           
       2.530806             0.00659908184            0.000507581732           
       2.533446              0.0087432206            0.000571781184           
       2.536086             0.00702119268            0.000507802677           
       2.538727             0.00680163105            0.000479481934           
       2.541367             0.00709309726            0.000494470908           
       2.544008             0.00798579191            0.000541850482           
       2.546648             0.00753401582            0.000535327908           
       2.549288             0.00717320484            0.000532995327           
       2.551929             0.00650455775            0.000499455938           
       2.554569             0.00585910676            0.000456686307           
       2.557209             0.00674251505            0.000494405743           
       2.559850             0.00630291883             0.00047955208           
       2.562490             0.00568353994            0.000470660144           
       2.565131             0.00657979314            0.000525070882           
       2.567771              0.0068540408            0.000516689727           
       2.570411             0.00743085686            0.000532171139           
       2.573052             0.00784360522            0.000553636755           
       2.575692             0.00652522417            0.000501911221           
       2.578332             0.00739838603            0.000536648473           
       2.580973             0.00740874141            0.000531914303           
       2.583613             0.00752083859            0.000523162397           
       2.586254             0.00689147117            0.000500098294           
       2.588894              0.0066507769            0.000510178474           
       2.591534             0.00735308854            0.000555315659           
       2.594175             0.00726482204            0.000541556566           
       2.596815             0.00689534576            0.000530716448           
       2.599456             0.00625055001            0.000479167401           
       2.602096             0.00715671176            0.000516627497           
       2.604736             0.00750834005            0.000541714668           
       2.607377             0.00673628309            0.000499585936           
       2.610017             0.00747479596            0.000517049863           
       2.612657             0.00756778102            0.000553370624           
       2.615298             0.00686972115            0.000514743837           
       2.617938             0.00644317099            0.000533275298           
       2.620579             0.00629451853            0.000505998873           
       2.623219             0.00725637428            0.000542511079           
       2.625859             0.00671370412            0.000507366099           
       2.628500              0.0064263818            0.000493137023           
       2.631140             0.00732418746            0.000534570244           
       2.633780             0.00646253605            0.000501705474           
       2.636421             0.00863384566              0.0005941559           
       2.639061             0.00767490771            0.000527353893           
       2.641702             0.00690410911            0.000511751317           
       2.644342             0.00699225636            0.000517202246           
       2.646982              0.0074949007            0.000527464274           
       2.649623              0.0077404777            0.000561744246           
       2.652263              0.0065816991            0.000512794809           
       2.654904             0.00826022259            0.000575052079           
       2.657544              0.0071996925            0.000505674852           
       2.660184             0.00716152341            0.000533730812           
       2.662825             0.00699161801            0.000539596191           
       2.665465              0.0072457809            0.000531279514           
       2.668105             0.00727946143            0.000561288962           
       2.670746             0.00826618287            0.000552536675           
       2.673386             0.00818853221            0.000566752464           
       2.676027             0.00788838422            0.000547340719           
       2.678667               0.010466514            0.000615181586           
       2.681307               0.010117422            0.000594285218           
       2.683948              0.0157887979            0.000762775557           
       2.686588              0.0121059742            0.000656839943           
       2.689229             0.00981153831            0.000577820992           
       2.691869              0.0100968993            0.000619516539           
       2.694509             0.00821955022            0.000559269961           
       2.697150             0.00784277987             0.00053743841           
       2.699790             0.00720304308            0.000539958798           
       2.702430              0.0069491472            0.000506957615           
       2.705071             0.00625783015            0.000497105935           
       2.707711             0.00624656588             0.00048204413           
       2.710352             0.00806018436            0.000578574877           
       2.712992             0.00642058678            0.000525933972           
       2.715632             0.00687012436            0.000504755758           
       2.718273             0.00804233172            0.000565982347           
       2.720913             0.00676810174            0.000517735403           
       2.723553              0.0065871086            0.000514192819           
       2.726194             0.00757674569            0.000576465349           
       2.728834             0.00763791919            0.000579059367           
       2.731475             0.00701333117             0.00051210401           
       2.734115             0.00710919932            0.000531593838           
       2.736755             0.00845674203            0.000584562693           
       2.739396             0.00729221562            0.000539679288           
       2.742036             0.00672766866            0.000542505167           
       2.744677             0.00649622218            0.000517246018           
       2.747317             0.00669361263            0.000521301621           
       2.749957              0.0068235524            0.000530030929           
       2.752598              0.0084239928            0.000595309418           
       2.755238             0.00695790086            0.000550798754           
       2.757878             0.00762735813            0.000571645858           
       2.760519             0.00862124774            0.000601306007           
       2.763159             0.00767546588            0.000561695587           
       2.765800             0.00678755237            0.000503374288           
       2.768440             0.00672596862            0.000504776957           
       2.771080             0.00834585589            0.000566979815           
       2.773721             0.00834606758            0.000581613124           
       2.776361             0.00733631484            0.000552818794           
       2.779001             0.00749193851            0.000578540167           
       2.781642             0.00748178539            0.000573887346           
       2.784282             0.00703122979            0.000565487623           
       2.786923             0.00800778129            0.000608794463           
       2.789563             0.00613299484            0.000513133236           
       2.792203             0.00681177424            0.000516603306           
       2.794844             0.00576765546            0.000520991688           
       2.797484             0.00597974075            0.000500647503           
       2.800125             0.00704289506             0.00057131537           
       2.802765             0.00607606047            0.000521524838           
       2.805405             0.00584894711             0.00051341699           
       2.808046             0.00675664867            0.000561520242           
       2.810686              0.0077164465             0.00055140281           
       2.813326             0.00680282761            0.000537780692           
       2.815967             0.00669675313            0.000548742468           
       2.818607             0.00753075865            0.000555301629           
       2.821248             0.00728700843             0.00053490043           
       2.823888             0.00717604971            0.000550996688           
       2.826528             0.00661550691            0.000512348301           
       2.829169             0.00657228655            0.000534900218           
       2.831809             0.00706466536            0.000562118479           
       2.834449             0.00713998545            0.000568678364           
       2.837090             0.00641565683            0.000520648262           
       2.839730             0.00698821743            0.000540731233           
       2.842371             0.00712970045            0.000546965879           
       2.845011             0.00621263104            0.000514648139           
       2.847651             0.00774482384            0.000575322621           
       2.850292             0.00670373148             0.00054051211           
       2.852932             0.00672771014            0.000553278543           
       2.855573             0.00730897886            0.000559400569           
       2.858213             0.00699571646            0.000574711793           
       2.860853             0.00799557036            0.000571543055           
       2.863494             0.00738573046             0.00056873838           
       2.866134             0.00712777944             0.00058071847           
       2.868774             0.00753641209            0.000586859013           
       2.871415             0.00677906882            0.000565261108           
       2.874055             0.00796436227             0.00058565383           
       2.876696             0.00881834147            0.000632921623           
       2.879336             0.00714320482            0.000549026665           
       2.881976             0.00704503142            0.000562378306           
       2.884617             0.00722303277            0.000561075503           
       2.887257              0.0065615679            0.000537528135           
       2.889897             0.00700987471            0.000544153023           
       2.892538             0.00669319155            0.000582500594           
       2.895178             0.00716507898            0.000544485556           
       2.897819             0.00740120388            0.000564505158           
       2.900459             0.00646038305            0.000517147237           
       2.903099             0.00729324285            0.000543847339           
       2.905740             0.00682985346            0.000539902863           
       2.908380             0.00676546058            0.000543457255           
       2.911021             0.00811854076            0.000605006215           
       2.913661              0.0075133716            0.000581846131           
       2.916301             0.00712856406            0.000567290758           
       2.918942             0.00614563275            0.000503830115           
       2.921582             0.00609653437            0.000525041482           
       2.924222             0.00686731116            0.000539862345           
       2.926863             0.00872752141              0.0006339318           
       2.929503             0.00792602384            0.000611279451           
       2.932144             0.00716442548            0.000557887153           
       2.934784             0.00663666101             0.00052814148           
       2.937424             0.00681928361            0.000540855089           
       2.940065             0.00715332933            0.000528409985           
       2.942705             0.00649877884            0.000503022697           
       2.945346             0.00689092881            0.000549704824           
       2.947986             0.00757684083            0.000587743113           
       2.950626             0.00757909059            0.000584520671           
       2.953267             0.00605937757            0.000514198716           
       2.955907             0.00760682706            0.000597653305           
       2.958547             0.00738080998             0.00055577008           
       2.961188             0.00733620208            0.000578068556           
       2.963828             0.00719312949            0.000559916905           
       2.966469             0.00756426918            0.000563268679           
       2.969109              0.0073793501            0.000564584179           
       2.971749             0.00712809949            0.000551427929           
       2.974390             0.00734905261            0.000550213197           
       2.977030             0.00650514491             0.00052922781           
       2.979670             0.00835460878             0.00058338172           
       2.982311             0.00838789398            0.000605849071           
       2.984951             0.00732438646            0.000538448657           
       2.987592             0.00708242992            0.000540085364           
       2.990232             0.00808070067            0.000599963204           
       2.992872             0.00797792935            0.000561526228           
       2.995513             0.00802481846            0.000550969497           
       2.998153              0.0122388797            0.000691857834           
       3.000794              0.0121252762            0.000667017975           
       3.003434              0.0113327787            0.000645825454           
       3.006074              0.0353134484             0.00112405334           
       3.008715               0.109379175             0.00190964477           
       3.011355               0.216638244             0.00259164415           
       3.013995               0.127189947             0.00199119687           
       3.016636               0.076800485             0.00151515678           
       3.019276               0.145479344             0.00204984389           
       3.021917               0.519278476             0.00372384393           
       3.024557                1.43660863             0.00608962465           
       3.027197                1.12810967             0.00526111892           
       3.029838                0.57076257             0.00379530951           
       3.032478               0.256228838             0.00254551006           
       3.035118              0.0684494261             0.00133331727           
       3.037759               0.082936539             0.00146575322           
       3.040399               0.115114505             0.00178128202           
       3.043040               0.465510641             0.00362596335           
       3.045680               0.392471139             0.00313246785           
       3.048320               0.103683939             0.00164507488           
       3.050961               0.112388696             0.00174291809           
       3.053601              0.0937436737             0.00153308984           
       3.056242              0.0773709104             0.00148083111           
       3.058882              0.0699678132             0.00151058563           
       3.061522              0.0558835871             0.00132452487           
       3.064163              0.0684471793             0.00144741218           
       3.066803               0.136801595             0.00215426725           
       3.069443                0.10860295              0.0020082272           
       3.072084               0.036089364             0.00112725346           
       3.074724              0.0509621156             0.00149596029           
       3.077365              0.0572465796             0.00164128764           
       3.080005              0.0117437277            0.000747595867           
       3.082645              0.0139321861            0.000855419717           
       3.085286              0.0139489535            0.000862687339           
       3.087926              0.0116139303            0.000781109781           
       3.090566              0.0113282778            0.000755866242           
       3.093207               0.011031553            0.000776187433           
       3.095847              0.0083774804            0.000648321104           
       3.098488             0.00888693162            0.000740412743           
       3.101128              0.0108221217            0.000822315002           
       3.103768              0.0107035761            0.000802413083           
       3.106409             0.00906427624            0.000785871472           
       3.109049             0.00763952144            0.000692358643           
       3.111690             0.00866041029            0.000724514474           
       3.114330             0.00681664661            0.000656455357           
       3.116970             0.00855266806            0.000740955316           
       3.119611              0.0111607353             0.00090096178           
       3.122251              0.0198574048             0.00125709133           
       3.124891              0.0356433967             0.00169989358           
       3.127532              0.0255831253                0.00140889           
       3.130172              0.0163755566             0.00114667032           
       3.132813              0.0102149508            0.000891577668           
       3.135453             0.00717767843            0.000741209297           
       3.138093             0.00717115899            0.000802761678           
       3.140734             0.00650647199            0.000705451816           
       3.143374             0.00684175281            0.000765026709           
       3.146014             0.00662994392            0.000810737509           
       3.148655             0.00803130389            0.000829489752           
       3.151295             0.00640259667            0.000789247526           
       3.153936             0.00698884274            0.000796528573           
       3.156576             0.00599513753            0.000727696803           
       3.159216             0.00622770668            0.000745386985           
       3.161857             0.00697003339            0.000785351487           
       3.164497             0.00604250193            0.000768313869           
       3.167138             0.00854191835            0.000943867209           
       3.169778             0.00673791239            0.000824468494           
       3.172418             0.00521769004            0.000718142161           
       3.175059             0.00565530942            0.000662825107           
       3.177699             0.00618139312            0.000733812487           
       3.180339             0.00719383787             0.00084817015           
       3.182980             0.00468697197            0.000707826303           
       3.185620             0.00666475024            0.000859601553           
       3.188261             0.00493931924            0.000753217856           
       3.190901             0.00710047931            0.000830580426           
       3.193541             0.00643252874            0.000830676215           
       3.196182             0.00547177603            0.000798422133           
       3.198822             0.00709641306            0.000909564277           
       3.201463             0.00674469866            0.000871460565           
       3.204103             0.00590702103             0.00081058834           
       3.206743             0.00501571563            0.000746864439           
       3.209384             0.00388648448            0.000710303981           
       3.212024              0.0059614569            0.000820170264           
       3.214664             0.00758160978             0.00105177638           
       3.217305             0.00616599975             0.00090162953           
       3.219945             0.00558603648            0.000883288462           
       3.222586             0.00619634152            0.000886085758           
       3.225226             0.00435361354            0.000823947141           
       3.227866             0.00560255377            0.000854296942           
       3.230507              0.0068513945            0.000979310441           
       3.233147              0.0056742239            0.000898414834           
       3.235787              0.0074320101             0.00105223235           
       3.238428             0.00533955559            0.000962461657           
       3.241068             0.00744718653             0.00106282482           
       3.243709             0.00549386437            0.000943130207           
       3.246349             0.00645903968            0.000932218588           
       3.248989             0.00615699898             0.00107469771           
       3.251630             0.00694964486             0.00109950466           
       3.254270             0.00317854102            0.000664561919           
       3.256911             0.00545687233            0.000950084782           
       3.259551             0.00652460445             0.00111845257           
       3.262191             0.00476748551            0.000976567586           
       3.264832             0.00611350383             0.00115546483           
       3.267472             0.00573305944             0.00104968134           
       3.270112             0.00491931261             0.00107455544           
       3.272753             0.00707175297             0.00117927459           
       3.275393             0.00428429067            0.000936568053           
       3.278034             0.00797353348             0.00127840873           
       3.280674             0.00408564581            0.000993024549           
       3.283314              0.0046280092            0.000945227502           
       3.285955             0.00555333984             0.00106832564           
       3.288595             0.00383166638            0.000987267883           
       3.291235             0.00643330341             0.00131506641           
       3.293876             0.00550703273             0.00123420089           
       3.296516             0.00379830368            0.000984018467           
       3.299157             0.00670599372             0.00129106596           
       3.301797             0.00480232642             0.00124625914           
       3.304437             0.00628311281             0.00123503375           
       3.307078             0.00703618855             0.00143968977           
       3.309718             0.00724299177             0.00150769842           
       3.312359             0.00407029725             0.00113050295           
       3.314999             0.00639323114             0.00139498862           
       3.317639             0.00447852539             0.00111662452           
       3.320280             0.00564435838             0.00133279851           
       3.322920             0.00488316968             0.00126054072           
       3.325560             0.00617908899             0.00141893711           
       3.328201             0.00447986847              0.0010881165           
       3.330841             0.00628865468             0.00156904185           
       3.333482             0.00488512253             0.00130716582           
       3.336122             0.00590961923             0.00143837555           
       3.338762             0.00182559642            0.000923496273           
       3.341403             0.00638969833             0.00165090397           
       3.344043             0.00350858682             0.00117450884           
       3.346683             0.00245996164             0.00100402704           
       3.349324             0.00517340367              0.0016370534           
       3.351964             0.00403901741             0.00152959898           
       3.354605             0.00839987845             0.00252272804           
       3.357245             0.00368838595             0.00150802962           
       3.359885              0.0031470684             0.00111488573           
       3.362526              0.0030123548             0.00136404456           
       3.365166             0.00490186268             0.00164118258           
       3.367807             0.00624100378             0.00236997931           
       3.370447             0.00742644696              0.0021445269           
       3.373087             0.00489303333             0.00186147539           
       3.375728             0.00446403072             0.00200664723           
       3.378368             0.00199255217             0.00198967522           
       3.381008             0.00219524699             0.00155703069           
       3.383649             0.00352795023             0.00158343835           
       3.386289             0.00598314365             0.00244053585           
       3.388930              0.0099961869             0.00498977515           
       3.391570             0.00621113108             0.00278234915           
       3.394210              0.0039947487             0.00282384582           
       3.396851              0.0124054842             0.00556643197           
       3.399491             0.00248136723             0.00249021965           
       3.402131             0.00494003888             0.00497111498           
       3.404772           -2.67376495e-05                         0           
       3.407412                       nan                       nan           
       3.410053             0.00936604153             0.00969439296           
       3.412693                       nan                       nan           
       3.415333           -2.68547254e-05                         0           
