################################################################################
# EDF_DataBlockID                     0.Image.Psd
# EDF_BinarySize                      2105344
# EDF_HeaderSize                      2560
# ByteOrder                           LowByteFirst
# DataType                            FloatValue
# Dim_1                               512
# Dim_2                               1028
# Image                               0
# HeaderID                            EH:000000:000000:000000
# Size                                2105344
# Center_1                            304.9000
# Center_2                            588.7000
# Comment                             Xenocs_Cell_Window - 20251028_20perc_iodine_1.23mg
# DDummy                              0.6
# Date                                2025-11-02T19:35:24
# Delta                               21.910000
# Dummy                               -1.5
# ExposureTime                        360
# Gamma                               15.360000
# Intensity1                          8.78671e-10
# PSize_1                             7.5e-05
# PSize_2                             7.5e-05
# Pressure                            0.0326748
# SampleDistance                      0.115750
# SampleEnvKind                       large
# SampleEnvPN                         ElectroChemical cell
# SampleEnvSN                         1141
# Thickness                           0
# Wavelength                          1.541891e-10
# Wavelength                          1.54189e-10
# aux                                 0
# aux_dial                            0.002375
# beamx                               588.434
# beamx_dial                          588.434
# beamz                               657.808
# beamz_dial                          657.808
# det0x                               0
# det0x_dial                          6.36945
# det0xvd                             0
# det0xvd_dial                        0
# det0y                               450.002
# det0y_dial                          481.635
# det0z                               0
# det0z_dial                          1.23302
# det0zvd                             0
# det0zvd_dial                        0
# mag                                 1.818
# mag_dial                            1.818
# om                                  0.2499
# om_dial                             -0.610199
# phi                                 -0.0120535
# phi_dial                            0
# ry                                  0.599993
# ry_dial                             0.599993
# s1bot                               0.8
# s1bot_dial                          -1.66094
# s1hl                                0.8
# s1hl_dial                           -0.608437
# s1hr                                0.8
# s1hr_dial                           0.970938
# s1top                               0.8
# s1top_dial                          -0.461562
# s2bot                               0.45
# s2bot_dial                          1.36109
# s2hl                                0.45
# s2hl_dial                           -0.83375
# s2hr                                0.45
# s2hr_dial                           -0.118594
# s2top                               0.45
# s2top_dial                          1.44734
# w2theta                             32
# w2theta_dial                        32
# waxsch                              19.2605
# waxsch_dial                         -32.7355
# waxsh                               137.085
# waxsh_dial                          -43.5338
# waxsth                              26.0607
# waxsth_dial                         -19.4086
# waxsz                               67.0407
# waxsz_dial                          -23.7954
# wind                                65.9854
# wind_dial                           66.0041
# wpsi                                124
# wpsi_dial                           124
# wstod                               115
# wstod_dial                          115
# x                                   0
# x_dial                              1.00969
# z                                   0
# z_dial                              13.3172
# CountCutoff                         6807993
# DetectorModel                       Dectris EIGER2 Si 500K, S/N E-01-0554
# ThresholdSetting                    4023.88989258
# Saturation                          0
# FlatField                           Corrected
# BackgroundReductionExtra            0.02
# BackgroundCorrectionConstant        0.0026712
# Detector                            0
# Monitor                             0
# Pil_Roi0                            0
# SumForIntensity1                    3.16321e+08
# TransmittedFlux                     878671
# det                                 0
# mon                                 0
# pilai0                              3.16321e+08
# pilai1                              795363
# pilct0                              5.46898e+08
# pilct1                              795363
# pilroi0                             0
# pilroi1                             0
# sec                                 1
# title                               20251028_20perc_iodine_1.23mg_1_01138.edf
# usaxs0                              0
# Operation                           Azimuthal average I(q)
# Error_model                         ErrorModel.poisson
# Geometrical_correction              True
# Transmission_correction             True
# Thickness_correction                False
# Binning mode                        Uniform
# Binning factor                      1.0
# Psi                                 0.0
# Omega                               0.2499
# MaskInvalidPixels                   True
# DetectorEdge                        3
# MaskFiles                           ['WAXS_corrected.edf']
################################################################################
    q(A⁻¹)                Intensity(a.u.)            Sigma_I(a.u.)            
       0.693100           -2.31067177e-05                         0           
       0.695741              0.0054344521             0.00395627547           
       0.698381               0.020777591             0.00947587002           
       0.701021             0.00857870508             0.00860764905           
       0.703662              0.0110151737             0.00563000551           
       0.706302             0.00658862623             0.00337106973           
       0.708942             0.00560974117             0.00401478938           
       0.711583              0.0106974063             0.00480083075           
       0.714223              0.0028432904             0.00285750947           
       0.716864             0.00613426934             0.00274618173           
       0.719504              0.0114458515             0.00404799308           
       0.722144             0.00118843156             0.00120795183           
       0.724785             0.00464084284             0.00190411143           
       0.727425              0.0114159612             0.00404008237           
       0.730065             0.00632156319             0.00212660796           
       0.732706             0.00702123725             0.00188204829           
       0.735346             0.00597817211             0.00226376978           
       0.737987             0.00683306329             0.00171022339           
       0.740627             0.00761190431              0.0026932599           
       0.743267             0.00680903046             0.00170614683           
       0.745908             0.00809818314             0.00201872093           
       0.748548             0.00645789422             0.00166166084           
       0.751189             0.00309567284             0.00155021159           
       0.753829             0.00261613215             0.00130999125           
       0.756469             0.00722921766             0.00175597187           
       0.759110              0.0090209301             0.00206713146           
       0.761750             0.00626506108             0.00152323096           
       0.764390              0.0080708965             0.00180954529           
       0.767031             0.00636401253             0.00139146806           
       0.769671             0.00856441113             0.00201359036           
       0.772312              0.0106548751             0.00170981019           
       0.774952             0.00650477183             0.00180405374           
       0.777592             0.00687508493             0.00135092009           
       0.780233             0.00607445344             0.00153203258           
       0.782873              0.0080598658             0.00168779981           
       0.785513              0.0056240572              0.0015072513           
       0.788154             0.00763970143             0.00146954492           
       0.790794             0.00967444428             0.00197704577           
       0.793435             0.00781984287             0.00159680888           
       0.796075              0.0102988791             0.00176528597           
       0.798715             0.00842859634             0.00188716756           
       0.801356             0.00782209924             0.00156469757           
       0.803996             0.00584787493             0.00137930561           
       0.806637             0.00452423596            0.000965486728           
       0.809277             0.00725322655             0.00132318522           
       0.811917              0.0054983514             0.00107698316           
       0.814558             0.00658329711             0.00122479739           
       0.817198              0.0100869928             0.00144035126           
       0.819838             0.00760396738             0.00126566829           
       0.822479             0.00639257749             0.00136272077           
       0.825119             0.00650723441             0.00117020196           
       0.827760             0.00670161933             0.00120294373           
       0.830400              0.0077595833             0.00121828764           
       0.833040             0.00649515936             0.00116777508           
       0.835681             0.00541717834             0.00121240008           
       0.838321             0.00668650859              0.0011305579           
       0.840961             0.00724858884             0.00128252497           
       0.843602             0.00991537705             0.00137556904           
       0.846242             0.00817943241             0.00124917873           
       0.848883             0.00800996651             0.00126504251           
       0.851523              0.0105196984              0.0014317358           
       0.854163              0.0046197062              0.0010089917           
       0.856804             0.00515683121            0.000958512561           
       0.859444             0.00715959638             0.00110660101           
       0.862085             0.00799438761             0.00121874102           
       0.864725             0.00642673216             0.00111829911           
       0.867365             0.00750965802             0.00112095675           
       0.870006             0.00742877171             0.00106241738           
       0.872646             0.00986835379             0.00128405838           
       0.875286             0.00834207911             0.00113580185           
       0.877927             0.00617541903            0.000942985397           
       0.880567             0.00666054335             0.00101459999           
       0.883208             0.00590002793            0.000945923945           
       0.885848             0.00667682052             0.00104480988           
       0.888488             0.00687864009            0.000994667607           
       0.891129             0.00817939348             0.00111370307           
       0.893769             0.00747712632             0.00101906049           
       0.896410             0.00722936288            0.000934247151           
       0.899050             0.00628053687            0.000957625029           
       0.901690              0.0081419712             0.00118769692           
       0.904331              0.0073455859             0.00100013766           
       0.906971             0.00832638523             0.00113278946           
       0.909611             0.00662944698            0.000920139585           
       0.912252             0.00652281083            0.000942732808           
       0.914892             0.00745764171             0.00110155818           
       0.917533             0.00697506261             0.00100779035           
       0.920173             0.00828228242             0.00101888957           
       0.922813             0.00826133862             0.00106785709           
       0.925454             0.00604250738            0.000822369407           
       0.928094             0.00802012348             0.00101146548           
       0.930734             0.00634178077            0.000968333145           
       0.933375             0.00796267426             0.00107438058           
       0.936015             0.00824930416            0.000993174278           
       0.938656             0.00772209409             0.00103083326           
       0.941296             0.00949644991             0.00103600462           
       0.943936             0.00662502546            0.000848576648           
       0.946577             0.00639438432            0.000828163229           
       0.949217              0.0073291439            0.000815338159           
       0.951858             0.00954170232            0.000973840797           
       0.954498             0.00680494996            0.000951923119           
       0.957138             0.00644937735            0.000877939888           
       0.959779             0.00720497675            0.000914762925           
       0.962419             0.00788297904            0.000950471316           
       0.965059             0.00836705924             0.00102988317           
       0.967700              0.0080867658             0.00103698645           
       0.970340             0.00738912566            0.000877156079           
       0.972981             0.00663015681            0.000757018281           
       0.975621             0.00675314525            0.000812772127           
       0.978261             0.00837538289            0.000860046795           
       0.980902             0.00665658931            0.000917360898           
       0.983542             0.00881290013            0.000934747462           
       0.986182             0.00814091922            0.000882047359           
       0.988823             0.00739492076            0.000816285249           
       0.991463             0.00767868604            0.000887443253           
       0.994104              0.0069140841            0.000821483026           
       0.996744             0.00813240214            0.000908735419           
       0.999384             0.00836849861             0.00082442623           
       1.002025             0.00627693464            0.000796924968           
       1.004665             0.00719038745            0.000779483952           
       1.007306             0.00828008708            0.000832184871           
       1.009946             0.00881351149            0.000875623584           
       1.012586             0.00889856851            0.000856911032           
       1.015227             0.00874962987            0.000912854076           
       1.017867             0.00845071005            0.000862199482           
       1.020507               0.007765847            0.000800601006           
       1.023148             0.00845731237            0.000901509592           
       1.025788             0.00718416766            0.000761858617           
       1.028429             0.00761613172            0.000821817889           
       1.031069             0.00802526295            0.000793862645           
       1.033709             0.00726178867            0.000802734272           
       1.036350             0.00778921871             0.00074668839           
       1.038990             0.00681715704            0.000711381257           
       1.041630             0.00766773265            0.000786905836           
       1.044271             0.00885891065            0.000795465728           
       1.046911             0.00863038867            0.000825863691           
       1.049552             0.00706437225            0.000785015968           
       1.052192             0.00829575225            0.000776784697           
       1.054832             0.00865880055            0.000800819231           
       1.057473             0.00821851311            0.000769105938           
       1.060113             0.00844146588            0.000760193573           
       1.062754             0.00913796453              0.0008075292           
       1.065394             0.00805908875              0.0008017845           
       1.068034             0.00891244253            0.000767165396           
       1.070675             0.00877477381            0.000794043074           
       1.073315             0.00865008786            0.000799681784           
       1.075955             0.00783598892            0.000718541977           
       1.078596             0.00838841566            0.000790127928           
       1.081236             0.00763458127            0.000721802589           
       1.083877             0.00911711853            0.000781701868           
       1.086517             0.00993073587            0.000874815347           
       1.089157             0.00747276314            0.000787410651           
       1.091798              0.0087251588            0.000745944502           
       1.094438             0.00854737605            0.000735922825           
       1.097078             0.00826474452            0.000694059507           
       1.099719             0.00871475433            0.000770898997           
       1.102359              0.0093784499               0.000748943           
       1.105000             0.00898716952            0.000819808092           
       1.107640             0.00889104967            0.000779666743           
       1.110280             0.00908508737            0.000719107168           
       1.112921              0.0087287132            0.000757174333           
       1.115561             0.00813301883            0.000694641178           
       1.118202             0.00844529993            0.000708518516           
       1.120842             0.00853797411            0.000748732136           
       1.123482             0.00929757984            0.000777916578           
       1.126123             0.00843144804             0.00071054834           
       1.128763              0.0105055288            0.000798581055           
       1.131403              0.0079943024            0.000671259822           
       1.134044              0.0075169068            0.000669786444           
       1.136684             0.00875274841            0.000770578405           
       1.139325             0.00937327082            0.000734587599           
       1.141965             0.00815665935            0.000689788253           
       1.144605             0.00902264247            0.000691749016           
       1.147246             0.00864557034            0.000692994268           
       1.149886             0.00837610686            0.000679687774           
       1.152527              0.0089053998            0.000711025367           
       1.155167               0.010161482            0.000722415371           
       1.157807             0.00829886174            0.000699978458           
       1.160448             0.00919040695            0.000719327087           
       1.163088              0.0100844533            0.000718731373           
       1.165728             0.00908122379            0.000700267822           
       1.168369             0.00867329607            0.000690681643           
       1.171009               0.010131703            0.000724453397           
       1.173650             0.00876240108            0.000691399511           
       1.176290             0.00839332774            0.000661270066           
       1.178930             0.00945163244            0.000687751595           
       1.181571             0.00895670475            0.000682779164           
       1.184211             0.00883345404            0.000680469257           
       1.186851             0.00907189743            0.000674204289           
       1.189492              0.0090576331            0.000669141878           
       1.192132             0.00975041683            0.000686470857           
       1.194773             0.00892619095            0.000659685612           
       1.197413             0.00927315711            0.000644239608           
       1.200053             0.00880417041            0.000643686995           
       1.202694             0.00955672572            0.000637733836           
       1.205334             0.00898188991             0.00066628711           
       1.207975             0.00858333198            0.000621719183           
       1.210615             0.00940941909            0.000718108596           
       1.213255             0.00944265432            0.000644184383           
       1.215896             0.00947982814            0.000657146072           
       1.218536             0.00995722191              0.0006475889           
       1.221176              0.0101006274            0.000709113883           
       1.223817             0.00850384735            0.000610779157           
       1.226457             0.00993512915             0.00067348153           
       1.229098             0.00976144201            0.000667536107           
       1.231738              0.0102641961            0.000687879617           
       1.234378             0.00916789753             0.00061087324           
       1.237019              0.0100683351            0.000659688727           
       1.239659              0.0106667427            0.000673095092           
       1.242299             0.00913798476            0.000615081421           
       1.244940             0.00930791979            0.000603741901           
       1.247580             0.00910357696            0.000615337654           
       1.250221              0.0113649318            0.000683286468           
       1.252861             0.00989910778            0.000607094879           
       1.255501             0.00978765555            0.000655467653           
       1.258142              0.0104561387            0.000636615642           
       1.260782             0.00942602242            0.000617522227           
       1.263423              0.0101587322            0.000615999537           
       1.266063              0.0102048215            0.000632812511           
       1.268703              0.0113426259            0.000661622582           
       1.271344             0.00980714284            0.000636061936           
       1.273984              0.0111858952            0.000656072685           
       1.276624             0.00951143241            0.000593612513           
       1.279265              0.0107525631            0.000641636401           
       1.281905             0.00998444451            0.000621037962           
       1.284546              0.0111464078            0.000634258453           
       1.287186               0.012212859             0.00065136355           
       1.289826             0.00975554449            0.000613546396           
       1.292467               0.010591795            0.000625221384           
       1.295107              0.0105154004            0.000616774302           
       1.297747              0.0108368681            0.000599155433           
       1.300388              0.0108874299            0.000654677005           
       1.303028              0.0116923439            0.000647685132           
       1.305669              0.0103704971            0.000624500342           
       1.308309             0.00991927889            0.000604748731           
       1.310949              0.0122117231            0.000670327007           
       1.313590                0.01097051            0.000615487716           
       1.316230              0.0109870416             0.00065730555           
       1.318871               0.010420897             0.00062694503           
       1.321511              0.0112321839            0.000638827655           
       1.324151              0.0113088188            0.000621999858           
       1.326792              0.0119076414            0.000642201407           
       1.329432              0.0110024838            0.000612954379           
       1.332072              0.0103897288            0.000586764539           
       1.334713               0.010191899             0.00059980595           
       1.337353              0.0114127437             0.00060870362           
       1.339994              0.0117866552            0.000649153435           
       1.342634              0.0117315731            0.000621041127           
       1.345274              0.0119444772            0.000648525001           
       1.347915              0.0101060836            0.000580059977           
       1.350555              0.0112035952            0.000621441837           
       1.353195              0.0110399088             0.00061991528           
       1.355836              0.0123078118            0.000644339361           
       1.358476              0.0112279759            0.000597670891           
       1.361117               0.010812474            0.000587313007           
       1.363757              0.0123540958            0.000646956558           
       1.366397              0.0108543683            0.000588066828           
       1.369038              0.0109089477            0.000595413689           
       1.371678              0.0115755706            0.000607928982           
       1.374319              0.0104332299            0.000572183317           
       1.376959              0.0111896445            0.000586603078           
       1.379599              0.0111189248            0.000626671112           
       1.382240              0.0103899426            0.000569342163           
       1.384880              0.0116170187            0.000637680668           
       1.387520              0.0103038318            0.000570368897           
       1.390161              0.0112620336            0.000566341824           
       1.392801              0.0103764428            0.000566398104           
       1.395442              0.0105864635            0.000579914975           
       1.398082              0.0116100251            0.000568712828           
       1.400722              0.0114545226            0.000591710743           
       1.403363              0.0123537561            0.000646833797           
       1.406003              0.0112604176            0.000577941611           
       1.408644              0.0118131648               0.000620113           
       1.411284              0.0117067138            0.000584540349           
       1.413924              0.0114924927             0.00057702028           
       1.416565              0.0106822128            0.000554121819           
       1.419205              0.0110400727            0.000587640003           
       1.421845              0.0109864196             0.00058586613           
       1.424486              0.0117457356            0.000582287768           
       1.427126              0.0115246359            0.000599164219           
       1.429767              0.0112273089            0.000556421134           
       1.432407              0.0113865434             0.00058642255           
       1.435047               0.011773994            0.000560039894           
       1.437688              0.0107648415            0.000543508422           
       1.440328              0.0110098341            0.000560988066           
       1.442968              0.0100181755             0.00054711769           
       1.445609              0.0108321956            0.000550864069           
       1.448249              0.0114836103            0.000581546661           
       1.450890              0.0115352328            0.000579048061           
       1.453530              0.0104081934            0.000575445623           
       1.456170              0.0114098877            0.000584740718           
       1.458811              0.0108806508            0.000546019917           
       1.461451              0.0112256453            0.000556063612           
       1.464092              0.0109976345            0.000553985703           
       1.466732             0.00968228723            0.000515335152           
       1.469372              0.0114229479            0.000546644824           
       1.472013              0.0112132509            0.000584130803           
       1.474653              0.0110784159             0.00057165159           
       1.477293              0.0112299583            0.000587678774           
       1.479934              0.0113681248             0.00056420745           
       1.482574              0.0104791203            0.000524007675           
       1.485215               0.012111314            0.000573832702           
       1.487855              0.0108247923            0.000549656099           
       1.490495              0.0106020995            0.000541969418           
       1.493136              0.0106635336            0.000536087175           
       1.495776              0.0108590261            0.000538515592           
       1.498416              0.0116991618            0.000577246902           
       1.501057              0.0114378221            0.000558184351           
       1.503697              0.0104047185            0.000520485676           
       1.506338              0.0101937264            0.000524595478           
       1.508978              0.0107806449            0.000534180839           
       1.511618              0.0106491056            0.000565418639           
       1.514259               0.011200695             0.00055984428           
       1.516899              0.0101649145            0.000519287356           
       1.519540              0.0109598044            0.000547904339           
       1.522180              0.0111180101            0.000556692365           
       1.524820              0.0115145963            0.000563355625           
       1.527461              0.0105986783            0.000543158671           
       1.530101              0.0105242858            0.000535836018           
       1.532741              0.0111083257            0.000547308475           
       1.535382              0.0113722213            0.000562686441           
       1.538022              0.0102156723            0.000502403416           
       1.540663              0.0113889164            0.000570552563           
       1.543303              0.0109317825            0.000519026446           
       1.545943              0.0103529831            0.000534610292           
       1.548584              0.0107314157            0.000554063809           
       1.551224              0.0106882512            0.000511253045           
       1.553864              0.0108047918            0.000543171646           
       1.556505              0.0100636024            0.000506400808           
       1.559145              0.0104438909            0.000522199633           
       1.561786             0.00972620279            0.000504326054           
       1.564426              0.0111224588            0.000522537248           
       1.567066              0.0111348524            0.000547823669           
       1.569707              0.0104623475            0.000521483914           
       1.572347              0.0101290435            0.000530094035           
       1.574988              0.0106325094            0.000516948214           
       1.577628             0.00969185519            0.000514652679           
       1.580268              0.0106284389            0.000522181596           
       1.582909              0.0103117524             0.00054518341           
       1.585549              0.0102155126             0.00052687963           
       1.588189             0.00958870693            0.000499318595           
       1.590830              0.0101599591            0.000513331918           
       1.593470              0.0101684601            0.000533880962           
       1.596111             0.00972469809            0.000509733214           
       1.598751             0.00982916224            0.000496560164           
       1.601391             0.00916260333            0.000490005133           
       1.604032             0.00935598256            0.000505500151           
       1.606672             0.00966613141            0.000499215634           
       1.609312             0.00945594209             0.00051542571           
       1.611953             0.00946790569            0.000504695153           
       1.614593             0.00926403096            0.000489706779           
       1.617234             0.00977251144            0.000521262962           
       1.619874             0.00938240777            0.000508735395           
       1.622514              0.0102796047            0.000525240025           
       1.625155               0.009422954            0.000505849338           
       1.627795             0.00878998557            0.000476593601           
       1.630436             0.00963905314            0.000496475281           
       1.633076             0.00837118223            0.000468740801           
       1.635716             0.00918812025            0.000483439712           
       1.638357              0.0095872479            0.000495129945           
       1.640997             0.00938416641            0.000504696629           
       1.643637             0.00950624086            0.000494310809           
       1.646278             0.00963417643            0.000513261381           
       1.648918             0.00926738862            0.000504769485           
       1.651559             0.00814761551            0.000476966001           
       1.654199             0.00946843473            0.000500080694           
       1.656839             0.00901147927            0.000488034595           
       1.659480              0.0092827683            0.000513926649           
       1.662120             0.00929001996            0.000484223266           
       1.664761             0.00918340335            0.000500088424           
       1.667401             0.00928211674            0.000480539506           
       1.670041             0.00894316516            0.000478876188           
       1.672682             0.00940924607            0.000489177335           
       1.675322             0.00859198943             0.00046444473           
       1.677962             0.00879405832            0.000464691146           
       1.680603              0.0089998821             0.00047154432           
       1.683243              0.0090929064            0.000494504555           
       1.685884             0.00873289631            0.000488195096           
       1.688524              0.0101628394            0.000516469431           
       1.691164              0.0085845698            0.000474782737           
       1.693805             0.00891510566            0.000489151941           
       1.696445             0.00871874065            0.000486540899           
       1.699085             0.00873150558            0.000470581937           
       1.701726             0.00856654073            0.000449020794           
       1.704366             0.00926084991            0.000491827007           
       1.707007             0.00933879338            0.000482882994           
       1.709647             0.00811524406            0.000455223169           
       1.712287             0.00938012198            0.000493675593           
       1.714928             0.00875957893            0.000480913012           
       1.717568             0.00837933739            0.000443080344           
       1.720209             0.00873849973            0.000473937809           
       1.722849             0.00942599918            0.000489697747           
       1.725489             0.00917378784            0.000483507565           
       1.728130             0.00929928788            0.000517335802           
       1.730770             0.00822649719            0.000462121199           
       1.733410             0.00889869478            0.000473075719           
       1.736051             0.00854456369            0.000466793569           
       1.738691             0.00837076179            0.000452655959           
       1.741332             0.00935931798            0.000492634457           
       1.743972             0.00932423048            0.000507774244           
       1.746612             0.00800317873            0.000451733161           
       1.749253             0.00903844642            0.000489542765           
       1.751893             0.00919710363            0.000490195958           
       1.754533             0.00837017489            0.000467203064           
       1.757174             0.00884099403            0.000475666819           
       1.759814             0.00865702539            0.000463557048           
       1.762455             0.00807237617            0.000455849805           
       1.765095             0.00786162916             0.00043034576           
       1.767735             0.00915993707            0.000478853829           
       1.770376             0.00867609891            0.000467264062           
       1.773016             0.00844148214            0.000457815695           
       1.775657             0.00830410262            0.000447541569           
       1.778297             0.00860225867            0.000451582838           
       1.780937             0.00794432159             0.00045805505           
       1.783578              0.0099719249            0.000500358746           
       1.786218             0.00893099233             0.00049417394           
       1.788858             0.00878535659            0.000465503513           
       1.791499             0.00838277881            0.000449606047           
       1.794139             0.00940768187            0.000472434461           
       1.796780             0.00845210876            0.000445639871           
       1.799420              0.0094036791            0.000467453808           
       1.802060             0.00887993459            0.000457918848           
       1.804701             0.00935021688            0.000450926036           
       1.807341             0.00895736811            0.000463764508           
       1.809981             0.00853175081            0.000454121356           
       1.812622              0.0089541785            0.000456852254           
       1.815262             0.00918437887            0.000472516077           
       1.817903             0.00826220488            0.000441526363           
       1.820543             0.00931510996             0.00047612146           
       1.823183             0.00835335091            0.000450625027           
       1.825824             0.00926194251            0.000453317838           
       1.828464             0.00939307941            0.000475937406           
       1.831105             0.00867244381            0.000444672387           
       1.833745             0.00822748197            0.000442364677           
       1.836385             0.00773364804               0.000441123           
       1.839026             0.00885840635            0.000470620668           
       1.841666             0.00803206903            0.000446543939           
       1.844306             0.00904262992            0.000460875112           
       1.846947             0.00850732663            0.000450944146           
       1.849587             0.00830099345            0.000491876033           
       1.852228             0.00867859929            0.000454781626           
       1.854868             0.00799857166            0.000461203945           
       1.857508             0.00778650191            0.000450585746           
       1.860149             0.00857255693            0.000481372336           
       1.862789              0.0085049536            0.000462799939           
       1.865429             0.00845239401            0.000481597288           
       1.868070             0.00800907656             0.00046254936           
       1.870710             0.00803798268            0.000452700209           
       1.873351             0.00750899948            0.000442959637           
       1.875991             0.00828351381            0.000472836484           
       1.878631             0.00832819595            0.000465029779           
       1.881272             0.00841176981            0.000464225828           
       1.883912             0.00765437328            0.000460860833           
       1.886553             0.00885196835            0.000490063259           
       1.889193             0.00820654846            0.000471053016           
       1.891833             0.00817732615            0.000488335153           
       1.894474             0.00799965681            0.000478794521           
       1.897114             0.00716118877            0.000438366571           
       1.899754             0.00746190352            0.000449348208           
       1.902395             0.00805306113            0.000457681773           
       1.905035             0.00760537358            0.000471094555           
       1.907676             0.00787153313            0.000451710502           
       1.910316             0.00845794102            0.000480666306           
       1.912956             0.00794748001             0.00045568515           
       1.915597             0.00809844663            0.000462563618           
       1.918237             0.00726013586            0.000452315006           
       1.920878             0.00768137964             0.00046334741           
       1.923518             0.00833535936            0.000482873664           
       1.926158             0.00844226285            0.000479654244           
       1.928799              0.0076942482            0.000452611466           
       1.931439             0.00848762473            0.000487842705           
       1.934079             0.00741956929            0.000475490552           
       1.936720             0.00853189027            0.000472426461           
       1.939360             0.00805576326            0.000489747908           
       1.942001             0.00804887922            0.000448687215           
       1.944641             0.00758286279            0.000444082902           
       1.947281             0.00867733513            0.000470672654           
       1.949922             0.00810831227            0.000469952697           
       1.952562             0.00889674111            0.000507701701           
       1.955202               0.008423701            0.000493417901           
       1.957843             0.00783698787            0.000463582359           
       1.960483             0.00796510793            0.000488620435           
       1.963124             0.00731904234            0.000458775825           
       1.965764             0.00797505481            0.000451611329           
       1.968404             0.00793765405            0.000446294138           
       1.971045             0.00722029042            0.000433972351           
       1.973685             0.00804493043             0.00048049675           
       1.976326             0.00747177172            0.000456699865           
       1.978966             0.00746423091            0.000460475254           
       1.981606             0.00820268693            0.000492783507           
       1.984247             0.00853356405            0.000499319607           
       1.986887             0.00801397263            0.000478083295           
       1.989527             0.00728810293            0.000451008201           
       1.992168             0.00741531471            0.000472025613           
       1.994808             0.00813139403             0.00049217283           
       1.997449             0.00753342282            0.000464001674           
       2.000089             0.00802806622            0.000477093601           
       2.002729             0.00745581978            0.000460051143           
       2.005370             0.00866313009            0.000490566214           
       2.008010             0.00734399468            0.000471387976           
       2.010650             0.00724147207            0.000471578891           
       2.013291             0.00799647104            0.000475455676           
       2.015931             0.00737373866            0.000453339789           
       2.018572             0.00783897146            0.000499952447           
       2.021212             0.00737433075            0.000476197012           
       2.023852             0.00721255134            0.000445726876           
       2.026493             0.00765690076            0.000479770218           
       2.029133             0.00848688973            0.000494939552           
       2.031774             0.00680295656            0.000465050352           
       2.034414             0.00788327611            0.000460636022           
       2.037054             0.00789309385            0.000472605647           
       2.039695             0.00719088672            0.000447686513           
       2.042335              0.0071238578            0.000463071133           
       2.044975             0.00736983374            0.000465285945           
       2.047616              0.0081932091            0.000489370686           
       2.050256              0.0077042005            0.000479032928           
       2.052897             0.00747309917            0.000480491285           
       2.055537             0.00766933149            0.000470433967           
       2.058177             0.00810691762            0.000473641875           
       2.060818              0.0078918804            0.000489551745           
       2.063458             0.00731363921            0.000491116176           
       2.066098             0.00758150271            0.000471694771           
       2.068739             0.00807973652            0.000494516461           
       2.071379             0.00729478013            0.000482136061           
       2.074020             0.00681807458            0.000455986396           
       2.076660             0.00677915933            0.000458358864           
       2.079300             0.00734090604            0.000488658391           
       2.081941             0.00697905537            0.000436255822           
       2.084581             0.00640268727            0.000441048463           
       2.087222             0.00774017002            0.000467670108           
       2.089862             0.00702928642            0.000485409989           
       2.092502             0.00746887113            0.000485025343           
       2.095143             0.00800041019            0.000518377378           
       2.097783             0.00752698112              0.0004868007           
       2.100423             0.00698365455            0.000451830311           
       2.103064             0.00774583835            0.000493756194           
       2.105704             0.00724954607            0.000475310307           
       2.108345             0.00684459724            0.000443709065           
       2.110985             0.00731957194            0.000490081007           
       2.113625              0.0070846566            0.000486359991           
       2.116266             0.00797869382            0.000523458979           
       2.118906             0.00730522812            0.000466792049           
       2.121546             0.00744320839            0.000462183511           
       2.124187             0.00733309428            0.000481547942           
       2.126827             0.00823824531            0.000516099522           
       2.129468             0.00767469533            0.000499406958           
       2.132108             0.00763046799            0.000484482926           
       2.134748             0.00897000184            0.000523252015           
       2.137389             0.00790339426            0.000512400083           
       2.140029             0.00808735399            0.000464039849           
       2.142670             0.00733679976            0.000472356557           
       2.145310             0.00772497558            0.000471758669           
       2.147950             0.00818504209            0.000499818314           
       2.150591             0.00799011704            0.000488840232           
       2.153231             0.00646973612            0.000452787486           
       2.155871             0.00750693244            0.000471182778           
       2.158512             0.00724726547            0.000483067901           
       2.161152             0.00765334981            0.000480860734           
       2.163793             0.00791465864            0.000486799433           
       2.166433             0.00687982528            0.000466067228           
       2.169073             0.00749265326            0.000475553687           
       2.171714             0.00710318888            0.000459567876           
       2.174354             0.00756212625            0.000495476252           
       2.176995             0.00666458504            0.000463186802           
       2.179635             0.00742278153            0.000516548263           
       2.182275             0.00661100772            0.000460263343           
       2.184916             0.00691311638            0.000454598731           
       2.187556             0.00723808733            0.000460498654           
       2.190196              0.0072631242            0.000482046444           
       2.192837             0.00756496931            0.000489284394           
       2.195477             0.00759254651            0.000467324022           
       2.198118             0.00835537083            0.000502799942           
       2.200758             0.00736568585             0.00048432916           
       2.203398             0.00681039621            0.000468694326           
       2.206039             0.00698894317            0.000449356505           
       2.208679             0.00659279914            0.000446592703           
       2.211319             0.00783100272            0.000489533407           
       2.213960             0.00732635995            0.000479841667           
       2.216600             0.00694245889            0.000483205225           
       2.219241             0.00811931659            0.000499424476           
       2.221881             0.00735122971            0.000476192005           
       2.224521             0.00721459915            0.000477526681           
       2.227162              0.0072800309            0.000470082765           
       2.229802             0.00749397087            0.000491870084           
       2.232443             0.00673053745            0.000458790691           
       2.235083             0.00783384149            0.000509568194           
       2.237723             0.00751672317            0.000479004826           
       2.240364             0.00730738102            0.000483922695           
       2.243004             0.00694252131            0.000467921558           
       2.245644             0.00822246938            0.000514328992           
       2.248285             0.00699038099            0.000464731131           
       2.250925             0.00663844628            0.000455632558           
       2.253566             0.00799461253            0.000534550871           
       2.256206             0.00747913984            0.000506692433           
       2.258846             0.00634532835            0.000443968812           
       2.261487             0.00654284795            0.000473183568           
       2.264127             0.00786300771            0.000500980331           
       2.266767             0.00676326643            0.000477006078           
       2.269408             0.00761441746            0.000508204869           
       2.272048             0.00740756016            0.000498262207           
       2.274689             0.00691383544            0.000487713646           
       2.277329             0.00719307356            0.000468395473           
       2.279969             0.00685162524            0.000486602729           
       2.282610             0.00753547304            0.000496115655           
       2.285250             0.00667294274            0.000446848158           
       2.287891             0.00727076961             0.00050008913           
       2.290531             0.00693393676            0.000494932935           
       2.293171             0.00711536521            0.000488375972           
       2.295812             0.00718373806            0.000488744295           
       2.298452             0.00745982002            0.000520825171           
       2.301092             0.00679045662            0.000461689962           
       2.303733              0.0066509942            0.000475360859           
       2.306373             0.00680727134            0.000488486828           
       2.309014             0.00690095885            0.000482242202           
       2.311654              0.0067176298            0.000496513125           
       2.314294             0.00760337364            0.000486663389           
       2.316935             0.00748126244            0.000484734033           
       2.319575             0.00659654916            0.000476913732           
       2.322215             0.00722895602            0.000520304151           
       2.324856             0.00779591992            0.000496770653           
       2.327496             0.00668322637            0.000489076585           
       2.330137             0.00664240962            0.000466578368           
       2.332777             0.00742069949            0.000508496265           
       2.335417             0.00626652507            0.000453333078           
       2.338058             0.00667746844            0.000481940329           
       2.340698             0.00691445866            0.000486564137           
       2.343339             0.00737285206            0.000513490225           
       2.345979             0.00740752107            0.000486943439           
       2.348619             0.00747001664            0.000506867693           
       2.351260              0.0069340527            0.000485500509           
       2.353900             0.00717240709            0.000492210244           
       2.356540             0.00679627642            0.000478450233           
       2.359181             0.00665193089            0.000466706064           
       2.361821             0.00724598392            0.000470525763           
       2.364462             0.00665534136            0.000471628047           
       2.367102             0.00770271847            0.000521417863           
       2.369742             0.00774732366            0.000550415107           
       2.372383              0.0072883716            0.000483411548           
       2.375023             0.00635216126            0.000474411025           
       2.377663             0.00690306628            0.000472867678           
       2.380304             0.00744233322            0.000499177263           
       2.382944             0.00766432958            0.000482489513           
       2.385585             0.00691031204            0.000488615792           
       2.388225             0.00736930747            0.000502211286           
       2.390865             0.00791981514            0.000515283704           
       2.393506             0.00700616253            0.000475507356           
       2.396146             0.00722270528            0.000522024929           
       2.398787             0.00666169613            0.000462025151           
       2.401427             0.00740589323            0.000470211219           
       2.404067             0.00724206858            0.000475353087           
       2.406708             0.00636338788             0.00044024033           
       2.409348             0.00685221905            0.000484564979           
       2.411988              0.0078606863            0.000508504344           
       2.414629             0.00759526881            0.000515412873           
       2.417269              0.0069072145            0.000497251719           
       2.419910             0.00633155003            0.000477184617           
       2.422550             0.00677611086            0.000472296626           
       2.425190             0.00702564024            0.000506933722           
       2.427831             0.00683998301            0.000497379099           
       2.430471             0.00755204514            0.000497903705           
       2.433112             0.00746931816            0.000482176686           
       2.435752              0.0067905051             0.00048655347           
       2.438392             0.00730611421            0.000487126809           
       2.441033              0.0067924579            0.000497778099           
       2.443673             0.00668169047            0.000494082227           
       2.446313             0.00733056155            0.000517973359           
       2.448954             0.00752893704            0.000499811617           
       2.451594             0.00727492658            0.000528270887           
       2.454235             0.00729181728            0.000496228031           
       2.456875              0.0074578611            0.000525110886           
       2.459515             0.00868380914            0.000581297804           
       2.462156             0.00783566383             0.00052133575           
       2.464796             0.00849643119            0.000535868596           
       2.467436             0.00700159415            0.000503046772           
       2.470077               0.007979494            0.000509005829           
       2.472717              0.0074715616             0.00049467274           
       2.475358             0.00821058465            0.000523967439           
       2.477998             0.00752435355            0.000493137299           
       2.480638             0.00755363686            0.000502875591           
       2.483279              0.0077128935            0.000531096829           
       2.485919             0.00756683372            0.000506963742           
       2.488560             0.00792702163            0.000517439575           
       2.491200             0.00759863759            0.000521672885           
       2.493840             0.00653061923            0.000511737213           
       2.496481              0.0072604571            0.000530748707           
       2.499121             0.00740678823            0.000521414198           
       2.501761             0.00719441968            0.000520693519           
       2.504402             0.00628894685            0.000479712931           
       2.507042             0.00742819103             0.00051749338           
       2.509683             0.00776023755            0.000520849185           
       2.512323             0.00824491646            0.000563844898           
       2.514963              0.0064561882            0.000492783003           
       2.517604             0.00730052898            0.000543747496           
       2.520244              0.0080811941            0.000536327416           
       2.522884             0.00835048788            0.000552987079           
       2.525525              0.0118869429            0.000667260951           
       2.528165             0.00783766256             0.00053337289           
       2.530806             0.00781621794            0.000541926799           
       2.533446             0.00657699178             0.00048650338           
       2.536086             0.00738784467            0.000511006577           
       2.538727             0.00758687821            0.000496792855           
       2.541367             0.00651468352            0.000464887127           
       2.544008             0.00820242565            0.000538728179           
       2.546648             0.00651625244            0.000488408982           
       2.549288               0.007772271            0.000544275549           
       2.551929             0.00700300588            0.000508403593           
       2.554569             0.00746451319            0.000505686199           
       2.557209             0.00662715199             0.00048085494           
       2.559850             0.00649773895            0.000477665773           
       2.562490             0.00632878748            0.000487232549           
       2.565131             0.00758230261            0.000552955832           
       2.567771             0.00685052354            0.000506753127           
       2.570411             0.00712615912            0.000511255154           
       2.573052             0.00658038572             0.00049747447           
       2.575692             0.00597880779            0.000471318573           
       2.578332             0.00625617005            0.000484120806           
       2.580973             0.00702882496            0.000508263457           
       2.583613             0.00640057286            0.000473468272           
       2.586254             0.00754975061            0.000513503935           
       2.588894              0.0070056431            0.000513674511           
       2.591534             0.00828303091             0.00057819953           
       2.594175             0.00680096434            0.000514037326           
       2.596815              0.0068369044            0.000518432655           
       2.599456              0.0079667326            0.000530696641           
       2.602096             0.00626574553            0.000474225827           
       2.604736             0.00711014731            0.000517149369           
       2.607377             0.00691696836            0.000496633493           
       2.610017              0.0070484662            0.000492558864           
       2.612657             0.00665226024            0.000508972724           
       2.615298             0.00723929866            0.000518379621           
       2.617938             0.00770298244            0.000572017301           
       2.620579             0.00782186515            0.000553352053           
       2.623219             0.00607807296            0.000487090658           
       2.625859             0.00741716342            0.000523163386           
       2.628500             0.00754012025            0.000524024455           
       2.631140             0.00645020723            0.000492141468           
       2.633780             0.00682310251            0.000505727267           
       2.636421             0.00771999815            0.000551169203           
       2.639061              0.0077057039            0.000518381871           
       2.641702             0.00700610985             0.00050573346           
       2.644342             0.00743492122            0.000523200305           
       2.646982             0.00847856921            0.000550363298           
       2.649623             0.00697328409            0.000523059991           
       2.652263             0.00719398072            0.000525941347           
       2.654904             0.00716701025            0.000525482657           
       2.657544             0.00765319599            0.000511462587           
       2.660184             0.00827904492            0.000562973248           
       2.662825             0.00652006908            0.000511192178           
       2.665465             0.00660698523            0.000497691485           
       2.668105              0.0062869772            0.000511724124           
       2.670746              0.0070727278            0.000501395174           
       2.673386             0.00753050122             0.00053318804           
       2.676027             0.00743340866            0.000521237685           
       2.678667              0.0110720536            0.000620718169           
       2.681307               0.011732236            0.000627810339           
       2.683948              0.0137823305            0.000699135954           
       2.686588              0.0107213822            0.000606405518           
       2.689229             0.00967916779            0.000563017435           
       2.691869             0.00967735038            0.000594997577           
       2.694509             0.00927393496            0.000582783921           
       2.697150             0.00737840367            0.000511390865           
       2.699790             0.00832525201            0.000569481187           
       2.702430             0.00725617064            0.000508203569           
       2.705071             0.00687933703            0.000511314876           
       2.707711             0.00629789727            0.000474834203           
       2.710352             0.00734994089            0.000542009725           
       2.712992             0.00679692604            0.000530857806           
       2.715632             0.00649704311            0.000481542839           
       2.718273             0.00659014397            0.000502617282           
       2.720913             0.00674924856            0.000507201123           
       2.723553             0.00642136183            0.000498046897           
       2.726194             0.00675273013            0.000533887337           
       2.728834             0.00849504035            0.000599095912           
       2.731475             0.00859312323            0.000556095773           
       2.734115             0.00694617886            0.000515490475           
       2.736755             0.00684613129            0.000515976874           
       2.739396             0.00721218746            0.000526523276           
       2.742036             0.00653021683             0.00052434056           
       2.744677             0.00705059562            0.000528637169           
       2.747317             0.00707110366            0.000525630384           
       2.749957             0.00640880165            0.000503920973           
       2.752598             0.00744616972            0.000549070735           
       2.755238             0.00771019904            0.000568806692           
       2.757878              0.0072913221            0.000548303737           
       2.760519             0.00810588825            0.000571990555           
       2.763159              0.0106721966             0.00064976097           
       2.765800             0.00977842724            0.000592716486           
       2.768440             0.00863589615            0.000561117585           
       2.771080             0.00877823886            0.000570445195           
       2.773721             0.00767986572             0.00054732859           
       2.776361             0.00644428811            0.000508287424           
       2.779001             0.00823197175            0.000594930757           
       2.781642             0.00638861613              0.0005202421           
       2.784282             0.00698762958            0.000553032261           
       2.786923             0.00753744856             0.00057943516           
       2.789563              0.0071348288            0.000542954823           
       2.792203             0.00639456965            0.000491033125           
       2.794844             0.00686082063            0.000557438864           
       2.797484             0.00697167221            0.000530319294           
       2.800125               0.006861998            0.000553227378           
       2.802765              0.0074500079            0.000566526711           
       2.805405             0.00680856624            0.000543422097           
       2.808046             0.00704224787            0.000562384669           
       2.810686             0.00742525367            0.000530632712           
       2.813326             0.00686759918            0.000530079506           
       2.815967             0.00674303679             0.00054018468           
       2.818607             0.00653660977            0.000507532589           
       2.821248             0.00702478328             0.00051522016           
       2.823888              0.0071656233            0.000540146203           
       2.826528             0.00622128487            0.000487418325           
       2.829169             0.00733152995            0.000554229844           
       2.831809              0.0066652116            0.000535632731           
       2.834449             0.00674164182            0.000542099431           
       2.837090             0.00547886908            0.000472005863           
       2.839730             0.00636208003             0.00050614609           
       2.842371             0.00670809654            0.000520477928           
       2.845011             0.00688990853            0.000531688694           
       2.847651             0.00658165217             0.00052029687           
       2.850292             0.00720661132            0.000549782289           
       2.852932             0.00603821766            0.000514212519           
       2.855573             0.00733752097            0.000549853887           
       2.858213             0.00644528068            0.000541169108           
       2.860853             0.00802033346            0.000561563034           
       2.863494             0.00686002335            0.000537720604           
       2.866134             0.00728301624            0.000575867042           
       2.868774             0.00667949154             0.00054200243           
       2.871415             0.00678897237            0.000554937632           
       2.874055             0.00625858997            0.000509309534           
       2.876696             0.00682496123            0.000546241439           
       2.879336               0.007130095            0.000538111924           
       2.881976             0.00720693757            0.000558008151           
       2.884617             0.00783747132            0.000573360234           
       2.887257             0.00699802952            0.000544582077           
       2.889897             0.00792138158            0.000567472025           
       2.892538             0.00639021734            0.000558361715           
       2.895178             0.00717462466            0.000534507172           
       2.897819             0.00674877303            0.000528819198           
       2.900459             0.00685487014            0.000522592006           
       2.903099             0.00698167657             0.00052200493           
       2.905740              0.0068507471            0.000530465296           
       2.908380              0.0061731649            0.000509270731           
       2.911021             0.00576017953            0.000499938899           
       2.913661             0.00749264108            0.000570014959           
       2.916301             0.00661084292            0.000535933828           
       2.918942             0.00690987834            0.000524099918           
       2.921582             0.00661732802            0.000536625749           
       2.924222             0.00685627194            0.000529190164           
       2.926863             0.00695676112            0.000555237376           
       2.929503             0.00684981524            0.000557480409           
       2.932144             0.00675615068            0.000531475697           
       2.934784             0.00631801725             0.00050552651           
       2.937424             0.00768984856            0.000563441081           
       2.940065             0.00699405084            0.000512577301           
       2.942705             0.00674018222            0.000502557309           
       2.945346             0.00786098112            0.000575979617           
       2.947986             0.00685509401            0.000548438894           
       2.950626             0.00685874509            0.000545496198           
       2.953267             0.00789029566            0.000575627709           
       2.955907             0.00659710266            0.000546012075           
       2.958547             0.00647241611            0.000510568994           
       2.961188             0.00644118739            0.000531379434           
       2.963828             0.00818467833            0.000585927012           
       2.966469             0.00674378848            0.000521749638           
       2.969109             0.00710157946            0.000543344398           
       2.971749             0.00730082803             0.00054747717           
       2.974390             0.00669967928            0.000515371505           
       2.977030             0.00735246812            0.000551961539           
       2.979670             0.00969503219            0.000616513309           
       2.982311             0.00841924319            0.000595459981           
       2.984951             0.00720736021            0.000523992243           
       2.987592             0.00681761685            0.000519835138           
       2.990232             0.00798994284            0.000585261578           
       2.992872             0.00831498166            0.000562384928           
       2.995513             0.00836374273            0.000551808457           
       2.998153              0.0108411834             0.00063879638           
       3.000794              0.0122770135            0.000658439925           
       3.003434              0.0119211716            0.000649807165           
       3.006074              0.0465247425             0.00126571788           
       3.008715               0.122726643             0.00198441621           
       3.011355               0.185526677             0.00235282194           
       3.013995              0.0935745318             0.00167550108           
       3.016636               0.063771169             0.00135445897           
       3.019276               0.132310001              0.0019177612           
       3.021917               0.486294284              0.0035352405           
       3.024557                1.65066346             0.00640366536           
       3.027197                1.13537281             0.00517785369           
       3.029838                0.51339874             0.00353122123           
       3.032478               0.261652319             0.00252348763           
       3.035118              0.0714082764             0.00133598305           
       3.037759              0.0969080925             0.00155433991           
       3.040399               0.135923125             0.00189885764           
       3.043040               0.529898845             0.00379518684           
       3.045680               0.392056342             0.00307139076           
       3.048320              0.0872845432             0.00148073271           
       3.050961               0.106856877              0.0016672279           
       3.053601              0.0861817785             0.00144205697           
       3.056242              0.0554283987             0.00122959168           
       3.058882              0.0464780097             0.00120780836           
       3.061522               0.036494676               0.001050052           
       3.064163              0.0423441909             0.00111683608           
       3.066803               0.100653993             0.00181279033           
       3.069443               0.101412599             0.00190377694           
       3.072084              0.0547365087             0.00136191054           
       3.074724              0.0413070472             0.00132125453           
       3.077365              0.0823458667              0.0019311184           
       3.080005              0.0190390916            0.000933824122           
       3.082645             0.00903802822             0.00067590326           
       3.085286                0.01394854            0.000846301399           
       3.087926             0.00991362465            0.000707973131           
       3.090566              0.0127051408            0.000785291354           
       3.093207              0.0101228097            0.000729418691           
       3.095847             0.00732150137            0.000594581777           
       3.098488             0.00884430914            0.000724616125           
       3.101128             0.00987375778            0.000770550865           
       3.103768             0.00966244438            0.000747919963           
       3.106409             0.00930525535            0.000781136941           
       3.109049             0.00887645868            0.000732143112           
       3.111690             0.00723856947            0.000649803846           
       3.114330             0.00868261239            0.000726813667           
       3.116970             0.00759798019            0.000685122704           
       3.119611              0.0113185279            0.000890088129           
       3.122251               0.020332829             0.00124790798           
       3.124891              0.0342916037             0.00163570191           
       3.127532              0.0228542356              0.0013063565           
       3.130172              0.0126216522            0.000987590063           
       3.132813              0.0106866861            0.000894624194           
       3.135453             0.00889841286            0.000809623688           
       3.138093             0.00587043108            0.000712533069           
       3.140734             0.00795344442            0.000765156497           
       3.143374             0.00715580015            0.000767538345           
       3.146014             0.00647211716            0.000785826365           
       3.148655             0.00667465134            0.000741840192           
       3.151295              0.0075880141            0.000842902406           
       3.153936             0.00531716934            0.000681580321           
       3.156576             0.00747882735            0.000797343975           
       3.159216             0.00616819299            0.000727737541           
       3.161857             0.00586291292            0.000706612693           
       3.164497             0.00761883601            0.000846355183           
       3.167138             0.00802305017            0.000897389568           
       3.169778             0.00686863669            0.000816628869           
       3.172418             0.00674146801             0.00080080467           
       3.175059              0.0058975492            0.000664025294           
       3.177699             0.00587664875            0.000701915534           
       3.180339             0.00683235373            0.000810897392           
       3.182980             0.00616593226            0.000796448988           
       3.185620             0.00415278392            0.000665660812           
       3.188261              0.0049678034             0.00074104969           
       3.190901             0.00589259068            0.000742282237           
       3.193541             0.00594802314            0.000783619625           
       3.196182             0.00763921268            0.000925487982           
       3.198822             0.00673174539            0.000869072212           
       3.201463             0.00683170697            0.000860417333           
       3.204103             0.00577141471            0.000786023094           
       3.206743             0.00672092284            0.000848140603           
       3.209384             0.00510211206             0.00079839691           
       3.212024             0.00707496516            0.000876532532           
       3.214664              0.0061715026            0.000930928288           
       3.217305             0.00516341358            0.000809418085           
       3.219945             0.00577882127            0.000881349935           
       3.222586             0.00659712788            0.000896940441           
       3.225226             0.00795454676             0.00109259751           
       3.227866             0.00702891271             0.00093872413           
       3.230507             0.00619771096            0.000913744189           
       3.233147             0.00507477609            0.000833508809           
       3.235787              0.0049957966             0.00084632847           
       3.238428             0.00433498661            0.000850751714           
       3.241068             0.00583116226            0.000922616477           
       3.243709             0.00420669379            0.000809619966           
       3.246349             0.00413562327            0.000731783038           
       3.248989             0.00487428572            0.000938070213           
       3.251630             0.00350926894            0.000766482364           
       3.254270             0.00413550613            0.000743642063           
       3.256911             0.00460974557            0.000856657092           
       3.259551             0.00498980141            0.000959533586           
       3.262191             0.00517726209            0.000998356757           
       3.264832             0.00691886526             0.00120588848           
       3.267472             0.00590196552             0.00104481804           
       3.270112             0.00497329742             0.00105992931           
       3.272753             0.00625102419             0.00108768981           
       3.275393             0.00571271517             0.00106096054           
       3.278034             0.00609574708             0.00109656873           
       3.280674             0.00556605732             0.00113705517           
       3.283314             0.00425801204            0.000889448397           
       3.285955             0.00732945694             0.00120403884           
       3.288595             0.00514626506             0.00112244563           
       3.291235             0.00698889699             0.00134466177           
       3.293876              0.0063972685             0.00130497559           
       3.296516             0.00441817704             0.00104113737           
       3.299157             0.00550796653             0.00114786438           
       3.301797             0.00872050736             0.00164752292           
       3.304437             0.00632548494             0.00121567191           
       3.307078             0.00560817878             0.00126092478           
       3.309718              0.0072393061             0.00147870665           
       3.312359             0.00573199183             0.00131610182           
       3.314999             0.00349346061             0.00101161779           
       3.317639             0.00700173527             0.00136968454           
       3.320280             0.00330511465             0.00100052638           
       3.322920              0.0059519325              0.0013652527           
       3.325560             0.00341888596             0.00103543133           
       3.328201             0.00532646455             0.00116396617           
       3.330841             0.00528762119             0.00141144478           
       3.333482             0.00572734476             0.00138850577           
       3.336122             0.00468597142             0.00125652297           
       3.338762             0.00398829049              0.0013390729           
       3.341403             0.00575345917             0.00153682432           
       3.344043             0.00486623635             0.00135695313           
       3.346683             0.00389978297             0.00124016518           
       3.349324             0.00349059747             0.00131917563           
       3.351964             0.00666489298             0.00192758875           
       3.354605             0.00437047388             0.00178515639           
       3.357245             0.00707954213             0.00204961527           
       3.359885             0.00493983814              0.0013702875           
       3.362526             0.00235119621             0.00118221919           
       3.365166             0.00369609936             0.00139806132           
       3.367807             0.00863305409             0.00273449815           
       3.370447             0.00475786515              0.0016839341           
       3.373087             0.00609647944             0.00203838324           
       3.375728             0.00171191825             0.00121906545           
       3.378368             0.00381638601             0.00270135436           
       3.381008             0.00642155454             0.00261248398           
       3.383649             0.00675704184             0.00214979135           
       3.386289             0.00382644404             0.00191468014           
       3.388930           -2.56123919e-05                         0           
       3.391570             0.00601591011             0.00268630315           
       3.394210             0.00581538766             0.00334244027           
       3.396851             0.00482106115             0.00340423425           
       3.399491             0.00702409072             0.00411022185           
       3.402131              0.0094635903             0.00674985839           
       3.404772             0.00939859805               0.009515202           
       3.407412                       nan                       nan           
       3.410053           -2.57957241e-05                         0           
       3.412693                       nan                       nan           
       3.415333           -2.58450192e-05                         0           
