################################################################################
# EDF_DataBlockID                     0.Image.Psd
# EDF_BinarySize                      4366944
# EDF_HeaderSize                      2560
# ByteOrder                           LowByteFirst
# DataType                            FloatValue
# Dim_1                               1028
# Dim_2                               1062
# Image                               0
# HeaderID                            EH:000000:000000:000000
# Size                                4366944
# Center_1                            607.5200
# Center_2                            651.5500
# Comment                             Xenocs_Cell_Window - 20251028_20perc_iodine_1.23mg
# DDummy                              0.6
# Date                                2025-11-02T20:15:10
# Delta                               0
# Dummy                               -1.5
# ExposureTime                        360
# Gamma                               0
# Intensity1                          8.80614e-10
# PSize_1                             7.5e-05
# PSize_2                             7.5e-05
# Pressure                            0.0326777
# SampleDistance                      0.450002
# SampleEnvKind                       large
# SampleEnvPN                         ElectroChemical cell
# SampleEnvSN                         1141
# Thickness                           0
# Wavelength                          1.541891e-10
# Wavelength                          1.54189e-10
# aux                                 0
# aux_dial                            0.002375
# beamx                               588.434
# beamx_dial                          588.434
# beamz                               657.808
# beamz_dial                          657.808
# det0x                               0
# det0x_dial                          6.36945
# det0xvd                             0
# det0xvd_dial                        0
# det0y                               450.002
# det0y_dial                          481.635
# det0z                               0
# det0z_dial                          1.23302
# det0zvd                             0
# det0zvd_dial                        0
# mag                                 1.818
# mag_dial                            1.818
# om                                  0.2499
# om_dial                             -0.610199
# phi                                 -0.0120535
# phi_dial                            0
# ry                                  0.599993
# ry_dial                             0.599993
# s1bot                               0.8
# s1bot_dial                          -1.66094
# s1hl                                0.8
# s1hl_dial                           -0.608437
# s1hr                                0.8
# s1hr_dial                           0.970938
# s1top                               0.8
# s1top_dial                          -0.461562
# s2bot                               0.45
# s2bot_dial                          1.36109
# s2hl                                0.45
# s2hl_dial                           -0.83375
# s2hr                                0.45
# s2hr_dial                           -0.118594
# s2top                               0.45
# s2top_dial                          1.44734
# w2theta                             32
# w2theta_dial                        32
# waxsch                              19.2605
# waxsch_dial                         -32.7355
# waxsh                               137.085
# waxsh_dial                          -43.5338
# waxsth                              26.0607
# waxsth_dial                         -19.4086
# waxsz                               67.0407
# waxsz_dial                          -23.7954
# wind                                65.9854
# wind_dial                           66.0041
# wpsi                                124
# wpsi_dial                           124
# wstod                               115
# wstod_dial                          115
# x                                   0
# x_dial                              1.00969
# z                                   0
# z_dial                              13.3172
# CountCutoff                         15302352
# DetectorModel                       Dectris EIGER2 Si 1M, S/N E-02-0362
# ThresholdSetting                    4023.88989258
# Saturation                          0
# FlatField                           Corrected
# BackgroundReductionExtra            0.02
# BackgroundCorrectionConstant        0.0026712
# Detector                            0
# Monitor                             0
# Pil_Roi0                            0
# SumForIntensity1                    3.17021e+08
# TransmittedFlux                     880614
# det                                 0
# mon                                 0
# pilai0                              3.17021e+08
# pilai1                              795988
# pilct0                              5.47813e+08
# pilct1                              795988
# pilroi0                             0
# pilroi1                             0
# sec                                 1
# title                               20251028_20perc_iodine_1.23mg_0_01144.edf
# usaxs0                              0
# Operation                           Azimuthal average I(q)
# Error_model                         ErrorModel.poisson
# Geometrical_correction              True
# Transmission_correction             True
# Thickness_correction                False
# Binning mode                        Uniform
# Binning factor                      1.0
# Psi                                 0.0
# Omega                               0.2499
# MaskInvalidPixels                   True
# DetectorEdge                        3
# MaskFiles                           ['20251028_20perc_iodine_1.23mg_0_00012_mask.edf']
################################################################################
    q(A⁻¹)                Intensity(a.u.)            Sigma_I(a.u.)            
       0.000340                372662.276                118.769856           
       0.001019                359451.579                71.4306105           
       0.001698                349995.526                49.8402771           
       0.002377                330919.983                43.3466702           
       0.003056                307698.043                35.3258537           
       0.003735                253586.232                 28.282708           
       0.004415                204494.693                 25.397986           
       0.005094                152301.616                18.9819694           
       0.005773                100208.172                14.2550038           
       0.006452                58165.8675                10.4058877           
       0.007131                32252.6409                7.50647582           
       0.007810                16295.8432                5.29513174           
       0.008490                8252.92433                3.34021809           
       0.009169                4023.73167                2.30502722           
       0.009848                1249.72509                1.24200792           
       0.010527                 484.11742               0.773023576           
       0.011206                120.751358               0.368465563           
       0.011885                55.1304213               0.231320763           
       0.012564                25.2543743               0.160738176           
       0.013244                16.8237181                0.12265117           
       0.013923                12.2713518               0.106440417           
       0.014602                9.15386442               0.085260432           
       0.015281                7.46737287              0.0783895342           
       0.015960                6.04921218              0.0700486068           
       0.016639                4.93591749               0.059751479           
       0.017319                4.20813821               0.054312837           
       0.017998                3.44536687              0.0470160989           
       0.018677                2.92195299              0.0448446476           
       0.019356                2.44436862                0.04052812           
       0.020035                2.08391633              0.0351080336           
       0.020714                1.89293667               0.033814786           
       0.021394                1.56450754              0.0290868897           
       0.022073                1.45089249              0.0291430788           
       0.022752                1.23426109              0.0257131249           
       0.023431                1.12152873              0.0237921581           
       0.024110               0.979600491              0.0231824771           
       0.024789               0.860151697              0.0201745133           
       0.025469               0.843640534              0.0205895251           
       0.026148                 0.7029635               0.017659115           
       0.026827               0.640295089              0.0171233011           
       0.027506               0.589780578              0.0166709623           
       0.028185               0.556644466               0.015445099           
       0.028864               0.520905018              0.0148572122           
       0.029544               0.472767821              0.0137254873           
       0.030223               0.436202936              0.0133730806           
       0.030902               0.390326391               0.012766074           
       0.031581               0.359582761              0.0116478255           
       0.032260               0.338913711              0.0115007881           
       0.032939                0.30979389              0.0106021673           
       0.033619               0.277975275              0.0101905488           
       0.034298               0.266764157             0.00971501355           
       0.034977               0.241393227             0.00905987969           
       0.035656               0.224270766             0.00896377128           
       0.036335               0.209526838             0.00840310681           
       0.037014               0.219241454             0.00862134267           
       0.037693               0.182814647             0.00757335282           
       0.038373               0.189213199             0.00778035731           
       0.039052               0.166262948             0.00732428839           
       0.039731               0.167582203             0.00718192439           
       0.040410               0.144332271              0.0066204431           
       0.041089               0.137425904             0.00635891294           
       0.041768               0.137704158             0.00639860318           
       0.042448               0.142360608             0.00645540514           
       0.043127               0.125333685             0.00591401317           
       0.043806               0.120572853             0.00584385369           
       0.044485                0.12233144             0.00576539191           
       0.045164               0.105933023             0.00547081168           
       0.045843               0.114370133             0.00545212647           
       0.046523                0.10956323             0.00535474901           
       0.047202               0.107001468             0.00532875558           
       0.047881              0.0920985447              0.0048484224           
       0.048560               0.090150685             0.00484059935           
       0.049239              0.0912896306             0.00467711676           
       0.049918              0.0914718897             0.00477330727           
       0.050598              0.0887138426             0.00463026766           
       0.051277               0.087373678             0.00458057945           
       0.051956              0.0855348561             0.00450366276           
       0.052635              0.0726111026              0.0040614394           
       0.053314              0.0721313235             0.00416635057           
       0.053993              0.0844398623             0.00438419389           
       0.054673              0.0728677075             0.00398198881           
       0.055352              0.0780790374             0.00418246641           
       0.056031              0.0757238077             0.00403235807           
       0.056710               0.064836733             0.00382267596           
       0.057389              0.0724119964             0.00389564454           
       0.058068               0.068033089             0.00381494336           
       0.058748              0.0719204573             0.00397134989           
       0.059427              0.0656150125             0.00372904467           
       0.060106              0.0623331165             0.00366898983           
       0.060785              0.0649506565             0.00363301721           
       0.061464              0.0666038735             0.00376763969           
       0.062143              0.0588282431              0.0035049219           
       0.062822              0.0563353514             0.00338960759           
       0.063502                0.05468479             0.00333361608           
       0.064181              0.0518941436             0.00321315033           
       0.064860              0.0532502687             0.00330443836           
       0.065539              0.0554631597             0.00333942293           
       0.066218              0.0502115863             0.00310936043           
       0.066897              0.0476049049              0.0030509471           
       0.067577              0.0484621399               0.003107868           
       0.068256              0.0514300131             0.00328026485           
       0.068935              0.0518326652             0.00323983334           
       0.069614              0.0497214137             0.00320475308           
       0.070293              0.0459472067             0.00310912884           
       0.070972              0.0435725007             0.00300554937           
       0.071652              0.0426344793             0.00297847505           
       0.072331              0.0439437601             0.00296997051           
       0.073010               0.046663249             0.00313041953           
       0.073689              0.0457382375             0.00308220613           
       0.074368              0.0439640263             0.00301633891           
       0.075047              0.0373136748             0.00274898367           
       0.075727              0.0460323466             0.00303444312           
       0.076406               0.041635867             0.00294348021           
       0.077085               0.041281329              0.0028761463           
       0.077764              0.0465559077             0.00304366665           
       0.078443              0.0375247768             0.00274947223           
       0.079122              0.0346025499             0.00261488169           
       0.079802              0.0387888317             0.00279790629           
       0.080481              0.0343407097             0.00254379517           
       0.081160              0.0367562532             0.00268574431           
       0.081839              0.0397333509             0.00274768857           
       0.082518               0.032380121              0.0024825314           
       0.083197               0.034652697             0.00252826769           
       0.083876              0.0344788767             0.00248001316           
       0.084556              0.0412948791             0.00278958014           
       0.085235              0.0353801857             0.00253219959           
       0.085914               0.035501469             0.00256117658           
       0.086593              0.0299051863             0.00233552992           
       0.087272              0.0338858115             0.00245097261           
       0.087951              0.0319352777             0.00243313366           
       0.088631              0.0290821928              0.0022428184           
       0.089310              0.0330010157             0.00243982678           
       0.089989              0.0368204006             0.00254702032           
       0.090668              0.0324207166             0.00241638998           
       0.091347              0.0313837485             0.00239074301           
       0.092026               0.031419864              0.0022864781           
       0.092706              0.0345112922             0.00248330351           
       0.093385              0.0304517928             0.00229686108           
       0.094064              0.0264632403             0.00216608345           
       0.094743              0.0295894342             0.00225555176           
       0.095422              0.0287312126             0.00219781627           
       0.096101              0.0324325718             0.00238318996           
       0.096781              0.0311364463             0.00230164932           
       0.097460              0.0300064939             0.00219786351           
       0.098139              0.0311944679             0.00222370548           
       0.098818              0.0298840225             0.00214969343           
       0.099497              0.0325061505             0.00224662471           
       0.100176              0.0304764928             0.00211826264           
       0.100856              0.0266921158             0.00198111838           
       0.101535              0.0315346959             0.00214919017           
       0.102214              0.0264411904             0.00196799374           
       0.102893              0.0296585351             0.00206054162           
       0.103572              0.0292510895             0.00201610862           
       0.104251              0.0275925994             0.00196535332           
       0.104931                0.02982039              0.0020245525           
       0.105610              0.0233192141             0.00179795145           
       0.106289              0.0282960544             0.00194758209           
       0.106968              0.0281780672             0.00194928532           
       0.107647              0.0262063192             0.00188097665           
       0.108326              0.0274924174             0.00190080562           
       0.109005              0.0281803741             0.00191233304           
       0.109685              0.0283041935             0.00189503198           
       0.110364              0.0237812272             0.00175676299           
       0.111043              0.0259965265              0.0018294828           
       0.111722              0.0262797816              0.0018169399           
       0.112401              0.0256474172             0.00179993794           
       0.113080              0.0246802095             0.00174543871           
       0.113760              0.0228865553             0.00170889106           
       0.114439              0.0213550717              0.0016271661           
       0.115118              0.0278730314             0.00184495754           
       0.115797              0.0233958336              0.0017059581           
       0.116476                0.02330461             0.00167714556           
       0.117155              0.0238043561              0.0017087037           
       0.117835              0.0254192363             0.00173060977           
       0.118514              0.0241785573             0.00170924808           
       0.119193              0.0218563757             0.00162510757           
       0.119872              0.0220489535             0.00161183783           
       0.120551              0.0261672962             0.00174423191           
       0.121230              0.0218465129             0.00157769585           
       0.121910              0.0221986104             0.00160572919           
       0.122589              0.0225862716             0.00162135819           
       0.123268              0.0235912739             0.00162493535           
       0.123947              0.0206907336             0.00153160943           
       0.124626              0.0206731139             0.00151223839           
       0.125305              0.0204551531             0.00151162713           
       0.125985              0.0217649069             0.00154717228           
       0.126664              0.0206861794             0.00149397649           
       0.127343              0.0209654577             0.00152146119           
       0.128022              0.0221686568              0.0015525104           
       0.128701              0.0201989679              0.0014742162           
       0.129380              0.0229261052             0.00155091518           
       0.130059              0.0184115055             0.00139307652           
       0.130739               0.023174409             0.00157390329           
       0.131418               0.022057127             0.00153119521           
       0.132097              0.0215263684             0.00149326095           
       0.132776              0.0218378276             0.00149723475           
       0.133455              0.0210192655             0.00148031797           
       0.134134              0.0206106244              0.0014611896           
       0.134814              0.0244192227             0.00157408744           
       0.135493              0.0209398014             0.00146353542           
       0.136172              0.0203139239             0.00143061542           
       0.136851              0.0207765864             0.00145522982           
       0.137530              0.0208216462             0.00142219568           
       0.138209              0.0176742319             0.00132568775           
       0.138889              0.0185174003             0.00136292246           
       0.139568              0.0199254516             0.00141318002           
       0.140247              0.0193601694             0.00139116443           
       0.140926              0.0208756316             0.00140328206           
       0.141605              0.0181517789             0.00134177748           
       0.142284              0.0201730995             0.00139107443           
       0.142964              0.0192977038             0.00136576125           
       0.143643              0.0209106285             0.00141989601           
       0.144322              0.0185016742             0.00130765849           
       0.145001              0.0172788451             0.00128964541           
       0.145680              0.0195005236             0.00133763574           
       0.146359               0.019360422             0.00133769737           
       0.147039              0.0218371845              0.0014323846           
       0.147718              0.0220247382             0.00141478523           
       0.148397              0.0202253166             0.00137682758           
       0.149076              0.0182368425             0.00126683712           
       0.149755               0.017548649             0.00126189241           
       0.150434              0.0189556232             0.00131203898           
       0.151114              0.0208888164             0.00136970118           
       0.151793               0.018890266             0.00130254271           
       0.152472              0.0197863585             0.00130953129           
       0.153151              0.0208021137             0.00135570503           
       0.153830              0.0190025922             0.00128629959           
       0.154509              0.0168519779             0.00120627228           
       0.155188              0.0179792438             0.00124550383           
       0.155868               0.018906333             0.00126812329           
       0.156547              0.0206099758             0.00133253109           
       0.157226              0.0169147015              0.0011776918           
       0.157905              0.0190152662             0.00125916703           
       0.158584              0.0197070884             0.00127953938           
       0.159263               0.017751658             0.00121886869           
       0.159943              0.0192101657             0.00126889826           
       0.160622              0.0184578616             0.00121980033           
       0.161301              0.0168971899             0.00118270272           
       0.161980              0.0191869247              0.0012388658           
       0.162659              0.0178046017              0.0012066321           
       0.163338              0.0184129316              0.0012170711           
       0.164018              0.0185395762             0.00121483964           
       0.164697              0.0163568883             0.00115574065           
       0.165376              0.0196413486             0.00123880145           
       0.166055              0.0175872811             0.00117996788           
       0.166734              0.0175676669             0.00117402695           
       0.167413               0.015617049             0.00110770591           
       0.168093               0.014981971             0.00109521223           
       0.168772               0.017643016             0.00115374518           
       0.169451              0.0189420137             0.00121745869           
       0.170130              0.0186460642             0.00119205277           
       0.170809              0.0183402699             0.00119634637           
       0.171488              0.0174358129             0.00115584061           
       0.172168              0.0166470106             0.00111854292           
       0.172847              0.0181673032             0.00118385221           
       0.173526              0.0190495197             0.00118913015           
       0.174205              0.0176017678              0.0011483151           
       0.174884              0.0192585547             0.00119488375           
       0.175563              0.0161235358             0.00109797962           
       0.176243              0.0175988022              0.0011585916           
       0.176922              0.0169694933             0.00110804012           
       0.177601              0.0175916243             0.00114056695           
       0.178280              0.0183134692             0.00115074202           
       0.178959              0.0201100622             0.00121556606           
       0.179638              0.0167912149             0.00110754271           
       0.180317              0.0168176545             0.00110033958           
       0.180997              0.0176540666             0.00113348894           
       0.181676              0.0161424773             0.00107230362           
       0.182355              0.0164881518             0.00109023269           
       0.183034              0.0163024269             0.00106667649           
       0.183713              0.0158570953             0.00106481829           
       0.184392              0.0167584491             0.00109433226           
       0.185072              0.0151145495             0.00102742939           
       0.185751              0.0177980723             0.00111801435           
       0.186430              0.0171242496             0.00108896555           
       0.187109              0.0210495765             0.00122078715           
       0.187788              0.0174390033             0.00110842695           
       0.188467              0.0172223859             0.00108848578           
       0.189147              0.0182400941             0.00113152873           
       0.189826              0.0164141183             0.00105441643           
       0.190505              0.0166237552             0.00107859606           
       0.191184              0.0185186929             0.00112200478           
       0.191863               0.016606356              0.0010647329           
       0.192542              0.0149766232             0.00102067332           
       0.193222              0.0169076696             0.00106017696           
       0.193901               0.017280828             0.00108617848           
       0.194580              0.0145112995            0.000977930411           
       0.195259              0.0143124435            0.000982360887           
       0.195938              0.0175145011             0.00108930272           
       0.196617              0.0163402504             0.00103746678           
       0.197297              0.0189640438             0.00112222513           
       0.197976              0.0170237242             0.00104693351           
       0.198655              0.0180390025               0.001089472           
       0.199334               0.015909651             0.00101412909           
       0.200013              0.0167332728             0.00103947127           
       0.200692              0.0173377704             0.00106444473           
       0.201371               0.016679992             0.00103229913           
       0.202051              0.0174208907             0.00105825729           
       0.202730              0.0169403836             0.00103313773           
       0.203409              0.0168637896             0.00103771906           
       0.204088              0.0151595704             0.00098279971           
       0.204767              0.0170917749             0.00103806976           
       0.205446              0.0167199281              0.0010287219           
       0.206126              0.0152069157            0.000967744067           
       0.206805              0.0157829651             0.00100397718           
       0.207484              0.0150941323            0.000964173146           
       0.208163              0.0163308951             0.00100892261           
       0.208842               0.016373454             0.00100749884           
       0.209521              0.0157283544            0.000979245758           
       0.210201              0.0157180676            0.000989849521           
       0.210880              0.0165754571            0.000996541648           
       0.211559              0.0151813181            0.000967813116           
       0.212238              0.0161748393            0.000993896579           
       0.212917              0.0141283048            0.000925442932           
       0.213596              0.0136661056            0.000915561174           
       0.214276              0.0158617389            0.000965821603           
       0.214955              0.0151302028             0.00096312376           
       0.215634              0.0147999736            0.000945728385           
       0.216313              0.0171465891             0.00101580866           
       0.216992              0.0161732793            0.000986309709           
       0.217671              0.0157495472            0.000966710809           
       0.218351              0.0151193637             0.00095643646           
       0.219030              0.0143323888            0.000916513267           
       0.219709              0.0154069119            0.000956176078           
       0.220388              0.0151358592            0.000946510268           
       0.221067              0.0154511862            0.000957076998           
       0.221746              0.0163585512            0.000983769365           
       0.222426              0.0156484103             0.00094779959           
       0.223105              0.0156730241            0.000961467199           
       0.223784              0.0165708542            0.000978816244           
       0.224463              0.0151404158            0.000943066883           
       0.225142              0.0147624385            0.000916486512           
       0.225821               0.014944608            0.000925838279           
       0.226500              0.0148883331            0.000929969197           
       0.227180                0.01506514            0.000921062665           
       0.227859              0.0153061562             0.00093256609           
       0.228538               0.015880592            0.000940365944           
       0.229217              0.0147845391            0.000914516553           
       0.229896              0.0146592784            0.000910195832           
       0.230575              0.0128775996            0.000839493396           
       0.231255              0.0155180537            0.000935346238           
       0.231934              0.0140846671            0.000885013316           
       0.232613              0.0148678148            0.000912639845           
       0.233292              0.0158405405            0.000932919913           
       0.233971              0.0147163108            0.000898785626           
       0.234650              0.0159260295             0.00094599521           
       0.235330              0.0153162289            0.000919606533           
       0.236009              0.0139822312            0.000876752924           
       0.236688              0.0147516435            0.000897329993           
       0.237367              0.0160041169            0.000936004972           
       0.238046              0.0161425581             0.00094666489           
       0.238725              0.0155987319            0.000916225335           
       0.239405               0.016609139            0.000951296597           
       0.240084              0.0138331785            0.000862639049           
       0.240763              0.0144741603            0.000890847828           
       0.241442              0.0145977454             0.00088203699           
       0.242121              0.0148175349            0.000890329754           
       0.242800              0.0147474428            0.000892426493           
       0.243480              0.0148128965            0.000890216875           
       0.244159              0.0139748422            0.000865086183           
       0.244838              0.0144411888            0.000864931632           
       0.245517              0.0145707931            0.000881301572           
       0.246196              0.0141506994            0.000868922935           
       0.246875              0.0135451186            0.000838276218           
       0.247554              0.0141340014             0.00086500747           
       0.248234              0.0156577654            0.000896636648           
       0.248913              0.0133365082            0.000836791142           
       0.249592              0.0142651619            0.000857211105           
       0.250271              0.0144880931            0.000861374775           
       0.250950              0.0142891307            0.000860679209           
       0.251629              0.0150250065            0.000875061801           
       0.252309              0.0152936334            0.000884641411           
       0.252988              0.0150978629            0.000863820628           
       0.253667              0.0139429473            0.000839823344           
       0.254346              0.0138386749            0.000836504964           
       0.255025              0.0149510648            0.000867570836           
       0.255704              0.0147583611            0.000858013802           
       0.256384               0.014145799            0.000837112617           
       0.257063              0.0129708028             0.00080616261           
       0.257742              0.0151082235            0.000864024985           
       0.258421              0.0144068976            0.000842108541           
       0.259100              0.0138138496             0.00082603202           
       0.259779              0.0142766237            0.000839042519           
       0.260459              0.0137838447            0.000826053973           
       0.261138              0.0145331011            0.000831632067           
       0.261817              0.0143867612             0.00084413691           
       0.262496              0.0134214218            0.000807328776           
       0.263175              0.0118265754            0.000759473249           
       0.263854              0.0128822604            0.000788962962           
       0.264534              0.0150707637            0.000846063702           
       0.265213               0.013656223            0.000818071647           
       0.265892              0.0143975043            0.000829219719           
       0.266571              0.0112876194            0.000732551975           
       0.267250                0.01281757            0.000781935803           
       0.267929              0.0118141026            0.000749934052           
       0.268609              0.0115174046            0.000744511519           
       0.269288              0.0115052193            0.000731756127           
       0.269967              0.0124283093            0.000768739371           
       0.270646              0.0126812419            0.000773165655           
       0.271325              0.0117519795            0.000745541658           
       0.272004              0.0120182269            0.000746424141           
       0.272683              0.0127915153            0.000771014882           
       0.273363                 0.0124896            0.000766720563           
       0.274042              0.0113206071            0.000725651002           
       0.274721              0.0124515468            0.000760583735           
       0.275400              0.0122421201            0.000749167038           
       0.276079              0.0127395597             0.00076857561           
       0.276758              0.0110350117            0.000724339419           
       0.277438              0.0122707262            0.000755245688           
       0.278117              0.0117144714            0.000751347062           
       0.278796               0.011749072            0.000744818181           
       0.279475              0.0118278846            0.000759657313           
       0.280154              0.0128027387            0.000778974509           
       0.280833              0.0127129804            0.000780959598           
       0.281513              0.0130948519            0.000805036883           
       0.282192              0.0113366726             0.00073626668           
       0.282871              0.0116839649            0.000752682245           
       0.283550              0.0112752881               0.000743364           
       0.284229              0.0100158796            0.000710909818           
       0.284908               0.011559014            0.000771768739           
       0.285588              0.0107969954            0.000737161444           
       0.286267              0.0109098656            0.000752869297           
       0.286946              0.0111413597            0.000755867228           
       0.287625             0.00975481962            0.000719313809           
       0.288304              0.0102514496            0.000727527337           
       0.288983              0.0110059271            0.000763370215           
       0.289663              0.0102943622            0.000742601916           
       0.290342              0.0102775163             0.00073804432           
       0.291021              0.0103413667            0.000744321902           
       0.291700               0.011637296            0.000779268366           
       0.292379              0.0107672177            0.000766733173           
       0.293058             0.00985523411             0.00073077285           
       0.293738              0.0118346302            0.000794079394           
       0.294417              0.0114649087            0.000790661631           
       0.295096              0.0100908403              0.0007336151           
       0.295775              0.0108291328            0.000771585084           
       0.296454              0.0111994082            0.000774516237           
       0.297133             0.00924495833            0.000707025811           
       0.297812             0.00966156035            0.000726405599           
       0.298492              0.0115740139            0.000796591806           
       0.299171             0.00950987499             0.00072070713           
       0.299850              0.0101407223            0.000739145722           
       0.300529              0.0108608248             0.00077355603           
       0.301208              0.0118552421            0.000810160571           
       0.301887             0.00929522118            0.000716521728           
       0.302567             0.00980622886            0.000732267817           
       0.303246             0.00828670779            0.000677541898           
       0.303925               0.010192863            0.000761086433           
       0.304604              0.0102301139             0.00074601186           
       0.305283             0.00989120769             0.00074443016           
       0.305962             0.00925446123            0.000715720199           
       0.306642             0.00895318292            0.000713534686           
       0.307321              0.0088811622            0.000708389728           
       0.308000             0.00913223688            0.000709818619           
       0.308679             0.00813710564            0.000684539165           
       0.309358              0.0099942698            0.000748383174           
       0.310037             0.00890068487            0.000707826388           
       0.310717             0.00877661008            0.000702199308           
       0.311396             0.00851303977            0.000696213213           
       0.312075             0.00784281409             0.00067671939           
       0.312754             0.00829948635             0.00068221598           
       0.313433             0.00905850328            0.000718927779           
       0.314112             0.00931376589            0.000728819526           
       0.314792             0.00772907388            0.000668616606           
       0.315471              0.0085437744            0.000694279082           
       0.316150             0.00943145699            0.000736206174           
       0.316829              0.0103452443            0.000776137916           
       0.317508             0.00839162654            0.000691179327           
       0.318187             0.00932976033            0.000738404788           
       0.318866             0.00838676315            0.000690663123           
       0.319546              0.0105679197            0.000786910741           
       0.320225              0.0088150585            0.000718706892           
       0.320904             0.00752989454            0.000653982471           
       0.321583             0.00686058069             0.00063799568           
       0.322262             0.00779659692            0.000669818761           
       0.322941             0.00871591639            0.000717282083           
       0.323621             0.00749918182            0.000661274659           
       0.324300             0.00850227022            0.000704664912           
       0.324979             0.00758409917            0.000666732524           
       0.325658             0.00732909884            0.000656616962           
       0.326337             0.00805902688            0.000689437038           
       0.327016             0.00777702702            0.000672967588           
       0.327696             0.00904054008            0.000733648426           
       0.328375             0.00823746644            0.000694396213           
       0.329054             0.00761888396            0.000671437074           
       0.329733             0.00838641291            0.000707018696           
       0.330412             0.00836526581            0.000700341042           
       0.331091             0.00722333872            0.000662591659           
       0.331771             0.00775960504            0.000668751996           
       0.332450             0.00765292206            0.000677033311           
       0.333129             0.00749386912            0.000668232121           
       0.333808             0.00685992111            0.000640187936           
       0.334487             0.00787978513            0.000689381104           
       0.335166             0.00705985123            0.000642979262           
       0.335846             0.00720422819            0.000660934741           
       0.336525             0.00752597575            0.000668862946           
       0.337204             0.00662396505            0.000629146549           
       0.337883             0.00657510223            0.000627652629           
       0.338562             0.00713567728            0.000657489888           
       0.339241             0.00558332484            0.000582681143           
       0.339921             0.00873075978            0.000716416696           
       0.340600             0.00659097366            0.000634285218           
       0.341279              0.0078112468            0.000683115817           
       0.341958             0.00711221672            0.000661029709           
       0.342637             0.00750613748            0.000669495476           
       0.343316              0.0067018635            0.000634443201           
       0.343995             0.00769657727            0.000691030774           
       0.344675             0.00631374959             0.00061437941           
       0.345354              0.0068921624            0.000646139107           
       0.346033             0.00715984157            0.000656850288           
       0.346712              0.0075448278            0.000678581009           
       0.347391             0.00654960655            0.000636158612           
       0.348070             0.00796570394            0.000691604884           
       0.348750             0.00667540177            0.000642266252           
       0.349429             0.00624187313            0.000613042666           
       0.350108              0.0043039146            0.000515181104           
       0.350787             0.00673936975            0.000633718211           
       0.351466             0.00488652184             0.00054955846           
       0.352145             0.00698645006            0.000657661616           
       0.352825              0.0061319395            0.000613340336           
       0.353504             0.00734971598            0.000671322734           
       0.354183             0.00537115485            0.000567279792           
       0.354862             0.00602579529            0.000614818662           
       0.355541             0.00512234575            0.000559434183           
       0.356220             0.00729094709            0.000668691947           
       0.356900             0.00612581131            0.000618759062           
       0.357579              0.0065575699            0.000632343467           
       0.358258             0.00583956875            0.000604979619           
       0.358937              0.0068060153            0.000640846757           
       0.359616             0.00552487428            0.000585452405           
       0.360295             0.00528336867            0.000572990602           
       0.360975             0.00517741948            0.000564790471           
       0.361654             0.00497554786            0.000556524631           
       0.362333             0.00540674522            0.000577188899           
       0.363012             0.00587753726            0.000609536673           
       0.363691              0.0060683034            0.000607130291           
       0.364370             0.00447268804            0.000527699982           
       0.365050              0.0057829765            0.000596826811           
       0.365729             0.00658941214            0.000643157497           
       0.366408             0.00542101373            0.000584648454           
       0.367087             0.00595650018               0.000603015           
       0.367766             0.00509584917            0.000569372834           
       0.368445             0.00545482924            0.000578627481           
       0.369124             0.00518011385            0.000568298471           
       0.369804             0.00478358357            0.000545240421           
       0.370483             0.00514728973            0.000568063305           
       0.371162             0.00531715416            0.000580707842           
       0.371841             0.00524333498            0.000566608283           
       0.372520             0.00483751033            0.000555148588           
       0.373199             0.00429194169            0.000516660517           
       0.373879             0.00477989028            0.000551552229           
       0.374558             0.00444215237            0.000523950597           
       0.375237             0.00465262027            0.000537098281           
       0.375916             0.00483790203              0.0005581806           
       0.376595              0.0037754473            0.000483457478           
       0.377274             0.00556159304            0.000596170335           
       0.377954             0.00482331873            0.000546471159           
       0.378633             0.00526460071            0.000578137163           
       0.379312             0.00609747894            0.000622033351           
       0.379991             0.00459576211            0.000537234166           
       0.380670              0.0050814959            0.000574896464           
       0.381349             0.00448416847            0.000532296809           
       0.382029             0.00506554949            0.000573858355           
       0.382708             0.00310547157            0.000439507486           
       0.383387             0.00405495706            0.000513603375           
       0.384066             0.00370610432            0.000486508388           
       0.384745             0.00451325829             0.00053898975           
       0.385424               0.005142407            0.000577286209           
       0.386104             0.00449938436            0.000534021079           
       0.386783             0.00483874774            0.000565772624           
       0.387462             0.00459744822            0.000537765958           
       0.388141             0.00469585454            0.000552171272           
       0.388820             0.00467736189            0.000547099344           
       0.389499             0.00299298041            0.000440104346           
       0.390178              0.0045961925            0.000547556381           
       0.390858             0.00341109558            0.000467894794           
       0.391537             0.00486471606            0.000564471784           
       0.392216             0.00415155371            0.000514921339           
       0.392895             0.00431645029            0.000526816734           
       0.393574             0.00506224945               0.000569102           
       0.394253             0.00471360996             0.00055162578           
       0.394933             0.00365160634            0.000491071074           
       0.395612             0.00497240064            0.000556395291           
       0.396291             0.00454410726            0.000542722144           
       0.396970             0.00459266273            0.000540779937           
       0.397649             0.00346588623            0.000471227384           
       0.398328             0.00381788186            0.000492403862           
       0.399008             0.00442550598            0.000528989196           
       0.399687             0.00376340126            0.000489712603           
       0.400366             0.00480611177            0.000551294524           
       0.401045              0.0032232403             0.00045062075           
       0.401724              0.0043017447            0.000521448566           
       0.402403              0.0035378306            0.000476573048           
       0.403083             0.00399561656            0.000499165898           
       0.403762             0.00346990524            0.000467463951           
       0.404441              0.0038878224            0.000497966113           
       0.405120             0.00305121262            0.000439699847           
       0.405799              0.0040823684            0.000506390275           
       0.406478             0.00376047622            0.000486028337           
       0.407158             0.00342781892             0.00046316237           
       0.407837             0.00418875442            0.000516515324           
       0.408516             0.00361199423            0.000475466193           
       0.409195               0.003512097            0.000474163642           
       0.409874             0.00297449752            0.000442438176           
       0.410553             0.00298081542            0.000447671301           
       0.411233             0.00339191301            0.000475070308           
       0.411912             0.00425836458            0.000539842838           
       0.412591             0.00300168814            0.000456240173           
       0.413270             0.00367225532            0.000502237358           
       0.413949             0.00326225934            0.000478541368           
       0.414628             0.00276529571            0.000439795299           
       0.415307             0.00411429415            0.000542414982           
       0.415987             0.00341456062            0.000490069604           
       0.416666             0.00350374712            0.000493441733           
       0.417345             0.00276880735            0.000445972802           
       0.418024             0.00227544499            0.000404302324           
       0.418703             0.00281937587            0.000449211613           
       0.419382             0.00394053096            0.000528467663           
       0.420062             0.00324957594            0.000481248608           
       0.420741             0.00322326856            0.000481845562           
       0.421420             0.00266810931            0.000440053392           
       0.422099             0.00324347473            0.000485199238           
       0.422778             0.00276975923             0.00045079735           
       0.423457             0.00257336601            0.000437180951           
       0.424137             0.00262400495            0.000434267088           
       0.424816             0.00290360275            0.000466365146           
       0.425495             0.00275223177            0.000453616606           
       0.426174             0.00274116292            0.000452862029           
       0.426853             0.00264868541            0.000442453477           
       0.427532             0.00344351273            0.000508756145           
       0.428212             0.00227104155            0.000415890315           
       0.428891             0.00233343011            0.000420605297           
       0.429570             0.00294739049            0.000473034724           
       0.430249             0.00277801395            0.000456857421           
       0.430928             0.00211713658            0.000407551448           
       0.431607             0.00285522862            0.000465158952           
       0.432287             0.00237217654            0.000427094143           
       0.432966             0.00217841757            0.000412880184           
       0.433645             0.00226972836            0.000421884633           
       0.434324             0.00231857186            0.000423829546           
       0.435003              0.0026543829            0.000454259333           
       0.435682             0.00205837083             0.00040330283           
       0.436361             0.00268621965            0.000460106737           
       0.437041             0.00236695985            0.000431323686           
       0.437720             0.00215070185            0.000413130924           
       0.438399             0.00192993501            0.000393395444           
       0.439078             0.00257878244            0.000467928936           
       0.439757             0.00235276467            0.000444199503           
       0.440436             0.00222208885            0.000441416321           
       0.441116             0.00401243415            0.000602859033           
       0.441795             0.00249367125            0.000475832755           
       0.442474             0.00361840537             0.00057478134           
       0.443153             0.00227739997            0.000466637084           
       0.443832             0.00294340735            0.000531393455           
       0.444511             0.00254003643            0.000491416477           
       0.445191             0.00218229164            0.000466576807           
       0.445870             0.00238069954            0.000487338707           
       0.446549             0.00213679277            0.000466568603           
       0.447228             0.00271499674            0.000522947363           
       0.447907             0.00164079401            0.000411415437           
       0.448586             0.00207088145            0.000473322364           
       0.449266             0.00266129543            0.000531633972           
       0.449945             0.00272796067            0.000536056044           
       0.450624             0.00332860878            0.000601540806           
       0.451303             0.00223438278            0.000499236098           
       0.451982             0.00254510846            0.000529525942           
       0.452661             0.00231573825            0.000514511785           
       0.453341             0.00256471729             0.00054336247           
       0.454020             0.00223539623            0.000508052346           
       0.454699             0.00274104705            0.000567724925           
       0.455378             0.00192142675            0.000475581152           
       0.456057             0.00139848004            0.000412949262           
       0.456736             0.00101684712            0.000351026577           
       0.457416             0.00198188423             0.00049007623           
       0.458095             0.00168266494            0.000458103278           
       0.458774             0.00300579868              0.0006203638           
       0.459453             0.00213808097            0.000525851882           
       0.460132              0.0017828386            0.000469813575           
       0.460811             0.00194178442            0.000508602449           
       0.461490             0.00164671025            0.000463603754           
       0.462170             0.00237315811            0.000565231931           
       0.462849             0.00200419706            0.000522806839           
       0.463528             0.00212536306            0.000537129913           
       0.464207             0.00165243311            0.000482476053           
       0.464886             0.00176574305            0.000494860329           
       0.465565             0.00179613265            0.000504583282           
       0.466245             0.00111495044            0.000398783344           
       0.466924              0.0005858945            0.000295909215           
       0.467603             0.00212698802            0.000551849245           
       0.468282             0.00193441694             0.00053875491           
       0.468961             0.00119684307             0.00042655838           
       0.469640             0.00137145051            0.000458436343           
       0.470320             0.00151937992             0.00048286111           
       0.470999             0.00107868905            0.000410690081           
       0.471678             0.00143219837            0.000477773652           
       0.472357            0.000973842532            0.000395071513           
       0.473036            0.000661604907            0.000327690161           
       0.473715              0.0013372304            0.000469517046           
       0.474395             0.00170022425            0.000536739497           
       0.475074             0.00119921719            0.000450787666           
       0.475753             0.00118437875            0.000444124498           
       0.476432            0.000763895121            0.000369663181           
       0.477111            4.03000034e-05            8.38799179e-05           
       0.477790            0.000393816727            0.000263612976           
       0.478470            0.000772083094            0.000373987712           
       0.479149            0.000609354982            0.000335683073           
       0.479828             0.00205848018            0.000615522645           
       0.480507             0.00132423662            0.000497669288           
       0.481186            0.000474991979            0.000304777205           
       0.481865             0.00138546155            0.000514073269           
       0.482545            0.000655842852            0.000357848581           
       0.483224            0.000275475842            0.000233506307           
       0.483903            0.000486668351            0.000315254266           
       0.484582            0.000111126512            0.000153094253           
       0.485261            0.000677137197            0.000368335388           
       0.485940            0.000328977089            0.000267093596           
       0.486619            0.000303783596            0.000253839364           
       0.487299             0.00032962046            0.000268628887           
       0.487978            0.000323417734            0.000263378362           
       0.488657           -9.10944101e-05                         0           
       0.489336           -9.80916674e-05                         0           
       0.490015            0.000114980726            0.000161916022           
       0.490694           -6.95554103e-05                         0           
       0.491374           -0.000310049686                         0           
       0.492053           -0.000310068568                         0           
       0.492732           -0.000310087319                         0           
       0.493411           -6.54999085e-05                         0           
       0.494090           -0.000310125432                         0           
       0.494769           -5.30212038e-05                         0           
       0.495449           -0.000310163195                         0           
       0.496128             0.00021315328             0.00023584207           
       0.496807           -0.000310201129                         0           
       0.497486           -0.000310220166                         0           
       0.498165           -0.000310239477                         0           
       0.498844           -0.000310258496                         0           
       0.499524           -3.06547352e-05                         0           
       0.500203           -0.000310297017                         0           
       0.500882           -0.000310316048                         0           
       0.501561           -1.84061024e-05                         0           
       0.502240           -0.000310354483                         0           
       0.502919           -0.000310373742                         0           
       0.503599           -0.000310393078                         0           
       0.504278            0.000309724947            0.000308573563           
       0.504957           -0.000310432064                         0           
       0.505636           -0.000310451317                         0           
       0.506315           -0.000310470888                         0           
       0.506994           -0.000310490108                         0           
       0.507673            -0.00031050929                         0           
       0.508353            4.79434324e-06            3.92924172e-05           
       0.509032            4.15188704e-05            0.000121125683           
       0.509711           -0.000310567888                         0           
       0.510390           -0.000310587705                         0           
       0.511069            0.000393439862            0.000372335922           
       0.511748            4.60750961e-05            0.000128200821           
       0.512428            5.46509044e-05            0.000142270279           
       0.513107           -0.000310666446                         0           
       0.513786             6.9507073e-05            0.000164707741           
       0.514465           -0.000310705917                         0           
       0.515144           -0.000310725805                         0           
       0.515823           -0.000310745512                         0           
       0.516503            9.75981062e-05            0.000199600391           
       0.517182           -0.000310785294                         0           
       0.517861           -0.000310805136                         0           
       0.518540            -0.00031082509                         0           
       0.519219           -0.000310844928                         0           
       0.519898            0.000138063118            0.000250037391           
       0.520578           -0.000310885126                         0           
       0.521257           -0.000310905025                         0           
       0.521936           -0.000310924971                         0           
       0.522615            0.000150093794            0.000264892939           
       0.523294           -0.000310965417                         0           
       0.523973           -0.000310985398                         0           
       0.524653            0.000204163978            0.000320785115           
       0.525332           -0.000311025359                         0           
       0.526011           -0.000311045846                         0           
       0.526690           -0.000311066294                         0           
       0.527369           -0.000311086574                         0           
       0.528048           -0.000311106997                         0           
       0.528728           -0.000311127397                         0           
       0.529407           -0.000311147702                         0           
       0.530086           -0.000311167902                         0           
       0.530765            0.000239905241            0.000365683215           
       0.531444            0.000187403343            0.000307436372           
       0.532123           -0.000311229387                         0           
       0.532802           -0.000311250027                         0           
       0.533482           -0.000311270595                         0           
       0.534161           -0.000311291197                         0           
       0.534840           -0.000311311622                         0           
       0.535519           -0.000311332426                         0           
       0.536198           -0.000311353014                         0           
       0.536877           -0.000311373318                         0           
       0.537557           -0.000311393972                         0           
       0.538236           -0.000311414812                         0           
       0.538915           -0.000311435644                         0           
       0.539594           -0.000311456448                         0           
       0.540273           -0.000311477578                         0           
       0.540952            0.000976876011            0.000791149902           
       0.541632           -0.000311518984                         0           
       0.542311           -0.000311539684                         0           
       0.542990           -0.000311560616                         0           
       0.543669           -0.000311581723                         0           
       0.544348            0.000421106733            0.000550663201           
       0.545027           -0.000311623841                         0           
       0.545707           -0.000311644941                         0           
       0.546386             -0.0003116661                         0           
       0.547065           -0.000311687005                         0           
       0.547744           -0.000311708006                         0           
       0.548423           -0.000311729238                         0           
       0.549102           -0.000311750491                         0           
       0.549782           -0.000311771637                         0           
       0.550461             0.00207207707             0.00128708289           
       0.551140            -0.00031181456                         0           
       0.551819           -0.000311835832                         0           
       0.552498           -0.000311857286                         0           
       0.553177           -0.000311878371                         0           
       0.553856           -0.000311899532                         0           
       0.554536           -0.000311920762                         0           
       0.555215           -0.000311942316                         0           
       0.555894            -0.00031196382                         0           
       0.556573           -0.000311985451                         0           
       0.557252           -0.000312007064                         0           
       0.557931           -0.000312028579                         0           
       0.558611            0.000576513291            0.000731103206           
       0.559290           -0.000312072055                         0           
       0.559969           -0.000312092986                         0           
       0.560648           -0.000312114471                         0           
       0.561327           -0.000312136435                         0           
       0.562006             0.00152620759             0.00118505683           
       0.562686           -0.000312180172                         0           
       0.563365           -0.000312202127                         0           
       0.564044           -0.000312223971                         0           
       0.564723           -0.000312245768                         0           
       0.565402           -0.000312267158                         0           
       0.566081            -0.00031228869                         0           
       0.566761           -0.000312310454                         0           
       0.567440            -0.00031233266                         0           
       0.568119           -0.000312354691                         0           
       0.568798           -0.000312377031                         0           
       0.569477           -0.000312399228                         0           
       0.570156           -0.000312421533                         0           
       0.570836           -0.000312443754                         0           
       0.571515             0.00114329546             0.00129295103           
       0.572194           -0.000312487887                         0           
       0.572873           -0.000312509756                         0           
       0.573552           -0.000312531497                         0           
       0.574231           -0.000312553679                         0           
       0.574911           -0.000312576419                         0           
       0.575590           -0.000312598723                         0           
       0.576269           -0.000312620958                         0           
       0.576948            -0.00031264362                         0           
       0.577627           -0.000312665591                         0           
       0.578306           -0.000312687872                         0           
       0.578985           -0.000312710344                         0           
       0.579665           -0.000312732686                         0           
       0.580344           -0.000312755366                         0           
       0.581023           -0.000312778021                         0           
       0.581702           -0.000312800468                         0           
       0.582381            -0.00031282271                         0           
       0.583060           -0.000312845615                         0           
       0.583740           -0.000312868161                         0           
       0.584419           -0.000312890782                         0           
       0.585098           -0.000312913376                         0           
       0.585777           -0.000312936146                         0           
       0.586456           -0.000312959286                         0           
       0.587135           -0.000312981811                         0           
       0.587815           -0.000313004093                         0           
       0.588494           -0.000313027069                         0           
       0.589173           -0.000313050573                         0           
       0.589852           -0.000313072827                         0           
       0.590531           -0.000313095921                         0           
       0.591210           -0.000313118482                         0           
       0.591890           -0.000313141479                         0           
       0.592569           -0.000313163707                         0           
       0.593248           -0.000313188008                         0           
       0.593927           -0.000313211112                         0           
       0.594606           -0.000313234692                         0           
       0.595285           -0.000313256867                         0           
       0.595965            -0.00031327756                         0           
       0.596644           -0.000313298854                         0           
