################################################################################
# EDF_DataBlockID                     0.Image.Psd
# EDF_BinarySize                      4366944
# EDF_HeaderSize                      2560
# ByteOrder                           LowByteFirst
# DataType                            FloatValue
# Dim_1                               1028
# Dim_2                               1062
# Image                               0
# HeaderID                            EH:000000:000000:000000
# Size                                4366944
# Center_1                            607.5200
# Center_2                            651.5500
# Comment                             Xenocs_Cell_Window - 20251028_20perc_iodine_1.23mg
# DDummy                              0.6
# Date                                2025-10-29T15:14:22
# Delta                               0
# Dummy                               -1.5
# ExposureTime                        360
# Gamma                               0
# Intensity1                          8.50424e-10
# PSize_1                             7.5e-05
# PSize_2                             7.5e-05
# Pressure                            0.0327559
# SampleDistance                      0.450002
# SampleEnvKind                       large
# SampleEnvPN                         ElectroChemical cell
# SampleEnvSN                         1141
# Thickness                           0
# Wavelength                          1.541891e-10
# Wavelength                          1.54189e-10
# aux                                 0
# aux_dial                            0.002375
# beamx                               588.434
# beamx_dial                          588.434
# beamz                               657.808
# beamz_dial                          657.808
# det0x                               0
# det0x_dial                          6.36945
# det0xvd                             0
# det0xvd_dial                        0
# det0y                               450.002
# det0y_dial                          481.635
# det0z                               0
# det0z_dial                          1.23302
# det0zvd                             0
# det0zvd_dial                        0
# mag                                 1.818
# mag_dial                            1.818
# om                                  0.2499
# om_dial                             -0.610199
# phi                                 -0.0120535
# phi_dial                            0
# ry                                  0.599993
# ry_dial                             0.599993
# s1bot                               0.8
# s1bot_dial                          -1.66094
# s1hl                                0.8
# s1hl_dial                           -0.608437
# s1hr                                0.8
# s1hr_dial                           0.970938
# s1top                               0.8
# s1top_dial                          -0.461562
# s2bot                               0.45
# s2bot_dial                          1.36109
# s2hl                                0.45
# s2hl_dial                           -0.83375
# s2hr                                0.45
# s2hr_dial                           -0.118594
# s2top                               0.45
# s2top_dial                          1.44734
# w2theta                             32
# w2theta_dial                        32
# waxsch                              19.2605
# waxsch_dial                         -32.7355
# waxsh                               137.085
# waxsh_dial                          -43.5338
# waxsth                              26.0607
# waxsth_dial                         -19.4086
# waxsz                               67.0407
# waxsz_dial                          -23.7954
# wind                                65.9854
# wind_dial                           66.0041
# wpsi                                124
# wpsi_dial                           124
# wstod                               115
# wstod_dial                          115
# x                                   0
# x_dial                              1.00969
# z                                   0
# z_dial                              13.3172
# CountCutoff                         15302352
# DetectorModel                       Dectris EIGER2 Si 1M, S/N E-02-0362
# ThresholdSetting                    4023.88989258
# Saturation                          0
# FlatField                           Corrected
# BackgroundReductionExtra            0.02
# BackgroundCorrectionConstant        0.0026712
# Detector                            0
# Monitor                             0
# Pil_Roi0                            0
# SumForIntensity1                    3.06153e+08
# TransmittedFlux                     850424
# det                                 0
# mon                                 0
# pilai0                              3.06153e+08
# pilai1                              766568
# pilct0                              5.30767e+08
# pilct1                              766568
# pilroi0                             0
# pilroi1                             0
# sec                                 1
# title                               20251028_20perc_iodine_1.23mg_0_00226.edf
# usaxs0                              0
# Operation                           Azimuthal average I(q)
# Error_model                         ErrorModel.poisson
# Geometrical_correction              True
# Transmission_correction             True
# Thickness_correction                False
# Binning mode                        Uniform
# Binning factor                      1.0
# Psi                                 0.0
# Omega                               0.2499
# MaskInvalidPixels                   True
# DetectorEdge                        3
# MaskFiles                           ['20251028_20perc_iodine_1.23mg_0_00012_mask.edf']
################################################################################
    q(A⁻¹)                Intensity(a.u.)            Sigma_I(a.u.)            
       0.000340                371912.583                120.738004           
       0.001019                359453.011                72.6875894           
       0.001698                350378.875                 50.744993           
       0.002377                330889.659                44.1073414           
       0.003056                307655.392                35.9449268           
       0.003735                253347.232                28.7667815           
       0.004415                205317.894                25.8968354           
       0.005094                153770.651                19.4088935           
       0.005773                101678.985                14.6118904           
       0.006452                59280.5046                10.6899584           
       0.007131                32389.9414                7.65479509           
       0.007810                16174.4294                5.36818995           
       0.008490                8062.37995                3.35952256           
       0.009169                3855.82847                2.29612456           
       0.009848                1178.52693                 1.2273316           
       0.010527                450.949783                0.75920055           
       0.011206                114.793732               0.365582181           
       0.011885                53.4360529               0.231745434           
       0.012564                25.2747866               0.163632482           
       0.013244                17.2083361               0.126227849           
       0.013923                12.4517224               0.109106373           
       0.014602                9.65972987              0.0891256726           
       0.015281                7.55453273              0.0802329955           
       0.015960                6.17030496              0.0719910398           
       0.016639                4.94588092              0.0608641528           
       0.017319                4.22733236              0.0553943827           
       0.017998                3.49420547              0.0481812555           
       0.018677                 2.9575599              0.0459109011           
       0.019356                2.48327953              0.0415681744           
       0.020035                2.17620921              0.0365083098           
       0.020714                 1.8846948              0.0343347711           
       0.021394                1.60742463               0.030001903           
       0.022073                1.44294057              0.0295744771           
       0.022752                1.25807778              0.0264167949           
       0.023431                 1.1075708              0.0240596564           
       0.024110                1.01323722              0.0239919722           
       0.024789               0.898521109              0.0209823788           
       0.025469               0.857110393              0.0211184009           
       0.026148               0.782657936              0.0189611024           
       0.026827               0.682047352              0.0179837274           
       0.027506               0.633942555              0.0175879583           
       0.028185               0.541815978               0.015506104           
       0.028864               0.532981984              0.0152928828           
       0.029544               0.487933707              0.0141892444           
       0.030223               0.412951974              0.0132407316           
       0.030902               0.415882793              0.0134092323           
       0.031581               0.352738165              0.0117394213           
       0.032260               0.348097719              0.0118606546           
       0.032939               0.325065792              0.0110514408           
       0.033619               0.290635775              0.0106033736           
       0.034298               0.279930661              0.0101269799           
       0.034977               0.249104867             0.00936539361           
       0.035656               0.231160188             0.00926053318           
       0.036335                0.21692639             0.00870064177           
       0.037014               0.203816849             0.00845879793           
       0.037693               0.191599335             0.00788959542           
       0.038373               0.177677348             0.00767211138           
       0.039052               0.159753497             0.00730580244           
       0.039731               0.154960339             0.00702768356           
       0.040410                0.17025504             0.00731695463           
       0.041089               0.148085269             0.00671706493           
       0.041768               0.130581413              0.0063405564           
       0.042448               0.130338996             0.00628551418           
       0.043127                0.13159525             0.00616656805           
       0.043806               0.130220893             0.00618002084           
       0.044485               0.117547546             0.00575097675           
       0.045164               0.114658839             0.00579181781           
       0.045843               0.106884798             0.00536343001           
       0.046523               0.108949886             0.00543369345           
       0.047202               0.112134509             0.00555105607           
       0.047881              0.0980075059             0.00508954282           
       0.048560              0.0931528261             0.00500711631           
       0.049239              0.0984985056             0.00494375963           
       0.049918              0.0923753782              0.0048812238           
       0.050598              0.0898279439             0.00474123159           
       0.051277              0.0844996598             0.00458387356           
       0.051956              0.0800120736             0.00443248322           
       0.052635              0.0801136646             0.00434117006           
       0.053314              0.0772392603             0.00438720523           
       0.053993              0.0768024038             0.00425479304           
       0.054673               0.075935066             0.00413645885           
       0.055352              0.0727923944               0.004109446           
       0.056031              0.0750080912             0.00408387052           
       0.056710              0.0713589784             0.00408090303           
       0.057389              0.0706600618             0.00391594071           
       0.058068              0.0667987238              0.0038466894           
       0.058748              0.0705707571              0.0040031269           
       0.059427              0.0660252853             0.00380650285           
       0.060106              0.0668243751             0.00386571275           
       0.060785              0.0678557778               0.003778715           
       0.061464              0.0629654485             0.00372774168           
       0.062143              0.0542073797             0.00342365229           
       0.062822              0.0619871069             0.00361813396           
       0.063502              0.0505711473             0.00326218622           
       0.064181              0.0554244008             0.00337907174           
       0.064860              0.0534377795             0.00336849567           
       0.065539              0.0557946388             0.00340832025           
       0.066218              0.0511451486              0.0031933488           
       0.066897              0.0510913839              0.0032163085           
       0.067577              0.0500603762             0.00321427747           
       0.068256               0.045075334             0.00312496464           
       0.068935              0.0476448254             0.00316084943           
       0.069614              0.0494050599             0.00325075017           
       0.070293              0.0470970075             0.00320317641           
       0.070972              0.0419107396              0.0029995446           
       0.071652               0.047412941             0.00319622226           
       0.072331              0.0437056974             0.00301403017           
       0.073010               0.040017746             0.00294996191           
       0.073689               0.040703796             0.00295879218           
       0.074368               0.041596494             0.00298562191           
       0.075047              0.0435858891              0.0030233341           
       0.075727              0.0445455042              0.0030375569           
       0.076406              0.0373001722             0.00283503073           
       0.077085              0.0348822777             0.00269036742           
       0.077764              0.0414519771             0.00292251905           
       0.078443              0.0390368619             0.00285366355           
       0.079122              0.0323325578             0.00257213088           
       0.079802              0.0351401583              0.0027099215           
       0.080481              0.0392588303             0.00276771407           
       0.081160              0.0390754483             0.00281790321           
       0.081839              0.0349750967             0.00262327857           
       0.082518              0.0374837053             0.00271801478           
       0.083197              0.0412727232             0.00280776745           
       0.083876              0.0297798609             0.00234538315           
       0.084556              0.0322146711             0.00250722109           
       0.085235               0.033611203             0.00251151021           
       0.085914              0.0314269351             0.00245212392           
       0.086593              0.0332697954             0.00250675727           
       0.087272              0.0282648772             0.00227786563           
       0.087951              0.0319067645              0.0024748395           
       0.088631              0.0317129794             0.00238327468           
       0.089310               0.030060934              0.0023695813           
       0.089989              0.0337958614             0.00248310426           
       0.090668              0.0307633162             0.00239523062           
       0.091347              0.0286804059             0.00232567043           
       0.092026              0.0311616885             0.00231713013           
       0.092706              0.0277815026             0.00226726403           
       0.093385              0.0310385815             0.00235968628           
       0.094064              0.0279660935             0.00226592023           
       0.094743              0.0310166149             0.00234993962           
       0.095422              0.0293922489             0.00226206903           
       0.096101              0.0257998706             0.00216297634           
       0.096781              0.0241734607             0.00206371198           
       0.097460              0.0312421943              0.0022821222           
       0.098139              0.0294116713             0.00219721911           
       0.098818              0.0307505769             0.00221900701           
       0.099497              0.0260657971             0.00204719072           
       0.100176              0.0285999007             0.00208811596           
       0.100856              0.0312979646             0.00218299135           
       0.101535              0.0263443977             0.00199893971           
       0.102214              0.0286222018             0.00208357803           
       0.102893              0.0256999402             0.00195185539           
       0.103572              0.0249748745             0.00189569995           
       0.104251              0.0268252605             0.00197192931           
       0.104931              0.0272316177             0.00196872086           
       0.105610              0.0260318373             0.00193307389           
       0.106289              0.0251495939             0.00186841506           
       0.106968              0.0249087584             0.00186496588           
       0.107647              0.0269874331             0.00194238904           
       0.108326              0.0267162077              0.0019067497           
       0.109005              0.0231823242             0.00176499581           
       0.109685              0.0249689351             0.00181119913           
       0.110364              0.0252777557             0.00184306366           
       0.111043              0.0222841977             0.00172363065           
       0.111722              0.0238342921             0.00176078307           
       0.112401              0.0195360424             0.00159856039           
       0.113080              0.0235279507             0.00173419237           
       0.113760              0.0220842823             0.00170820837           
       0.114439              0.0228601392             0.00171315179           
       0.115118              0.0229090744             0.00170205302           
       0.115797              0.0237393604             0.00174867316           
       0.116476              0.0244699805             0.00174880621           
       0.117155              0.0198382799             0.00158732401           
       0.117835               0.024149165             0.00171650075           
       0.118514              0.0242589027             0.00174221009           
       0.119193              0.0243658338             0.00174605821           
       0.119872              0.0219482001             0.00163644664           
       0.120551              0.0248119762             0.00172834533           
       0.121230              0.0217050936             0.00160025094           
       0.121910              0.0209248504             0.00158641068           
       0.122589              0.0198649372             0.00154730288           
       0.123268              0.0237399916             0.00165873004           
       0.123947              0.0178383275             0.00144714548           
       0.124626              0.0218569909             0.00158229529           
       0.125305              0.0184795079             0.00146205447           
       0.125985              0.0209652161               0.001545201           
       0.126664              0.0190920811             0.00146051255           
       0.127343                0.01874772             0.00146405696           
       0.128022              0.0203632145             0.00151412955           
       0.128701              0.0201623482             0.00149879482           
       0.129380              0.0192046316             0.00144444475           
       0.130059              0.0177804423             0.00139308187           
       0.130739              0.0194470765              0.0014671547           
       0.131418              0.0208826667             0.00151608694           
       0.132097              0.0185448796               0.001410384           
       0.132776              0.0192066501             0.00142884801           
       0.133455              0.0226341622             0.00156316022           
       0.134134              0.0195215187             0.00144708099           
       0.134814              0.0214113741             0.00149989288           
       0.135493              0.0222797395             0.00153619749           
       0.136172              0.0211450388             0.00148526954           
       0.136851              0.0190939174             0.00141960345           
       0.137530              0.0197488195             0.00140944273           
       0.138209              0.0180913009             0.00136483737           
       0.138889              0.0199067083             0.00143799013           
       0.139568              0.0181718225             0.00137330716           
       0.140247              0.0204772113             0.00145590935           
       0.140926              0.0202290418             0.00140568449           
       0.141605              0.0186816072             0.00138516995           
       0.142284              0.0182095858             0.00134489731           
       0.142964              0.0208495724             0.00144459326           
       0.143643              0.0191449291             0.00138253112           
       0.144322              0.0192927528             0.00135881696           
       0.145001              0.0205872631             0.00143247584           
       0.145680              0.0175042271             0.00128961844           
       0.146359              0.0187016881             0.00133787614           
       0.147039              0.0175718019             0.00130750846           
       0.147718               0.019307983             0.00134796505           
       0.148397              0.0199513626             0.00139153205           
       0.149076              0.0188770445             0.00131155949           
       0.149755              0.0178857134             0.00129636906           
       0.150434              0.0179981883             0.00130096957           
       0.151114              0.0203016265             0.00137407161           
       0.151793              0.0197386374             0.00135489787           
       0.152472              0.0184208619             0.00128576902           
       0.153151              0.0242798905             0.00149042414           
       0.153830              0.0167117541             0.00122750075           
       0.154509              0.0189671776              0.0013022558           
       0.155188              0.0164607733             0.00121271713           
       0.155868              0.0167721155             0.00121542115           
       0.156547              0.0181355849             0.00127197751           
       0.157226              0.0152877506             0.00113932156           
       0.157905               0.015983869             0.00117475725           
       0.158584              0.0172022964             0.00121649598           
       0.159263              0.0159563898             0.00117592553           
       0.159943              0.0196395866             0.00130557689           
       0.160622              0.0189457179             0.00125755974           
       0.161301              0.0174923682             0.00122452511           
       0.161980              0.0166381121             0.00117394741           
       0.162659              0.0161119954             0.00116804197           
       0.163338              0.0180072455             0.00122476612           
       0.164018              0.0162387505             0.00115696547           
       0.164697              0.0171099955             0.00120284601           
       0.165376               0.017947581             0.00120501944           
       0.166055              0.0172041713             0.00118757966           
       0.166734              0.0143898153             0.00108124391           
       0.167413              0.0176229093             0.00119739883           
       0.168093              0.0161826629             0.00115828076           
       0.168772              0.0159081666             0.00111482985           
       0.169451              0.0154792286             0.00111992995           
       0.170130              0.0177343336             0.00118299898           
       0.170809              0.0180983029             0.00120933895           
       0.171488              0.0157750669             0.00111876145           
       0.172168              0.0160098742             0.00111622957           
       0.172847              0.0171682524             0.00117109019           
       0.173526              0.0194961808             0.00122415718           
       0.174205              0.0150926337             0.00108203296           
       0.174884              0.0161038772             0.00111187016           
       0.175563              0.0176103136             0.00116767698           
       0.176243              0.0190027772             0.00122510242           
       0.176922              0.0167515485             0.00112027221           
       0.177601              0.0175774954             0.00116016924           
       0.178280              0.0162395102             0.00110269185           
       0.178959               0.017626835             0.00115806802           
       0.179638              0.0191127015             0.00120241808           
       0.180317              0.0164432424             0.00110716613           
       0.180997              0.0166853417             0.00112134047           
       0.181676              0.0172374117              0.0011275706           
       0.182355              0.0167839726             0.00111932353           
       0.183034               0.016945773             0.00110665518           
       0.183713              0.0161233465             0.00109261288           
       0.184392              0.0159441299             0.00108619485           
       0.185072              0.0161583768             0.00108100645           
       0.185751              0.0146480451             0.00103210948           
       0.186430              0.0175983685             0.00112336169           
       0.187109              0.0182295581             0.00115606267           
       0.187788              0.0149859734             0.00104559564           
       0.188467              0.0161419464             0.00107233157           
       0.189147              0.0158200519             0.00107233638           
       0.189826              0.0157982644             0.00105264786           
       0.190505              0.0178694617             0.00113795486           
       0.191184              0.0157943647             0.00105442492           
       0.191863              0.0157736014              0.0010559515           
       0.192542              0.0157278265             0.00106436162           
       0.193222              0.0169442934             0.00107999876           
       0.193901               0.017115121             0.00109997787           
       0.194580              0.0161991493             0.00105141929           
       0.195259              0.0167986158             0.00108299377           
       0.195938              0.0167857683             0.00108516394           
       0.196617              0.0155775292             0.00103078757           
       0.197297              0.0149321899             0.00101333095           
       0.197976              0.0178287018             0.00109025155           
       0.198655              0.0157411361             0.00103562587           
       0.199334              0.0161360964             0.00103929106           
       0.200013              0.0150585155              0.0010034325           
       0.200692              0.0163261582             0.00105109878           
       0.201371              0.0187188906             0.00111281439           
       0.202051              0.0167194378             0.00105497451           
       0.202730              0.0171497127             0.00105779148           
       0.203409              0.0151519414             0.00100094769           
       0.204088              0.0157810166             0.00102038508           
       0.204767              0.0155411744             0.00100727931           
       0.205446              0.0148263694            0.000985764629           
       0.206126               0.016583109              0.0010283666           
       0.206805              0.0158174965             0.00102275934           
       0.207484              0.0137808392            0.000937483918           
       0.208163              0.0157487437             0.00100820967           
       0.208842              0.0158845473             0.00100980348           
       0.209521              0.0135067734            0.000923423454           
       0.210201              0.0163976218             0.00102880975           
       0.210880              0.0147621253            0.000957000533           
       0.211559              0.0148817339             0.00097507623           
       0.212238              0.0153481773            0.000985200561           
       0.212917              0.0120488708            0.000869666672           
       0.213596              0.0148539717            0.000971317728           
       0.214276              0.0145366097            0.000940866751           
       0.214955              0.0156716639            0.000997452714           
       0.215634              0.0148176408            0.000962942875           
       0.216313              0.0143896804            0.000946942599           
       0.216992              0.0153949648            0.000979216345           
       0.217671              0.0146056306            0.000947322241           
       0.218351              0.0154730529            0.000984583174           
       0.219030              0.0146104322            0.000941642466           
       0.219709               0.012458435            0.000874957299           
       0.220388               0.014554063             0.00094447171           
       0.221067              0.0166796275             0.00101189204           
       0.221746              0.0151155013            0.000962292702           
       0.222426              0.0118699035            0.000840001451           
       0.223105              0.0139118523            0.000921776409           
       0.223784              0.0145196823            0.000932357172           
       0.224463              0.0151182297            0.000958956929           
       0.225142              0.0157077969            0.000962010262           
       0.225821              0.0156571941            0.000964328218           
       0.226500              0.0144880251            0.000933523292           
       0.227180              0.0155390626            0.000951897179           
       0.227859              0.0130226406            0.000875328593           
       0.228538              0.0146632994            0.000919505725           
       0.229217              0.0146624335            0.000926756717           
       0.229896              0.0144209729            0.000918651661           
       0.230575              0.0135675521             0.00087685062           
       0.231255              0.0154392942            0.000949385377           
       0.231934              0.0149840495            0.000928893985           
       0.232613              0.0155738451            0.000950492773           
       0.233292              0.0130394298            0.000861318358           
       0.233971              0.0151398324             0.00092766723           
       0.234650              0.0135978138            0.000889497567           
       0.235330              0.0142087882            0.000901321401           
       0.236009              0.0157262753            0.000946186963           
       0.236688               0.015609784            0.000939302472           
       0.237367              0.0148070355            0.000916160146           
       0.238046                0.01523807            0.000935944532           
       0.238725              0.0151504538            0.000918851881           
       0.239405              0.0155672148            0.000937179715           
       0.240084              0.0153789813            0.000925565046           
       0.240763              0.0129622239            0.000857870305           
       0.241442              0.0159348753            0.000937763402           
       0.242121              0.0149447054            0.000909874778           
       0.242800              0.0148890791            0.000912479366           
       0.243480               0.015126405            0.000915416485           
       0.244159              0.0135401557            0.000866508419           
       0.244838              0.0148333667            0.000892021276           
       0.245517              0.0128637223            0.000842638535           
       0.246196              0.0144128579            0.000892364735           
       0.246875               0.014811844            0.000892021542           
       0.247554              0.0138860857            0.000872473514           
       0.248234              0.0145497473            0.000879537496           
       0.248913              0.0140170017             0.00087296857           
       0.249592              0.0132117944            0.000839470383           
       0.250271              0.0135732727            0.000848406255           
       0.250950                0.01390063            0.000863834785           
       0.251629              0.0146032567            0.000877872189           
       0.252309              0.0155275857            0.000907066096           
       0.252988              0.0143672562            0.000857487484           
       0.253667              0.0133573903            0.000836462539           
       0.254346              0.0130659282            0.000827116037           
       0.255025               0.013120264            0.000827018467           
       0.255704              0.0138216631            0.000844948809           
       0.256384              0.0132787518            0.000825322739           
       0.257063              0.0128622922            0.000816908559           
       0.257742              0.0128253927            0.000810083851           
       0.258421              0.0120218739            0.000782787641           
       0.259100              0.0133847153             0.00082740688           
       0.259779              0.0131538349            0.000819544321           
       0.260459               0.013200408            0.000822606156           
       0.261138              0.0126659182             0.00079003341           
       0.261817              0.0102456265            0.000724895947           
       0.262496              0.0110797063            0.000746432143           
       0.263175              0.0133528872            0.000821193699           
       0.263854              0.0119817325            0.000774275341           
       0.264534              0.0116126775            0.000755747389           
       0.265213              0.0131030861            0.000815432237           
       0.265892              0.0121785346            0.000776065843           
       0.266571              0.0134598319            0.000814014466           
       0.267250              0.0140839602            0.000834076114           
       0.267929               0.012388791            0.000781469814           
       0.268609               0.011335454            0.000751603177           
       0.269288              0.0127256762            0.000783130953           
       0.269967              0.0123798561            0.000780739109           
       0.270646              0.0117334376            0.000756796878           
       0.271325              0.0126586437            0.000787381178           
       0.272004              0.0122907227            0.000768120272           
       0.272683               0.013868851            0.000816952947           
       0.273363              0.0114197194            0.000746045991           
       0.274042              0.0132097853            0.000797656409           
       0.274721              0.0115609238            0.000745773057           
       0.275400              0.0117281567            0.000746174257           
       0.276079              0.0112176541            0.000733897573           
       0.276758               0.012164205            0.000773878222           
       0.277438              0.0119867483            0.000759589324           
       0.278117              0.0114890449            0.000757174965           
       0.278796              0.0115491796            0.000751448278           
       0.279475              0.0100203317            0.000711508792           
       0.280154              0.0120814707            0.000770028406           
       0.280833              0.0117771094             0.00076489051           
       0.281513              0.0119860977            0.000783753382           
       0.282192              0.0106509574            0.000726209134           
       0.282871              0.0108381241            0.000737681086           
       0.283550             0.00976123062            0.000703825548           
       0.284229              0.0115629837            0.000777284413           
       0.284908              0.0100680616             0.00073295069           
       0.285588              0.0119471861            0.000789076313           
       0.286267             0.00961466982            0.000719204029           
       0.286946              0.0101217274            0.000733126258           
       0.287625              0.0103055744            0.000752349983           
       0.288304              0.0114773601            0.000783344357           
       0.288983             0.00969542763            0.000729088785           
       0.289663              0.0102057258            0.000752407873           
       0.290342              0.0106943069            0.000766107502           
       0.291021              0.0108170528            0.000774642541           
       0.291700              0.0109537356            0.000769337978           
       0.292379               0.010238066             0.00076081052           
       0.293058             0.00982808588            0.000742605979           
       0.293738             0.00937063028            0.000719028361           
       0.294417             0.00921778277            0.000721429069           
       0.295096             0.00984246764            0.000737278606           
       0.295775             0.00891440575            0.000712374263           
       0.296454              0.0105937375            0.000766536137           
       0.297133              0.0100250705            0.000749206517           
       0.297812               0.009792872            0.000744193077           
       0.298492              0.0115254544            0.000808905713           
       0.299171             0.00940488491            0.000729328519           
       0.299850             0.00994699743            0.000744932057           
       0.300529             0.00952961649            0.000737349046           
       0.301208             0.00953223327            0.000739244766           
       0.301887             0.00957348189            0.000739962139           
       0.302567              0.0096815561             0.00074040025           
       0.303246             0.00976043999            0.000748264051           
       0.303925             0.00909525446            0.000731590997           
       0.304604             0.00969907469            0.000739172307           
       0.305283              0.0104133192            0.000777264673           
       0.305962             0.00935178944            0.000732133203           
       0.306642             0.00885888905            0.000722255788           
       0.307321             0.00779088732            0.000675158679           
       0.308000             0.00972930326            0.000745546459           
       0.308679             0.00921468423            0.000741273698           
       0.309358               0.009468304            0.000741241311           
       0.310037             0.00934621388            0.000738087641           
       0.310717              0.0078851985            0.000677295748           
       0.311396             0.00946500404            0.000747025404           
       0.312075             0.00851394329            0.000717485412           
       0.312754             0.00832342334            0.000695220086           
       0.313433               0.008003993            0.000687678475           
       0.314112             0.00830200706            0.000700202938           
       0.314792             0.00728694489            0.000660634441           
       0.315471              0.0087784334            0.000716131444           
       0.316150             0.00967660506            0.000758833697           
       0.316829             0.00823469478            0.000704640039           
       0.317508             0.00928006126            0.000739636145           
       0.318187             0.00807526251            0.000699057056           
       0.318866             0.00798188171            0.000685640971           
       0.319546              0.0101601804             0.00078515693           
       0.320225              0.0102796188            0.000789773859           
       0.320904             0.00748889193            0.000663675035           
       0.321583             0.00902093743            0.000744454525           
       0.322262             0.00867273979            0.000718882586           
       0.322941             0.00743310434            0.000674052321           
       0.323621             0.00890448932            0.000733254077           
       0.324300              0.0078342723            0.000688318695           
       0.324979             0.00882744785            0.000731968276           
       0.325658             0.00953193132            0.000761995312           
       0.326337             0.00767361302            0.000684586444           
       0.327016             0.00847681021            0.000714954843           
       0.327696             0.00645138009            0.000630655454           
       0.328375             0.00670649926            0.000637578251           
       0.329054             0.00882375206            0.000735294513           
       0.329733             0.00738382177            0.000675084938           
       0.330412             0.00787091393            0.000691285306           
       0.331091             0.00771753816            0.000696933605           
       0.331771             0.00665743849              0.0006303386           
       0.332450             0.00667714694            0.000643527184           
       0.333129             0.00731224303            0.000671698909           
       0.333808             0.00765322402             0.00068808989           
       0.334487             0.00698881173            0.000660661345           
       0.335166             0.00598082917            0.000602219659           
       0.335846              0.0060119611             0.00061439542           
       0.336525              0.0068167103            0.000647766057           
       0.337204             0.00647830811             0.00063313838           
       0.337883              0.0068777578            0.000653230682           
       0.338562              0.0075229537            0.000686974649           
       0.339241             0.00702854304            0.000665261221           
       0.339921             0.00514861916            0.000559835072           
       0.340600             0.00744379823            0.000685933696           
       0.341279              0.0074717841            0.000679862923           
       0.341958             0.00686520821            0.000660876613           
       0.342637             0.00789405535              0.0006986578           
       0.343316             0.00602018735            0.000611892317           
       0.343995             0.00621960181            0.000632127815           
       0.344675             0.00709414605            0.000662701688           
       0.345354             0.00594555842            0.000610688357           
       0.346033             0.00584931165            0.000604146283           
       0.346712             0.00540871701            0.000584654374           
       0.347391              0.0056323102            0.000600310758           
       0.348070             0.00860758115            0.000731579576           
       0.348750             0.00543286891            0.000589611642           
       0.349429             0.00633791036            0.000628610047           
       0.350108             0.00644633173            0.000641592779           
       0.350787             0.00695813837            0.000655251637           
       0.351466             0.00689106401            0.000664097976           
       0.352145               0.004982755            0.000565176404           
       0.352825             0.00641017271            0.000638134904           
       0.353504             0.00627814994            0.000631374383           
       0.354183             0.00576189359            0.000597889783           
       0.354862             0.00518706004            0.000580464322           
       0.355541              0.0063147793              0.0006320751           
       0.356220             0.00564133763            0.000598549683           
       0.356900             0.00718768468            0.000682039162           
       0.357579             0.00648351284            0.000639825873           
       0.358258             0.00570240714            0.000608351392           
       0.358937             0.00518200578            0.000569025483           
       0.359616             0.00615780325            0.000628953209           
       0.360295             0.00790155529            0.000713055561           
       0.360975             0.00572997155             0.00060461923           
       0.361654             0.00566304411            0.000604176665           
       0.362333             0.00535062143            0.000584288271           
       0.363012             0.00543098147            0.000596233459           
       0.363691             0.00597398969            0.000612993023           
       0.364370             0.00572834328            0.000607704331           
       0.365050             0.00439076507            0.000529197459           
       0.365729             0.00604641528            0.000626928518           
       0.366408             0.00476379903            0.000557707271           
       0.367087             0.00650692198            0.000641350407           
       0.367766             0.00481622267            0.000563270202           
       0.368445             0.00551576095            0.000592087963           
       0.369124             0.00555048189            0.000598614481           
       0.369804             0.00432136378            0.000527347406           
       0.370483             0.00480320483            0.000558403358           
       0.371162             0.00557600823            0.000605138531           
       0.371841             0.00474066827            0.000548244065           
       0.372520             0.00514435795            0.000582557657           
       0.373199             0.00475752951            0.000553533808           
       0.373879             0.00402899253            0.000515289093           
       0.374558             0.00486799576            0.000558140771           
       0.375237             0.00365954783            0.000484723093           
       0.375916             0.00407927042            0.000521569864           
       0.376595             0.00609453239            0.000625056548           
       0.377274             0.00437179998            0.000537868288           
       0.377954             0.00570545241            0.000604803572           
       0.378633              0.0055945301            0.000606463984           
       0.379312             0.00427518139            0.000530018255           
       0.379991             0.00409597703            0.000516105693           
       0.380670             0.00410621965            0.000525884022           
       0.381349              0.0047746876            0.000558933863           
       0.382029             0.00432101885             0.00053933617           
       0.382708             0.00366179973            0.000485651607           
       0.383387             0.00506007562            0.000583832519           
       0.384066             0.00449549278             0.00054524941           
       0.384745             0.00321625489            0.000463004999           
       0.385424             0.00431064757            0.000537841435           
       0.386104             0.00454324344             0.00054605941           
       0.386783             0.00420781362            0.000536881853           
       0.387462             0.00476157904             0.00055691052           
       0.388141             0.00404709768            0.000521630974           
       0.388820             0.00568957975             0.00061401763           
       0.389499              0.0040930834            0.000523725905           
       0.390178             0.00434841626            0.000541963868           
       0.390858             0.00531513316            0.000594337841           
       0.391537             0.00402592866            0.000522542436           
       0.392216             0.00358168129            0.000486691843           
       0.392895             0.00406603878            0.000520303786           
       0.393574             0.00498120097            0.000574460817           
       0.394253              0.0040828023            0.000522422589           
       0.394933             0.00474089585            0.000569387099           
       0.395612             0.00380156228            0.000495058456           
       0.396291             0.00363301895            0.000493812552           
       0.396970             0.00403287879            0.000515668873           
       0.397649             0.00472033663            0.000559609262           
       0.398328             0.00421435932            0.000526442602           
       0.399008              0.0043833004            0.000535723864           
       0.399687             0.00442416316            0.000540308281           
       0.400366             0.00360754724            0.000486035283           
       0.401045             0.00450283682            0.000541979658           
       0.401724             0.00544524693            0.000596998155           
       0.402403             0.00380019016            0.000502618724           
       0.403083             0.00387602127            0.000500289191           
       0.403762             0.00398124575            0.000509534799           
       0.404441             0.00423953979            0.000529152652           
       0.405120              0.0031568193            0.000455113773           
       0.405799             0.00383151239            0.000499217057           
       0.406478             0.00286250003             0.00043150711           
       0.407158             0.00394822271            0.000505824885           
       0.407837             0.00329195438            0.000465953635           
       0.408516              0.0036140352             0.00048396878           
       0.409195             0.00466831079             0.00055628829           
       0.409874             0.00313838564            0.000462459793           
       0.410553             0.00423876873            0.000543233584           
       0.411233             0.00420287007            0.000538125479           
       0.411912             0.00356099272            0.000502350114           
       0.412591             0.00339186576            0.000493520396           
       0.413270              0.0027398818            0.000441452044           
       0.413949             0.00243423663             0.00042064592           
       0.414628             0.00344199068            0.000499297828           
       0.415307             0.00300592182            0.000471789082           
       0.415987             0.00382791903            0.000528015611           
       0.416666             0.00326954993            0.000485052252           
       0.417345             0.00302556364            0.000474395094           
       0.418024              0.0031712842            0.000485697298           
       0.418703             0.00419523774            0.000557606481           
       0.419382             0.00290393817            0.000461646734           
       0.420062             0.00233013652            0.000414688378           
       0.420741             0.00266004561            0.000445429727           
       0.421420             0.00291229696            0.000467839008           
       0.422099             0.00282351077             0.00046066436           
       0.422778             0.00392185533            0.000545859872           
       0.423457             0.00297848416            0.000478611508           
       0.424137             0.00183716868            0.000369763591           
       0.424816             0.00222875259            0.000415779866           
       0.425495             0.00277100983            0.000463170099           
       0.426174             0.00245371894            0.000435999439           
       0.426853             0.00189297629              0.0003806274           
       0.427532             0.00286820582            0.000472486079           
       0.428212             0.00227363633            0.000423449677           
       0.428891             0.00265651306            0.000456676176           
       0.429570             0.00179761713            0.000375922068           
       0.430249             0.00246800644            0.000438189187           
       0.430928              0.0016927901            0.000370838313           
       0.431607             0.00273255324            0.000463063227           
       0.432287             0.00206109652            0.000405111262           
       0.432966             0.00315703182            0.000505787385           
       0.433645             0.00195437179            0.000398368872           
       0.434324             0.00336359091            0.000519466532           
       0.435003             0.00177067728            0.000377543345           
       0.435682             0.00148290235            0.000348337937           
       0.436361             0.00261133209            0.000461629892           
       0.437041              0.0021205435            0.000415438264           
       0.437720             0.00132666466            0.000330181868           
       0.438399             0.00142952734            0.000344531754           
       0.439078             0.00240686585            0.000460016629           
       0.439757             0.00311916873            0.000520455133           
       0.440436             0.00257277507            0.000483329858           
       0.441116             0.00305754638            0.000535517144           
       0.441795              0.0018383918              0.0004157467           
       0.442474             0.00241854526            0.000478185275           
       0.443153             0.00233694086             0.00048101486           
       0.443832             0.00205612109            0.000451950008           
       0.444511             0.00173399832             0.00041317032           
       0.445191             0.00175442813            0.000425705814           
       0.445870              0.0032956127            0.000583474305           
       0.446549             0.00179065149            0.000434625178           
       0.447228             0.00123836503            0.000359395553           
       0.447907             0.00181238073            0.000440000641           
       0.448586             0.00179876138            0.000448891335           
       0.449266             0.00142629075            0.000396045654           
       0.449945              0.0018518268            0.000449434458           
       0.450624             0.00260961069            0.000541996667           
       0.451303             0.00221153929            0.000505416669           
       0.451982              0.0022831252            0.000510356906           
       0.452661             0.00263597237            0.000558593732           
       0.453341             0.00266039848            0.000563142458           
       0.454020             0.00159189816            0.000436278573           
       0.454699             0.00271054917            0.000574491227           
       0.455378             0.00138653019             0.00041110468           
       0.456057             0.00270546843            0.000584473508           
       0.456736             0.00242364018             0.00055146922           
       0.457416             0.00217187432            0.000522055749           
       0.458095              0.0025005485            0.000568273306           
       0.458774             0.00153325854            0.000450867819           
       0.459453             0.00221542267            0.000544696639           
       0.460132             0.00209927825            0.000518775657           
       0.460811             0.00257519135            0.000596015744           
       0.461490             0.00156890222            0.000460480589           
       0.462170             0.00288162984            0.000633807663           
       0.462849             0.00151795348            0.000462993954           
       0.463528             0.00164599857            0.000481008268           
       0.464207             0.00127879159            0.000431905509           
       0.464886            0.000817959934            0.000342736172           
       0.465565             0.00157474463            0.000480777084           
       0.466245             0.00144729868            0.000462342005           
       0.466924            0.000759228736            0.000342775787           
       0.467603             0.00159675702            0.000486555501           
       0.468282            0.000911961402            0.000376425872           
       0.468961             0.00156378179            0.000496161414           
       0.469640             0.00189292041            0.000548062622           
       0.470320             0.00126693407            0.000448684517           
       0.470999             0.00097077765            0.000396461483           
       0.471678            0.000824694272            0.000368928441           
       0.472357             0.00117481387            0.000441561213           
       0.473036            0.000506180205            0.000291669932           
       0.473715            0.000357491643            0.000247033715           
       0.474395            0.000553938595            0.000311757064           
       0.475074              0.0005540793            0.000311805738           
       0.475753             0.00174337356            0.000548314453           
       0.476432             0.00151531831            0.000529805305           
       0.477111            0.000393221541            0.000266623942           
       0.477790            0.000770070661              0.0003751112           
       0.478470            0.000238246941            0.000211404398           
       0.479149            6.50229507e-05            0.000111584182           
       0.479828             0.00100160443            0.000436911874           
       0.480507            0.000257226037            0.000223198127           
       0.481186            7.81820381e-05            0.000125825272           
       0.481865            0.000650533383            0.000358457453           
       0.482545            0.000483617428            0.000312698224           
       0.483224            8.82687568e-05            0.000134504062           
       0.483903            0.000304661185            0.000253821276           
       0.484582           -0.000109134334                         0           
       0.485261            8.45108151e-05            0.000132414728           
       0.485940              0.0005536417            0.000352590076           
       0.486619            0.000117924787            0.000160936444           
       0.487299             0.00012894996            0.000170974474           
       0.487978             0.00098762555             0.00046834876           
       0.488657            0.000385709653            0.000304764851           
       0.489336           -0.000320997975                         0           
       0.490015            0.000356840175             0.00029026135           
       0.490694           -0.000321037079                         0           
       0.491374           -0.000321056431                         0           
       0.492053           -0.000321075983                         0           
       0.492732             -0.0003210954                         0           
       0.493411            0.000177168555            0.000213100286           
       0.494090           -0.000321134866                         0           
       0.494769           -5.14333697e-05                         0           
       0.495449           -0.000321173969                         0           
       0.496128           -5.21533945e-05                         0           
       0.496807            -0.00032121325                         0           
       0.497486           -0.000321232963                         0           
       0.498165           -0.000321252959                         0           
       0.498844           -0.000321272654                         0           
       0.499524            0.000252173922            0.000269376056           
       0.500203            0.000256967417            0.000272913872           
       0.500882             0.00058621723            0.000420931765           
       0.501561            0.000282645443            0.000292291888           
       0.502240           -3.36641214e-05                         0           
       0.502919            0.000316484426            0.000317390985           
       0.503599           -0.000321412014                         0           
       0.504278           -2.68067461e-06                         0           
       0.504957           -0.000321452383                         0           
       0.505636            -0.00032147232                         0           
       0.506315           -0.000321492585                         0           
       0.506994           -0.000321512488                         0           
       0.507673            -0.00032153235                         0           
       0.508353           -0.000321552632                         0           
       0.509032           -0.000321572827                         0           
       0.509711           -0.000321593029                         0           
       0.510390           -0.000321613549                         0           
       0.511069            4.18679353e-05            0.000123598036           
       0.511748           -0.000321654372                         0           
       0.512428           -0.000321674887                         0           
       0.513107            6.05687903e-05            0.000152173201           
       0.513786           -0.000321715349                         0           
       0.514465            5.20939447e-05            0.000140467759           
       0.515144           -0.000321756552                         0           
       0.515823           -0.000321776959                         0           
       0.516503           -0.000321797557                         0           
       0.517182           -0.000321818153                         0           
       0.517861           -0.000321838699                         0           
       0.518540           -0.000321859361                         0           
       0.519219           -0.000321879904                         0           
       0.519898           -0.000321900654                         0           
       0.520578            0.000128351687            0.000239798494           
       0.521257           -0.000321942134                         0           
       0.521936           -0.000321962789                         0           
       0.522615           -0.000321983691                         0           
       0.523294           -0.000322004671                         0           
       0.523973            -0.00032202536                         0           
       0.524653           -0.000322045901                         0           
       0.525332           -0.000322066741                         0           
       0.526011           -0.000322087955                         0           
       0.526690           -0.000322109129                         0           
       0.527369           -0.000322130128                         0           
       0.528048           -0.000322151277                         0           
       0.528728             -0.0003221724                         0           
       0.529407           -0.000322193426                         0           
       0.530086           -0.000322214344                         0           
       0.530765           -0.000322235291                         0           
       0.531444           -0.000322256464                         0           
       0.532123           -0.000322278012                         0           
       0.532802            0.000227366198            0.000352324903           
       0.533482            0.000262640365            0.000392227467           
       0.534161           -0.000322342016                         0           
       0.534840           -0.000322363166                         0           
       0.535519           -0.000322384708                         0           
       0.536198           -0.000322406027                         0           
       0.536877           -0.000322427052                         0           
       0.537557           -0.000322448439                         0           
       0.538236           -0.000322470019                         0           
       0.538915            -0.00032249159                         0           
       0.539594           -0.000322513133                         0           
       0.540273           -0.000322535012                         0           
       0.540952           -0.000322556648                         0           
       0.541632           -0.000322577888                         0           
       0.542311           -0.000322599323                         0           
       0.542990           -0.000322620999                         0           
       0.543669            0.000319926509             0.00045337128           
       0.544348           -0.000322664685                         0           
       0.545027           -0.000322686468                         0           
       0.545707           -0.000322708317                         0           
       0.546386           -0.000322730228                         0           
       0.547065           -0.000322751875                         0           
       0.547744           -0.000322773621                         0           
       0.548423           -0.000322795606                         0           
       0.549102           -0.000322817614                         0           
       0.549782           -0.000322839511                         0           
       0.550461           -0.000322861668                         0           
       0.551140           -0.000322883958                         0           
       0.551819           -0.000322905985                         0           
       0.552498             -0.0003229282                         0           
       0.553177           -0.000322950034                         0           
       0.553856           -0.000322971946                         0           
       0.554536            -0.00032299393                         0           
       0.555215           -0.000323016249                         0           
       0.555894           -0.000323038516                         0           
       0.556573           -0.000323060915                         0           
       0.557252           -0.000323083296                         0           
       0.557931           -0.000323105574                         0           
       0.558611           -0.000323128374                         0           
       0.559290           -0.000323150594                         0           
       0.559969           -0.000323172268                         0           
       0.560648           -0.000323194516                         0           
       0.561327            -0.00032321726                         0           
       0.562006           -0.000323239898                         0           
       0.562686           -0.000323262549                         0           
       0.563365           -0.000323285284                         0           
       0.564044           -0.000323307903                         0           
       0.564723           -0.000323330473                         0           
       0.565402           -0.000323352623                         0           
       0.566081           -0.000323374919                         0           
       0.566761           -0.000323397456                         0           
       0.567440            -0.00032342045                         0           
       0.568119           -0.000323443263                         0           
       0.568798           -0.000323466397                         0           
       0.569477           -0.000323489382                         0           
       0.570156           -0.000323512478                         0           
       0.570836           -0.000323535488                         0           
       0.571515           -0.000323558011                         0           
       0.572194           -0.000323581187                         0           
       0.572873           -0.000323603833                         0           
       0.573552           -0.000323626346                         0           
       0.574231           -0.000323649315                         0           
       0.574911           -0.000323672863                         0           
       0.575590           -0.000323695958                         0           
       0.576269           -0.000323718983                         0           
       0.576948           -0.000323742449                         0           
       0.577627             -0.0003237652                         0           
       0.578306           -0.000323788272                         0           
       0.578985           -0.000323811542                         0           
       0.579665           -0.000323834677                         0           
       0.580344           -0.000323858162                         0           
       0.581023           -0.000323881622                         0           
       0.581702           -0.000323904865                         0           
       0.582381           -0.000323927897                         0           
       0.583060           -0.000323951616                         0           
       0.583740           -0.000323974962                         0           
       0.584419           -0.000323998386                         0           
       0.585098           -0.000324021781                         0           
       0.585777            -0.00032404536                         0           
       0.586456           -0.000324069321                         0           
       0.587135           -0.000324092646                         0           
       0.587815           -0.000324115719                         0           
       0.588494           -0.000324139511                         0           
       0.589173           -0.000324163849                         0           
       0.589852           -0.000324186894                         0           
       0.590531           -0.000324210808                         0           
       0.591210           -0.000324234169                         0           
       0.591890           -0.000324257982                         0           
       0.592569           -0.000324280999                         0           
       0.593248           -0.000324306163                         0           
       0.593927              0.0123885113              0.0129279218           
       0.594606           -0.000324354505                         0           
       0.595285           -0.000324377467                         0           
       0.595965           -0.000324398894                         0           
       0.596644           -0.000324420944                         0           
