################################################################################
# EDF_DataBlockID                     0.Image.Psd
# EDF_BinarySize                      4366944
# EDF_HeaderSize                      2560
# ByteOrder                           LowByteFirst
# DataType                            FloatValue
# Dim_1                               1028
# Dim_2                               1062
# Image                               0
# HeaderID                            EH:000000:000000:000000
# Size                                4366944
# Center_1                            607.5200
# Center_2                            651.5500
# Comment                             Xenocs_Cell_Window - 20251028_20perc_iodine_1.23mg
# DDummy                              0.6
# Date                                2025-11-02T11:06:19
# Delta                               0
# Dummy                               -1.5
# ExposureTime                        360
# Gamma                               0
# Intensity1                          8.77005e-10
# PSize_1                             7.5e-05
# PSize_2                             7.5e-05
# Pressure                            0.0325994
# SampleDistance                      0.450002
# SampleEnvKind                       large
# SampleEnvPN                         ElectroChemical cell
# SampleEnvSN                         1141
# Thickness                           0
# Wavelength                          1.541891e-10
# Wavelength                          1.54189e-10
# aux                                 0
# aux_dial                            0.002375
# beamx                               588.434
# beamx_dial                          588.434
# beamz                               657.808
# beamz_dial                          657.808
# det0x                               0
# det0x_dial                          6.36945
# det0xvd                             0
# det0xvd_dial                        0
# det0y                               450.002
# det0y_dial                          481.635
# det0z                               0
# det0z_dial                          1.23302
# det0zvd                             0
# det0zvd_dial                        0
# mag                                 1.818
# mag_dial                            1.818
# om                                  0.2499
# om_dial                             -0.610199
# phi                                 -0.0120535
# phi_dial                            0
# ry                                  0.599993
# ry_dial                             0.599993
# s1bot                               0.8
# s1bot_dial                          -1.66094
# s1hl                                0.8
# s1hl_dial                           -0.608437
# s1hr                                0.8
# s1hr_dial                           0.970938
# s1top                               0.8
# s1top_dial                          -0.461562
# s2bot                               0.45
# s2bot_dial                          1.36109
# s2hl                                0.45
# s2hl_dial                           -0.83375
# s2hr                                0.45
# s2hr_dial                           -0.118594
# s2top                               0.45
# s2top_dial                          1.44734
# w2theta                             32
# w2theta_dial                        32
# waxsch                              19.2605
# waxsch_dial                         -32.7355
# waxsh                               137.085
# waxsh_dial                          -43.5338
# waxsth                              26.0607
# waxsth_dial                         -19.4086
# waxsz                               67.0407
# waxsz_dial                          -23.7954
# wind                                65.9854
# wind_dial                           66.0041
# wpsi                                124
# wpsi_dial                           124
# wstod                               115
# wstod_dial                          115
# x                                   0
# x_dial                              1.00969
# z                                   0
# z_dial                              13.3172
# CountCutoff                         15302352
# DetectorModel                       Dectris EIGER2 Si 1M, S/N E-02-0362
# ThresholdSetting                    4023.88989258
# Saturation                          0
# FlatField                           Corrected
# BackgroundReductionExtra            0.02
# BackgroundCorrectionConstant        0.0026712
# Detector                            0
# Monitor                             0
# Pil_Roi0                            0
# SumForIntensity1                    3.15722e+08
# TransmittedFlux                     877005
# det                                 0
# mon                                 0
# pilai0                              3.15722e+08
# pilai1                              794449
# pilct0                              5.45981e+08
# pilct1                              794449
# pilroi0                             0
# pilroi1                             0
# sec                                 1
# title                               20251028_20perc_iodine_1.23mg_0_01061.edf
# usaxs0                              0
# Operation                           Azimuthal average I(q)
# Error_model                         ErrorModel.poisson
# Geometrical_correction              True
# Transmission_correction             True
# Thickness_correction                False
# Binning mode                        Uniform
# Binning factor                      1.0
# Psi                                 0.0
# Omega                               0.2499
# MaskInvalidPixels                   True
# DetectorEdge                        3
# MaskFiles                           ['20251028_20perc_iodine_1.23mg_0_00012_mask.edf']
################################################################################
    q(A⁻¹)                Intensity(a.u.)            Sigma_I(a.u.)            
       0.000340                371606.259                118.845238           
       0.001019                359307.144                71.5630511           
       0.001698                349763.704                 49.926179           
       0.002377                 330796.03                43.4276319           
       0.003056                307891.689                35.4096016           
       0.003735                253598.302                28.3415164           
       0.004415                204770.476                25.4673458           
       0.005094                152708.435                19.0463729           
       0.005773                100661.436                14.3165734           
       0.006452                58548.5923                10.4615255           
       0.007131                32261.7669                7.52296917           
       0.007810                16217.5945                5.29326122           
       0.008490                8151.59304                3.32647218           
       0.009169                3935.67558                2.28435164           
       0.009848                1208.03782                1.22362727           
       0.010527                467.225542               0.760978576           
       0.011206                117.409086                0.36407722           
       0.011885                54.1335981               0.229691099           
       0.012564                24.9806284               0.160193234           
       0.013244                16.6857048               0.122398118           
       0.013923                12.3369334                0.10694383           
       0.014602                9.36485532              0.0864146917           
       0.015281                7.40834348              0.0782395741           
       0.015960                5.99432452              0.0698734161           
       0.016639                4.98049209              0.0601440403           
       0.017319                4.06566964              0.0534952588           
       0.017998                3.31539512              0.0462155642           
       0.018677                2.86933317              0.0445303646           
       0.019356                2.44122556              0.0405853057           
       0.020035                 2.1497222              0.0357313393           
       0.020714                1.84750228              0.0334751746           
       0.021394                1.56907862               0.029189225           
       0.022073                1.44283882              0.0291218179           
       0.022752                1.23679522              0.0257924144           
       0.023431                1.09909755              0.0236014406           
       0.024110               0.995487094              0.0234177367           
       0.024789               0.882249396              0.0204740135           
       0.025469               0.765004085              0.0196467739           
       0.026148               0.725049775              0.0179712471           
       0.026827               0.683709821              0.0177306671           
       0.027506                0.61774422              0.0170966704           
       0.028185               0.562978106              0.0155646464           
       0.028864               0.510979113              0.0147452245           
       0.029544               0.476440351              0.0138070165           
       0.030223               0.439608087              0.0134527715           
       0.030902               0.410340399              0.0131161778           
       0.031581               0.364412176              0.0117498852           
       0.032260                0.34304056              0.0115943799           
       0.032939                0.31245529              0.0106694965           
       0.033619               0.292347375              0.0104721498           
       0.034298               0.270673561             0.00980605554           
       0.034977               0.242357111             0.00909660908           
       0.035656               0.237616828             0.00924559337           
       0.036335               0.219132449              0.0086112294           
       0.037014               0.211671475             0.00848860834           
       0.037693               0.179696074             0.00752391272           
       0.038373               0.181727637             0.00764057558           
       0.039052               0.181400585             0.00766617621           
       0.039731               0.152497898             0.00686515848           
       0.040410               0.155828495             0.00689319447           
       0.041089               0.158033405             0.00683305293           
       0.041768               0.140551757             0.00647771069           
       0.042448               0.137326857              0.0063532813           
       0.043127               0.135072513             0.00615210345           
       0.043806               0.125074093             0.00596416989           
       0.044485               0.118106453             0.00567660089           
       0.045164               0.111765774             0.00563095759           
       0.045843               0.112190989             0.00541103514           
       0.046523               0.105374439             0.00526218485           
       0.047202              0.0941581199             0.00500900631           
       0.047881               0.102468185             0.00512460439           
       0.048560              0.0994395001             0.00509431561           
       0.049239              0.0863528283             0.00455824358           
       0.049918              0.0890361194             0.00471900499           
       0.050598              0.0834550008             0.00450016401           
       0.051277              0.0889488862             0.00463118496           
       0.051956              0.0875720852              0.0045663469           
       0.052635              0.0795618709             0.00426012864           
       0.053314              0.0837801807              0.0044994172           
       0.053993              0.0799499514             0.00427481037           
       0.054673              0.0766130297             0.00409143408           
       0.055352              0.0734647025             0.00406533517           
       0.056031              0.0697688504             0.00387851442           
       0.056710              0.0732059323             0.00407025689           
       0.057389              0.0637031937             0.00366139365           
       0.058068              0.0710693228             0.00390715684           
       0.058748              0.0616435606             0.00368423689           
       0.059427              0.0651199973             0.00372258757           
       0.060106              0.0714796819             0.00393704294           
       0.060785              0.0596687398             0.00348932059           
       0.061464                0.06280024             0.00366599636           
       0.062143              0.0617793406             0.00359914048           
       0.062822              0.0604321751             0.00351791054           
       0.063502              0.0513083407             0.00323569852           
       0.064181              0.0600867403              0.0034645988           
       0.064860              0.0563402717             0.00340594774           
       0.065539              0.0561473925             0.00336686478           
       0.066218              0.0473413665             0.00302538918           
       0.066897              0.0521929868             0.00320115468           
       0.067577              0.0490561363             0.00313328355           
       0.068256              0.0513045207              0.0032829946           
       0.068935              0.0473465037             0.00310282024           
       0.069614              0.0520246385             0.00328487716           
       0.070293               0.051995791             0.00331424809           
       0.070972              0.0475904951              0.0031475272           
       0.071652              0.0455569516             0.00308519466           
       0.072331              0.0401352493              0.0028441878           
       0.073010              0.0434965121             0.00302854501           
       0.073689              0.0463269113             0.00310835346           
       0.074368              0.0482279357             0.00316572002           
       0.075047              0.0397289902             0.00284239003           
       0.075727              0.0452289163             0.00301402807           
       0.076406              0.0405956578             0.00291245258           
       0.077085              0.0422981584             0.00291733718           
       0.077764              0.0395344741             0.00281053778           
       0.078443              0.0423111922             0.00292556444           
       0.079122              0.0382413172             0.00275458496           
       0.079802              0.0417184618             0.00290760708           
       0.080481              0.0398969941             0.00274751044           
       0.081160              0.0345561748             0.00260947798           
       0.081839              0.0370788213             0.00265977334           
       0.082518              0.0367254543             0.00264929832           
       0.083197              0.0327770901             0.00246394772           
       0.083876              0.0354483753             0.00251980745           
       0.084556              0.0327754783             0.00249033068           
       0.085235              0.0329972713             0.00245046584           
       0.085914              0.0351266332             0.00255285637           
       0.086593              0.0287566747             0.00229495022           
       0.087272              0.0338127687             0.00245336201           
       0.087951              0.0363757578             0.00260212647           
       0.088631              0.0312319673             0.00232901328           
       0.089310              0.0325767248             0.00242907435           
       0.089989              0.0308089705             0.00233463239           
       0.090668              0.0314226838             0.00238379617           
       0.091347              0.0305637003             0.00236415099           
       0.092026              0.0313713372             0.00228940786           
       0.092706              0.0342792113             0.00248002673           
       0.093385              0.0322043502             0.00236688592           
       0.094064              0.0287091022             0.00226076405           
       0.094743              0.0328244829             0.00238053829           
       0.095422              0.0323632956             0.00233739728           
       0.096101              0.0309588693             0.00233320162           
       0.096781               0.027348341             0.00216153307           
       0.097460              0.0292957709             0.00217614242           
       0.098139              0.0295018779             0.00216698081           
       0.098818              0.0290935709             0.00212543229           
       0.099497              0.0305074427             0.00218093348           
       0.100176              0.0278721525             0.00202989851           
       0.100856              0.0284175528             0.00204834933           
       0.101535              0.0288986034             0.00206162991           
       0.102214               0.025935872             0.00195310412           
       0.102893              0.0284350112              0.0020217386           
       0.103572              0.0283975777             0.00199056016           
       0.104251              0.0289667524             0.00201783658           
       0.104931              0.0281378007             0.00197064872           
       0.105610              0.0261510891             0.00190790898           
       0.106289              0.0261716074             0.00187689418           
       0.106968              0.0284673233             0.00196329195           
       0.107647              0.0252322204             0.00184948104           
       0.108326              0.0228638585             0.00173699178           
       0.109005              0.0223557757               0.001706777           
       0.109685              0.0287866563             0.00191504296           
       0.110364              0.0217805237             0.00168469761           
       0.111043              0.0261427499             0.00183839174           
       0.111722              0.0264766461             0.00182748125           
       0.112401              0.0232131165             0.00171590879           
       0.113080              0.0252881706             0.00177043769           
       0.113760              0.0259167952             0.00182224416           
       0.114439              0.0247855292             0.00175659736           
       0.115118              0.0240796234             0.00171834703           
       0.115797              0.0231512915             0.00170050717           
       0.116476               0.025671561             0.00176387471           
       0.117155              0.0253034843             0.00176530789           
       0.117835              0.0233190895             0.00166098402           
       0.118514              0.0248826048              0.0017375191           
       0.119193              0.0193063295             0.00153050466           
       0.119872              0.0244926564             0.00170230376           
       0.120551              0.0220554663             0.00160462917           
       0.121230              0.0214951121             0.00156817251           
       0.121910              0.0208875908             0.00156079311           
       0.122589               0.025358487             0.00172151228           
       0.123268              0.0224466139             0.00158828183           
       0.123947              0.0211728707             0.00155253614           
       0.124626              0.0226432561             0.00158590989           
       0.125305              0.0221892242             0.00157763353           
       0.125985              0.0215101157             0.00154125111           
       0.126664              0.0236072027             0.00159925472           
       0.127343              0.0218016078             0.00155469329           
       0.128022              0.0195401281             0.00146056298           
       0.128701              0.0217049136             0.00153132502           
       0.129380              0.0196925912             0.00144034356           
       0.130059              0.0223226144              0.0015370734           
       0.130739              0.0225356711             0.00155525181           
       0.131418              0.0220590829             0.00153441054           
       0.132097              0.0208844281              0.0014738503           
       0.132776              0.0223181673             0.00151672276           
       0.133455              0.0238424497             0.00157984121           
       0.134134              0.0230663673             0.00154896768           
       0.134814               0.023004383             0.00153094641           
       0.135493              0.0203246316               0.001444841           
       0.136172              0.0192862289              0.0013968231           
       0.136851              0.0209998316             0.00146603437           
       0.137530              0.0200468828             0.00139835361           
       0.138209              0.0196600863             0.00140105581           
       0.138889              0.0236527653             0.00154352568           
       0.139568              0.0200722697             0.00142129229           
       0.140247              0.0189238076             0.00137822432           
       0.140926              0.0192551954             0.00135048848           
       0.141605              0.0187078533             0.00136497482           
       0.142284               0.019791165             0.00138067509           
       0.142964              0.0198476235             0.00138793134           
       0.143643              0.0199968541             0.00139137947           
       0.144322              0.0188841692             0.00132382178           
       0.145001              0.0209126277             0.00142170346           
       0.145680              0.0202327368             0.00136531795           
       0.146359              0.0207459046             0.00138758121           
       0.147039              0.0220293093             0.00144162903           
       0.147718              0.0223958721             0.00142958798           
       0.148397               0.021521312             0.00142317408           
       0.149076               0.018584768             0.00128149314           
       0.149755              0.0184356177             0.00129604801           
       0.150434              0.0176368754             0.00126817821           
       0.151114              0.0184253169             0.00128904522           
       0.151793              0.0209759138             0.00137538771           
       0.152472              0.0182089755             0.00125883108           
       0.153151              0.0201743681               0.001337837           
       0.153830              0.0186670169             0.00127751182           
       0.154509              0.0209149782             0.00134660546           
       0.155188              0.0201248712             0.00132043695           
       0.155868              0.0190706829             0.00127624104           
       0.156547              0.0210592075             0.00134974392           
       0.157226               0.020190627              0.0012893361           
       0.157905              0.0191029483             0.00126466092           
       0.158584              0.0165133494             0.00117368557           
       0.159263              0.0180725188             0.00123236275           
       0.159943              0.0208717837             0.00132535673           
       0.160622              0.0176469511             0.00119515615           
       0.161301              0.0187100535             0.00124708951           
       0.161980              0.0170232204             0.00116932221           
       0.162659              0.0175908603             0.00120183277           
       0.163338              0.0185049656             0.00122261686           
       0.164018              0.0191839218             0.00123831037           
       0.164697              0.0191196813             0.00125210897           
       0.165376              0.0181726862             0.00119403587           
       0.166055              0.0172401259             0.00117066547           
       0.166734              0.0187537796             0.00121550622           
       0.167413              0.0159297782             0.00112104129           
       0.168093                0.01904506              0.0012373619           
       0.168772              0.0174167034             0.00114867778           
       0.169451              0.0186049957             0.00120905959           
       0.170130              0.0182495235             0.00118173314           
       0.170809              0.0192799476             0.00122913265           
       0.171488              0.0169990661             0.00114361841           
       0.172168              0.0198993891             0.00122545158           
       0.172847              0.0179022142              0.0011775989           
       0.173526              0.0171760246             0.00113146327           
       0.174205              0.0159937379             0.00109685616           
       0.174884              0.0176284224             0.00114554536           
       0.175563              0.0167397476             0.00112106385           
       0.176243              0.0169114538             0.00113807544           
       0.176922              0.0176967491              0.0011338603           
       0.177601              0.0173665198             0.00113557538           
       0.178280               0.017599016              0.0011303908           
       0.178959              0.0168768352             0.00111585849           
       0.179638              0.0176447098             0.00113767559           
       0.180317              0.0172465048             0.00111657095           
       0.180997              0.0170925395             0.00111760918           
       0.181676              0.0159328508              0.0010675081           
       0.182355              0.0159751421              0.0010753438           
       0.183034              0.0158727962             0.00105469059           
       0.183713              0.0158342884             0.00106623938           
       0.184392               0.016116061             0.00107535906           
       0.185072              0.0181267979             0.00112747439           
       0.185751              0.0177407531             0.00111850693           
       0.186430              0.0169827021             0.00108668462           
       0.187109              0.0159429041             0.00106461785           
       0.187788              0.0153814838             0.00104312684           
       0.188467              0.0186873732             0.00113616653           
       0.189147              0.0155490211             0.00104687621           
       0.189826              0.0177132076             0.00109759912           
       0.190505              0.0169745968             0.00109215871           
       0.191184              0.0160713462              0.0010473876           
       0.191863              0.0190227446             0.00114190993           
       0.192542              0.0166559685             0.00107859032           
       0.193222              0.0169109787             0.00106246007           
       0.193901              0.0174349077             0.00109325257           
       0.194580              0.0173408485             0.00107122754           
       0.195259              0.0175519433              0.0010901055           
       0.195938              0.0174419407             0.00108927833           
       0.196617              0.0168809078             0.00105665814           
       0.197297              0.0160339441             0.00103401409           
       0.197976              0.0179252978             0.00107650676           
       0.198655              0.0150098642            0.000995840888           
       0.199334              0.0170152986             0.00105093162           
       0.200013              0.0158907151             0.00101504553           
       0.200692              0.0147609041            0.000984180441           
       0.201371              0.0152646044              0.0009895601           
       0.202051               0.015812029             0.00101027976           
       0.202730              0.0146832946            0.000963829284           
       0.203409              0.0173187943             0.00105378689           
       0.204088              0.0158730813             0.00100772945           
       0.204767              0.0186884722             0.00108770623           
       0.205446              0.0155716165             0.00099480828           
       0.206126              0.0153750231            0.000975078531           
       0.206805              0.0165560306             0.00103038472           
       0.207484              0.0169501332             0.00102383335           
       0.208163              0.0156364888            0.000989268628           
       0.208842              0.0152575166            0.000974558886           
       0.209521              0.0170669489             0.00102216206           
       0.210201              0.0152716995            0.000977698714           
       0.210880              0.0164821771            0.000995776204           
       0.211559              0.0154109934            0.000977110855           
       0.212238              0.0133571013            0.000905042713           
       0.212917              0.0170957232             0.00102009381           
       0.213596               0.017111517             0.00102659938           
       0.214276               0.015694734            0.000962698411           
       0.214955              0.0144560129            0.000943356278           
       0.215634              0.0175943161             0.00103327021           
       0.216313               0.014905991            0.000949063401           
       0.216992               0.016296878            0.000992106351           
       0.217671              0.0164641865            0.000990431479           
       0.218351              0.0148115527            0.000948596284           
       0.219030              0.0162793129            0.000978789403           
       0.219709              0.0151764256             0.00095094759           
       0.220388              0.0151928028             0.00095023823           
       0.221067              0.0166492072            0.000995530347           
       0.221746              0.0141737316            0.000917602813           
       0.222426              0.0145540853            0.000915937034           
       0.223105              0.0156852644            0.000963819593           
       0.223784              0.0167607303            0.000986431535           
       0.224463              0.0157245696            0.000963063081           
       0.225142              0.0160960534            0.000958955571           
       0.225821              0.0164405974            0.000973068522           
       0.226500              0.0157340349            0.000957981978           
       0.227180              0.0139908084            0.000889438154           
       0.227859              0.0170931671            0.000987528359           
       0.228538              0.0135985494            0.000871970108           
       0.229217              0.0158772972            0.000949659071           
       0.229896              0.0154006279            0.000934844802           
       0.230575              0.0173922589            0.000977618876           
       0.231255              0.0161021901            0.000954746361           
       0.231934               0.015379187             0.00092669103           
       0.232613              0.0153247989            0.000928463862           
       0.233292              0.0156301747            0.000928609321           
       0.233971               0.015159335            0.000914088984           
       0.234650              0.0134065896            0.000869733294           
       0.235330              0.0148697505            0.000907966286           
       0.236009              0.0158131567             0.00093430792           
       0.236688              0.0136159613            0.000863869005           
       0.237367              0.0140832489            0.000879843612           
       0.238046              0.0136670714            0.000872849928           
       0.238725              0.0155683103            0.000917212886           
       0.239405              0.0143820331            0.000887042204           
       0.240084              0.0142120675            0.000876170266           
       0.240763              0.0135024935            0.000862195167           
       0.241442              0.0146795794            0.000886323921           
       0.242121              0.0158036014            0.000921367099           
       0.242800              0.0154605563            0.000915626623           
       0.243480              0.0139066537            0.000864328646           
       0.244159              0.0173608772            0.000966192161           
       0.244838               0.016103951            0.000915246941           
       0.245517              0.0138781403             0.00086186718           
       0.246196              0.0143069627            0.000875503304           
       0.246875              0.0136921418            0.000844545772           
       0.247554              0.0140846807            0.000865271809           
       0.248234              0.0147906416            0.000873246514           
       0.248913              0.0151368352            0.000893316397           
       0.249592              0.0133936954            0.000832322055           
       0.250271              0.0156379143            0.000896742407           
       0.250950              0.0154560335            0.000896972629           
       0.251629              0.0138574515            0.000842102261           
       0.252309              0.0160715028            0.000908723858           
       0.252988              0.0131253052            0.000807072029           
       0.253667              0.0142527126            0.000850846411           
       0.254346              0.0128825172            0.000808748321           
       0.255025              0.0144478201            0.000854597864           
       0.255704              0.0133929356            0.000819039516           
       0.256384              0.0140595396            0.000836271801           
       0.257063               0.013065341             0.00081075821           
       0.257742              0.0143259073            0.000843087066           
       0.258421               0.013620908            0.000820498187           
       0.259100              0.0125268226            0.000788227789           
       0.259779              0.0142871906            0.000841078229           
       0.260459              0.0138005025            0.000828251911           
       0.261138              0.0128185672            0.000782642776           
       0.261817               0.013105425            0.000807325529           
       0.262496              0.0112339433            0.000740131763           
       0.263175               0.012894325            0.000794646625           
       0.263854               0.013411023            0.000806646569           
       0.264534               0.013689082            0.000808005568           
       0.265213              0.0132684123            0.000808029614           
       0.265892              0.0133827665            0.000801107358           
       0.266571              0.0121944968            0.000762976154           
       0.267250              0.0126144855             0.00077731094           
       0.267929              0.0131682653            0.000793375429           
       0.268609              0.0122044918            0.000767972585           
       0.269288              0.0129982347             0.00077938647           
       0.269967              0.0125180523            0.000773095663           
       0.270646              0.0125171459            0.000769725856           
       0.271325              0.0136915974            0.000806371594           
       0.272004              0.0128986127            0.000774869804           
       0.272683              0.0125678337            0.000765814765           
       0.273363              0.0116926737            0.000743381109           
       0.274042              0.0129132784            0.000776609958           
       0.274721              0.0118529277            0.000743600987           
       0.275400              0.0133157096            0.000782932386           
       0.276079              0.0114368682            0.000729717406           
       0.276758              0.0111354493            0.000729123929           
       0.277438              0.0110143232            0.000717007646           
       0.278117              0.0113388837            0.000740723552           
       0.278796              0.0127593577            0.000777776203           
       0.279475              0.0119656734            0.000765639823           
       0.280154              0.0129607933            0.000785379129           
       0.280833              0.0120875553            0.000763072624           
       0.281513              0.0134323075            0.000817019747           
       0.282192              0.0119619087              0.0007578519           
       0.282871              0.0102790761            0.000707433053           
       0.283550              0.0119134365            0.000765681205           
       0.284229              0.0111710169            0.000752329474           
       0.284908              0.0125477619            0.000805752534           
       0.285588              0.0112611788             0.00075438812           
       0.286267              0.0125836951            0.000810225183           
       0.286946             0.00971854068            0.000707405942           
       0.287625              0.0109990421            0.000765381511           
       0.288304              0.0115351098            0.000773320104           
       0.288983              0.0109425349            0.000762733149           
       0.289663             0.00936001529            0.000709555517           
       0.290342              0.0100496164            0.000731315631           
       0.291021               0.011515684            0.000787061118           
       0.291700              0.0108230371            0.000753056112           
       0.292379               0.011199262            0.000783572105           
       0.293058              0.0109937829            0.000773417988           
       0.293738              0.0107631644            0.000758836697           
       0.294417              0.0110667806            0.000778408864           
       0.295096              0.0117825977            0.000794359107           
       0.295775              0.0107665097            0.000770932242           
       0.296454              0.0107495723            0.000760361887           
       0.297133             0.00907956865             0.00070211323           
       0.297812              0.0107905055            0.000769251234           
       0.298492              0.0086485947            0.000690014738           
       0.299171              0.0119709524             0.00081026583           
       0.299850              0.0103757099             0.00074919745           
       0.300529             0.00986514171            0.000738760718           
       0.301208              0.0105197119            0.000764732541           
       0.301887             0.00838834416            0.000682070676           
       0.302567              0.0087440211            0.000692893188           
       0.303246              0.0109670621            0.000781055787           
       0.303925             0.00919758644            0.000724460287           
       0.304604             0.00962105277            0.000724950834           
       0.305283              0.0103680026            0.000763727813           
       0.305962              0.0107932551            0.000774525433           
       0.306642             0.00835274467            0.000690609776           
       0.307321             0.00960103945            0.000738054172           
       0.308000              0.0096470403            0.000731050885           
       0.308679             0.00968559588            0.000748373247           
       0.309358             0.00986092159            0.000744901743           
       0.310037             0.00860149956            0.000697258602           
       0.310717              0.0091052455            0.000716695344           
       0.311396             0.00853990208            0.000698744068           
       0.312075             0.00860199993            0.000710172966           
       0.312754             0.00925021242            0.000721711942           
       0.313433             0.00941818775            0.000734568789           
       0.314112             0.00919175303            0.000725518135           
       0.314792             0.00873705388            0.000712340595           
       0.315471              0.0083568201            0.000688052345           
       0.316150             0.00967177462            0.000747059001           
       0.316829             0.00780229896            0.000675416361           
       0.317508             0.00933882646            0.000730643587           
       0.318187             0.00864920808            0.000712425066           
       0.318866             0.00927737617             0.00072790285           
       0.319546              0.0087961557            0.000719397513           
       0.320225             0.00785940834            0.000680026591           
       0.320904             0.00789137873            0.000670872303           
       0.321583             0.00951538217            0.000752908458           
       0.322262             0.00863250858            0.000706260689           
       0.322941             0.00894286961            0.000728054118           
       0.323621             0.00899140434             0.00072557191           
       0.324300             0.00889871251             0.00072238803           
       0.324979             0.00768337054            0.000672461286           
       0.325658             0.00675981084            0.000631896337           
       0.326337             0.00813746004             0.00069420782           
       0.327016              0.0079202752            0.000680533076           
       0.327696             0.00780806951            0.000683210285           
       0.328375             0.00732113162            0.000655981181           
       0.329054             0.00840269999            0.000706579162           
       0.329733             0.00907896017            0.000737144434           
       0.330412             0.00757216814            0.000667684951           
       0.331091             0.00736521234            0.000670442241           
       0.331771             0.00755531786            0.000661246538           
       0.332450             0.00660017403            0.000630036693           
       0.333129              0.0073221496            0.000661889288           
       0.333808             0.00651975356            0.000625396251           
       0.334487             0.00742912091            0.000670753054           
       0.335166             0.00714260873            0.000648066212           
       0.335846             0.00656090966            0.000632031374           
       0.336525             0.00851541224            0.000712935641           
       0.337204             0.00807193063            0.000695942359           
       0.337883             0.00732724632            0.000663942166           
       0.338562             0.00656189609             0.00063179751           
       0.339241             0.00797660484            0.000697887327           
       0.339921             0.00716914777            0.000650526816           
       0.340600              0.0081488715            0.000706724741           
       0.341279             0.00641103655             0.00062014043           
       0.341958             0.00676751395             0.00064613732           
       0.342637             0.00628403729            0.000613833412           
       0.343316             0.00625328829            0.000614102608           
       0.343995             0.00684576409            0.000653057308           
       0.344675             0.00623535994            0.000611808488           
       0.345354             0.00673451087            0.000640019289           
       0.346033             0.00585687819            0.000595305017           
       0.346712             0.00532619787            0.000571317387           
       0.347391             0.00545094364            0.000581547788           
       0.348070             0.00668091289              0.0006346812           
       0.348750             0.00650198876             0.00063517188           
       0.349429             0.00536471028            0.000569505768           
       0.350108             0.00568015449            0.000593061778           
       0.350787             0.00570609679            0.000584316124           
       0.351466             0.00551787317            0.000585182851           
       0.352145             0.00653368727            0.000637301801           
       0.352825             0.00534879305            0.000574013692           
       0.353504             0.00473250504            0.000539800618           
       0.354183             0.00576927256            0.000589136273           
       0.354862             0.00535634368            0.000580852457           
       0.355541             0.00496680025            0.000552007096           
       0.356220             0.00603037957             0.00060939404           
       0.356900             0.00570460513            0.000598334875           
       0.357579             0.00617788561            0.000615025696           
       0.358258             0.00634230687            0.000631779806           
       0.358937             0.00659243397            0.000632007719           
       0.359616              0.0057346201            0.000597687921           
       0.360295              0.0060441344            0.000614116626           
       0.360975             0.00555539344            0.000586245947           
       0.361654              0.0051880263             0.00056945155           
       0.362333             0.00561582852            0.000589452338           
       0.363012             0.00489828327            0.000557591123           
       0.363691             0.00553803986            0.000581189896           
       0.364370              0.0061897623            0.000622058916           
       0.365050             0.00549313632            0.000582873831           
       0.365729             0.00574063903            0.000601541893           
       0.366408              0.0050045071            0.000562894448           
       0.367087             0.00551518685            0.000581439335           
       0.367766             0.00587613351            0.000612669196           
       0.368445             0.00578553602            0.000597134323           
       0.369124             0.00494169593            0.000556207195           
       0.369804             0.00454629156            0.000532637527           
       0.370483             0.00566628263            0.000597239198           
       0.371162             0.00395484524            0.000501850741           
       0.371841             0.00546269763            0.000579528043           
       0.372520              0.0059508162            0.000616990267           
       0.373199             0.00606794447            0.000615589104           
       0.373879             0.00492071365            0.000560768339           
       0.374558             0.00526006049            0.000571321728           
       0.375237             0.00459969502            0.000535132386           
       0.375916             0.00466586181            0.000549292789           
       0.376595             0.00453727147            0.000531083998           
       0.377274             0.00456231904            0.000541072352           
       0.377954             0.00534600873            0.000576502048           
       0.378633             0.00357068446            0.000477106862           
       0.379312             0.00586326277            0.000611223373           
       0.379991             0.00447057294            0.000530955599           
       0.380670             0.00399604031            0.000510858397           
       0.381349              0.0046950996            0.000545791874           
       0.382029             0.00576634792            0.000613526897           
       0.382708             0.00562364857            0.000592656896           
       0.383387             0.00471666808            0.000555065397           
       0.384066             0.00366159714            0.000484572263           
       0.384745             0.00453049122            0.000541127763           
       0.385424             0.00437857181            0.000533784496           
       0.386104              0.0041484595            0.000513827138           
       0.386783             0.00452228146             0.00054808257           
       0.387462             0.00486759506            0.000554477417           
       0.388141             0.00431366909            0.000530312252           
       0.388820             0.00502665099            0.000568325093           
       0.389499             0.00411033691            0.000516813903           
       0.390178             0.00446186266            0.000540604425           
       0.390858             0.00452008478            0.000539717273           
       0.391537             0.00455079465            0.000547077517           
       0.392216             0.00474617326            0.000551695081           
       0.392895             0.00419545959            0.000520448449           
       0.393574             0.00404447516            0.000509731162           
       0.394253             0.00454718993            0.000542913997           
       0.394933             0.00419318794            0.000527310354           
       0.395612              0.0033113225            0.000454980608           
       0.396291             0.00359331118            0.000483606832           
       0.396970             0.00473626851            0.000550298349           
       0.397649               0.004835592             0.00055775048           
       0.398328             0.00402815848            0.000506821746           
       0.399008             0.00394706871            0.000500604141           
       0.399687             0.00403008152            0.000507808178           
       0.400366             0.00362189394            0.000479563772           
       0.401045             0.00418435859            0.000514483024           
       0.401724             0.00381603164            0.000492138003           
       0.402403             0.00361498128            0.000482731618           
       0.403083             0.00444573228            0.000527614128           
       0.403762              0.0041776311            0.000513979881           
       0.404441              0.0041080267              0.0005129263           
       0.405120             0.00363336471            0.000480802075           
       0.405799             0.00484387896            0.000552735882           
       0.406478             0.00378614055            0.000488686443           
       0.407158             0.00319878341            0.000448341053           
       0.407837             0.00518160712            0.000575658285           
       0.408516             0.00369668399            0.000481996673           
       0.409195             0.00390888512            0.000501260185           
       0.409874             0.00298006625            0.000443762403           
       0.410553             0.00331546717            0.000473103146           
       0.411233             0.00381591741            0.000504924886           
       0.411912             0.00454031564            0.000558573985           
       0.412591             0.00342221101            0.000488152917           
       0.413270             0.00306125626            0.000459498587           
       0.413949             0.00298775909            0.000458907116           
       0.414628             0.00228106463              0.0004002583           
       0.415307             0.00363682213            0.000511018704           
       0.415987             0.00357318134            0.000502353739           
       0.416666             0.00274427444            0.000437597698           
       0.417345             0.00371761347            0.000517828416           
       0.418024             0.00314246627            0.000476102145           
       0.418703             0.00256585349            0.000429419904           
       0.419382             0.00289199536            0.000453661161           
       0.420062             0.00290152071            0.000455680807           
       0.420741             0.00287028174            0.000455631393           
       0.421420             0.00252950861            0.000429351913           
       0.422099             0.00267201814             0.00044129226           
       0.422778             0.00233957516            0.000415164877           
       0.423457             0.00297277747            0.000470850905           
       0.424137             0.00263566931             0.00043612583           
       0.424816             0.00186114454             0.00037414444           
       0.425495             0.00315302659            0.000486521478           
       0.426174             0.00261216842            0.000442986845           
       0.426853             0.00243237478            0.000424873288           
       0.427532             0.00217767677            0.000405412644           
       0.428212             0.00243873476            0.000431857344           
       0.428891             0.00212325501            0.000402040844           
       0.429570             0.00257730292            0.000443249929           
       0.430249             0.00194783877            0.000383337878           
       0.430928             0.00275825274            0.000466140449           
       0.431607             0.00272506611            0.000455366648           
       0.432287             0.00261814854            0.000449613158           
       0.432966             0.00251137303              0.0004442228           
       0.433645             0.00276327024            0.000466455483           
       0.434324             0.00232283748            0.000425091205           
       0.435003             0.00210826604            0.000405673405           
       0.435682             0.00261811726            0.000455780526           
       0.436361             0.00222599481            0.000419702603           
       0.437041             0.00205789062            0.000403005307           
       0.437720             0.00199312064            0.000398525534           
       0.438399             0.00250828841            0.000449405598           
       0.439078             0.00300313442            0.000506001372           
       0.439757             0.00305125737            0.000506897327           
       0.440436             0.00329140345            0.000538331751           
       0.441116              0.0028505153            0.000509172876           
       0.441795             0.00260643893            0.000487472667           
       0.442474             0.00160376855            0.000383448158           
       0.443153             0.00294721698             0.00053193358           
       0.443832             0.00257446491            0.000497996468           
       0.444511              0.0015025833            0.000378739654           
       0.445191             0.00280131511            0.000529711611           
       0.445870             0.00188813101            0.000434897022           
       0.446549             0.00367888892            0.000613457392           
       0.447228             0.00160562743            0.000402983689           
       0.447907             0.00153686319            0.000398990831           
       0.448586             0.00186955002            0.000450650347           
       0.449266             0.00223390482            0.000488079167           
       0.449945              0.0014842811            0.000396224185           
       0.450624              0.0020161488            0.000469123043           
       0.451303             0.00148077757            0.000407252599           
       0.451982             0.00255626189            0.000531775745           
       0.452661             0.00277816166            0.000564704315           
       0.453341             0.00211166229            0.000494053385           
       0.454020             0.00235732683             0.00052279673           
       0.454699              0.0027536232            0.000570195428           
       0.455378             0.00273997246            0.000569085572           
       0.456057             0.00140323374            0.000414500754           
       0.456736             0.00284501332             0.00058836398           
       0.457416              0.0027282412            0.000576179282           
       0.458095              0.0020721192            0.000509405585           
       0.458774             0.00135468625            0.000417328095           
       0.459453             0.00124040191            0.000401350981           
       0.460132               0.001802824            0.000473410593           
       0.460811             0.00248347641            0.000576367811           
       0.461490             0.00217304187            0.000533659391           
       0.462170             0.00158141227            0.000462357238           
       0.462849             0.00255041661            0.000590973996           
       0.463528              0.0021316446            0.000539028753           
       0.464207             0.00109675856            0.000393877427           
       0.464886              0.0014967063            0.000456540109           
       0.465565             0.00110909116            0.000397318726           
       0.466245             0.00168896156            0.000491825306           
       0.466924            0.000732162361            0.000331470006           
       0.467603             0.00126802279            0.000426965927           
       0.468282             0.00149200443             0.00047412517           
       0.468961            0.000300816652            0.000214290327           
       0.469640             0.00183254918            0.000531017148           
       0.470320             0.00061223673            0.000307142903           
       0.470999            0.000926261635            0.000381350811           
       0.471678             0.00145110695            0.000481905717           
       0.472357             0.00161400251             0.00050965373           
       0.473036             0.00131951562            0.000463727733           
       0.473715             0.00116867013            0.000439831138           
       0.474395             0.00138247823            0.000484988411           
       0.475074             0.00206260964            0.000592411365           
       0.475753             0.00217465667            0.000603040576           
       0.476432            0.000760836339            0.000369680642           
       0.477111            0.000565313232            0.000314805121           
       0.477790            0.000566803938            0.000316904125           
       0.478470            5.03317608e-05            9.56837377e-05           
       0.479149            0.000428105958            0.000281943219           
       0.479828            0.000413302646            0.000276373591           
       0.480507            0.000434244303            0.000285572817           
       0.481186            0.000855469037            0.000409857843           
       0.481865            0.000636592008             0.00034918062           
       0.482545              0.0010477204            0.000453225004           
       0.483224            0.000277264379            0.000234744623           
       0.483903            0.000500487164            0.000320355843           
       0.484582            0.000536042833            0.000336931451           
       0.485261            8.75871508e-05            0.000132744662           
       0.485940            0.000752745344            0.000404852146           
       0.486619            0.000314393462            0.000258764875           
       0.487299            0.000349028475            0.000276992378           
       0.487978             0.00011070824            0.000154411595           
       0.488657            0.000148068121            0.000185943982           
       0.489336             -0.0003112689                         0           
       0.490015           -8.30830161e-05                         0           
       0.490694           -8.42342186e-05                         0           
       0.491374            0.000378858966            0.000298971304           
       0.492053           -0.000311344544                         0           
       0.492732           -6.74597756e-05                         0           
       0.493411           -6.29509099e-05                         0           
       0.494090           -0.000311401642                         0           
       0.494769           -0.000311420469                         0           
       0.495449            -0.00031143956                         0           
       0.496128           -0.000311458711                         0           
       0.496807           -0.000311477651                         0           
       0.497486           -0.000311496766                         0           
       0.498165           -0.000311516156                         0           
       0.498844           -0.000311535254                         0           
       0.499524           -3.65869561e-05                         0           
       0.500203           -0.000311573934                         0           
       0.500882           -0.000311593042                         0           
       0.501561           -0.000311612211                         0           
       0.502240           -0.000311631635                         0           
       0.502919           -0.000311650974                         0           
       0.503599           -2.03844453e-05                         0           
       0.504278           -3.12421563e-06                         0           
       0.504957            4.27529579e-06            3.65721508e-05           
       0.505636            3.01403401e-06            3.09161543e-05           
       0.506315           -0.000311748519                         0           
       0.506994           -0.000311767819                         0           
       0.507673           -0.000311787079                         0           
       0.508353           -0.000311806746                         0           
       0.509032           -0.000311826329                         0           
       0.509711           -0.000311845919                         0           
       0.510390           -0.000311865817                         0           
       0.511069            0.000388359551            0.000370684573           
       0.511748            4.45651662e-05            0.000126341842           
       0.512428           -0.000311925296                         0           
       0.513107            5.35441115e-05             0.00014089199           
       0.513786           -0.000311964532                         0           
       0.514465            5.65940363e-05            0.000144173381           
       0.515144           -0.000312004486                         0           
       0.515823           -0.000312024274                         0           
       0.516503           -0.000312044248                         0           
       0.517182             9.7174584e-05            0.000200286605           
       0.517861            0.000105749018             0.00020968514           
       0.518540              0.0001269252             0.00023567574           
       0.519219           -0.000312124099                         0           
       0.519898            -0.00031214422                         0           
       0.520578           -0.000312164462                         0           
       0.521257           -0.000312184443                         0           
       0.521936           -0.000312204472                         0           
       0.522615            -0.00031222474                         0           
       0.523294           -0.000312245084                         0           
       0.523973           -0.000312265147                         0           
       0.524653           -0.000312285065                         0           
       0.525332           -0.000312305273                         0           
       0.526011           -0.000312325844                         0           
       0.526690           -0.000312346376                         0           
       0.527369           -0.000312366739                         0           
       0.528048           -0.000312387247                         0           
       0.528728            -0.00031240773                         0           
       0.529407           -0.000312428119                         0           
       0.530086           -0.000312448402                         0           
       0.530765           -0.000312468715                         0           
       0.531444           -0.000312489246                         0           
       0.532123            -0.00031251014                         0           
       0.532802           -0.000312530865                         0           
       0.533482            0.000253063141            0.000379130246           
       0.534161            0.000233306643            0.000359703193           
       0.534840           -0.000312592714                         0           
       0.535519            0.000836283186            0.000690956136           
       0.536198           -0.000312634276                         0           
       0.536877           -0.000312654664                         0           
       0.537557           -0.000312675402                         0           
       0.538236           -0.000312696328                         0           
       0.538915           -0.000312717246                         0           
       0.539594           -0.000312738136                         0           
       0.540273           -0.000312759352                         0           
       0.540952           -0.000312780332                         0           
       0.541632           -0.000312800928                         0           
       0.542311            0.000307133268             0.00043740097           
       0.542990           -0.000312842732                         0           
       0.543669            0.000310286353            0.000439670116           
       0.544348           -0.000312885094                         0           
       0.545027           -0.000312906217                         0           
       0.545707           -0.000312927404                         0           
       0.546386            -0.00031294865                         0           
       0.547065           -0.000312969642                         0           
       0.547744           -0.000312990728                         0           
       0.548423           -0.000313012048                         0           
       0.549102            0.000487613854            0.000625610042           
       0.549782           -0.000313054622                         0           
       0.550461           -0.000313076107                         0           
       0.551140           -0.000313097722                         0           
       0.551819           -0.000313119081                         0           
       0.552498           -0.000313140623                         0           
       0.553177           -0.000313161795                         0           
       0.553856           -0.000313183042                         0           
       0.554536            -0.00031320436                         0           
       0.555215           -0.000313226003                         0           
       0.555894           -0.000313247595                         0           
       0.556573             0.00056937512            0.000730886525           
       0.557252            0.000516526007            0.000674902501           
       0.557931           -0.000313312621                         0           
       0.558611            -0.00031333473                         0           
       0.559290           -0.000313356276                         0           
       0.559969           -0.000313377293                         0           
       0.560648           -0.000313398867                         0           
       0.561327           -0.000313420921                         0           
       0.562006           -0.000313442873                         0           
       0.562686           -0.000313464838                         0           
       0.563365           -0.000313486883                         0           
       0.564044           -0.000313508817                         0           
       0.564723           -0.000313530703                         0           
       0.565402           -0.000313552181                         0           
       0.566081           -0.000313573802                         0           
       0.566761           -0.000313595656                         0           
       0.567440             0.00104250467             0.00119299062           
       0.568119           -0.000313640075                         0           
       0.568798           -0.000313662507                         0           
       0.569477           -0.000313684796                         0           
       0.570156           -0.000313707192                         0           
       0.570836           -0.000313729504                         0           
       0.571515           -0.000313751345                         0           
       0.572194             0.00116718436             0.00131738079           
       0.572873           -0.000313795778                         0           
       0.573552           -0.000313817608                         0           
       0.574231           -0.000313839881                         0           
       0.574911           -0.000313862716                         0           
       0.575590           -0.000313885111                         0           
       0.576269           -0.000313907437                         0           
       0.576948           -0.000313930193                         0           
       0.577627           -0.000313952254                         0           
       0.578306           -0.000313974627                         0           
       0.578985           -0.000313997191                         0           
       0.579665             0.00199054515             0.00214203279           
       0.580344             0.00163576815             0.00182090719           
       0.581023           -0.000314065147                         0           
       0.581702           -0.000314087686                         0           
       0.582381           -0.000314110019                         0           
       0.583060           -0.000314133019                         0           
       0.583740           -0.000314155658                         0           
       0.584419           -0.000314178372                         0           
       0.585098           -0.000314201059                         0           
       0.585777           -0.000314223922                         0           
       0.586456           -0.000314247158                         0           
       0.587135           -0.000314269775                         0           
       0.587815             0.00400608512              0.0041782244           
       0.588494            -0.00031431522                         0           
       0.589173            -0.00031433882                         0           
       0.589852           -0.000314361167                         0           
       0.590531           -0.000314384356                         0           
       0.591210           -0.000314407009                         0           
       0.591890           -0.000314430101                         0           
       0.592569            -0.00031445242                         0           
       0.593248           -0.000314476821                         0           
       0.593927           -0.000314500021                         0           
       0.594606           -0.000314523698                         0           
       0.595285           -0.000314545964                         0           
       0.595965           -0.000314566742                         0           
       0.596644           -0.000314588123                         0           
