################################################################################
# EDF_DataBlockID                     0.Image.Psd
# EDF_BinarySize                      4366944
# EDF_HeaderSize                      2560
# ByteOrder                           LowByteFirst
# DataType                            FloatValue
# Dim_1                               1028
# Dim_2                               1062
# Image                               0
# HeaderID                            EH:000000:000000:000000
# Size                                4366944
# Center_1                            607.5200
# Center_2                            651.5500
# Comment                             Xenocs_Cell_Window - 20251028_20perc_iodine_1.23mg
# DDummy                              0.6
# Date                                2025-10-31T19:41:35
# Delta                               0
# Dummy                               -1.5
# ExposureTime                        360
# Gamma                               0
# Intensity1                          8.65707e-10
# PSize_1                             7.5e-05
# PSize_2                             7.5e-05
# Pressure                            0.0327311
# SampleDistance                      0.450002
# SampleEnvKind                       large
# SampleEnvPN                         ElectroChemical cell
# SampleEnvSN                         1141
# Thickness                           0
# Wavelength                          1.541891e-10
# Wavelength                          1.54189e-10
# aux                                 0
# aux_dial                            0.002375
# beamx                               588.434
# beamx_dial                          588.434
# beamz                               657.808
# beamz_dial                          657.808
# det0x                               0
# det0x_dial                          6.36945
# det0xvd                             0
# det0xvd_dial                        0
# det0y                               450.002
# det0y_dial                          481.635
# det0z                               0
# det0z_dial                          1.23302
# det0zvd                             0
# det0zvd_dial                        0
# mag                                 1.818
# mag_dial                            1.818
# om                                  0.2499
# om_dial                             -0.610199
# phi                                 -0.0120535
# phi_dial                            0
# ry                                  0.599993
# ry_dial                             0.599993
# s1bot                               0.8
# s1bot_dial                          -1.66094
# s1hl                                0.8
# s1hl_dial                           -0.608437
# s1hr                                0.8
# s1hr_dial                           0.970938
# s1top                               0.8
# s1top_dial                          -0.461562
# s2bot                               0.45
# s2bot_dial                          1.36109
# s2hl                                0.45
# s2hl_dial                           -0.83375
# s2hr                                0.45
# s2hr_dial                           -0.118594
# s2top                               0.45
# s2top_dial                          1.44734
# w2theta                             32
# w2theta_dial                        32
# waxsch                              19.2605
# waxsch_dial                         -32.7355
# waxsh                               137.085
# waxsh_dial                          -43.5338
# waxsth                              26.0607
# waxsth_dial                         -19.4086
# waxsz                               67.0407
# waxsz_dial                          -23.7954
# wind                                65.9854
# wind_dial                           66.0041
# wpsi                                124
# wpsi_dial                           124
# wstod                               115
# wstod_dial                          115
# x                                   0
# x_dial                              1.00969
# z                                   0
# z_dial                              13.3172
# CountCutoff                         15302352
# DetectorModel                       Dectris EIGER2 Si 1M, S/N E-02-0362
# ThresholdSetting                    4023.88989258
# Saturation                          0
# FlatField                           Corrected
# BackgroundReductionExtra            0.02
# BackgroundCorrectionConstant        0.0026712
# Detector                            0
# Monitor                             0
# Pil_Roi0                            0
# SumForIntensity1                    3.11654e+08
# TransmittedFlux                     865707
# det                                 0
# mon                                 0
# pilai0                              3.11654e+08
# pilai1                              783709
# pilct0                              5.38408e+08
# pilct1                              783709
# pilroi0                             0
# pilroi1                             0
# sec                                 1
# title                               20251028_20perc_iodine_1.23mg_0_00703.edf
# usaxs0                              0
# Operation                           Azimuthal average I(q)
# Error_model                         ErrorModel.poisson
# Geometrical_correction              True
# Transmission_correction             True
# Thickness_correction                False
# Binning mode                        Uniform
# Binning factor                      1.0
# Psi                                 0.0
# Omega                               0.2499
# MaskInvalidPixels                   True
# DetectorEdge                        3
# MaskFiles                           ['20251028_20perc_iodine_1.23mg_0_00012_mask.edf']
################################################################################
    q(A⁻¹)                Intensity(a.u.)            Sigma_I(a.u.)            
       0.000340                372541.441                119.768646           
       0.001019                359512.978                72.0491362           
       0.001698                349827.818                50.2555118           
       0.002377                331010.218                43.7242405           
       0.003056                307818.243                35.6356598           
       0.003735                253510.971                28.5209417           
       0.004415                204475.599                25.6145264           
       0.005094                152286.081                19.1437249           
       0.005773                100147.011                14.3728234           
       0.006452                58115.8766                10.4905862           
       0.007131                32215.0164                7.56641149           
       0.007810                16281.7463                5.33821634           
       0.008490                8238.03196                 3.3658128           
       0.009169                4007.10666                2.31998049           
       0.009848                1241.68745                1.24862089           
       0.010527                480.894882               0.777051476           
       0.011206                120.162032               0.370716448           
       0.011885                54.9664695               0.232956703           
       0.012564                25.3567494               0.162444439           
       0.013244                16.8491299               0.123796045           
       0.013923                12.3164759               0.107550126           
       0.014602                9.44376643              0.0873424234           
       0.015281                7.35735573               0.078476996           
       0.015960                5.99591106              0.0703371897           
       0.016639                4.99328521              0.0606129231           
       0.017319                4.10281749              0.0540886221           
       0.017998                3.44505783              0.0474170401           
       0.018677                 2.9317024              0.0453044928           
       0.019356                2.42782625              0.0407370183           
       0.020035                2.15792553              0.0360322947           
       0.020714                1.85288629              0.0337419605           
       0.021394                1.66070626              0.0302247135           
       0.022073                1.41887383              0.0290667872           
       0.022752                1.24516183              0.0260478311           
       0.023431                1.11439104              0.0239196472           
       0.024110               0.990914661              0.0235158563           
       0.024789                0.88331743              0.0206196491           
       0.025469               0.814708304              0.0204068518           
       0.026148               0.732214203              0.0181772822           
       0.026827               0.657059061              0.0174947178           
       0.027506               0.615513174              0.0171767676           
       0.028185               0.589640262              0.0160325514           
       0.028864               0.482152878              0.0144164313           
       0.029544               0.487357503              0.0140551335           
       0.030223                0.42981933               0.013388671           
       0.030902               0.400730711                0.01304599           
       0.031581               0.371174365              0.0119355309           
       0.032260               0.348838858              0.0117680035           
       0.032939               0.321518893              0.0108935343           
       0.033619               0.310020274              0.0108541762           
       0.034298               0.267667924             0.00981488387           
       0.034977               0.256654681             0.00942197209           
       0.035656                  0.233288             0.00922057408           
       0.036335                0.20616809             0.00840694306           
       0.037014                0.20475894             0.00840315423           
       0.037693               0.181924009             0.00761965017           
       0.038373               0.172312656             0.00748841224           
       0.039052               0.172724471             0.00752925424           
       0.039731               0.162233722             0.00712696745           
       0.040410               0.154168834             0.00690098299           
       0.041089               0.141949873             0.00651813589           
       0.041768                0.13945384             0.00649432796           
       0.042448               0.136678876              0.0063794996           
       0.043127               0.136867668             0.00623312941           
       0.043806               0.125547236             0.00601430533           
       0.044485               0.124930495             0.00587626467           
       0.045164                0.12176396             0.00591565439           
       0.045843               0.111094987             0.00541956174           
       0.046523              0.0955690304             0.00504397149           
       0.047202               0.108268818             0.00540617323           
       0.047881               0.100740605             0.00511427021           
       0.048560              0.0946154355              0.0050015308           
       0.049239              0.0933089704             0.00476910094           
       0.049918              0.0884501915             0.00473404393           
       0.050598              0.0931876956             0.00478626803           
       0.051277              0.0882231475             0.00464225201           
       0.051956              0.0880083963             0.00460748235           
       0.052635              0.0731864716             0.00411245534           
       0.053314              0.0800247118             0.00442601873           
       0.053993              0.0768206134             0.00421756911           
       0.054673              0.0754879532             0.00408769642           
       0.055352              0.0749604643             0.00413322168           
       0.056031              0.0693534689              0.0038921027           
       0.056710              0.0707227793             0.00402665028           
       0.057389              0.0724159425             0.00392914887           
       0.058068               0.068058258             0.00384836044           
       0.058748              0.0662424288             0.00384403544           
       0.059427              0.0676280261             0.00381827023           
       0.060106               0.060576886             0.00364794169           
       0.060785              0.0563549863             0.00341310136           
       0.061464              0.0642859455             0.00373323188           
       0.062143              0.0572945069             0.00348858434           
       0.062822              0.0568906862             0.00343547533           
       0.063502              0.0573523091             0.00344322252           
       0.064181               0.059498392             0.00347001868           
       0.064860              0.0609973402              0.0035669706           
       0.065539              0.0478500067             0.00312836523           
       0.066218              0.0477160096             0.00305709182           
       0.066897              0.0482095977             0.00309658431           
       0.067577              0.0531051816             0.00328123283           
       0.068256              0.0459791219             0.00312815495           
       0.068935              0.0408788017             0.00290186569           
       0.069614              0.0443581142             0.00305292901           
       0.070293                 0.0404387             0.00294181314           
       0.070972              0.0439215708             0.00304343396           
       0.071652              0.0425724585             0.00300182367           
       0.072331              0.0400337597             0.00285906511           
       0.073010              0.0448683252             0.00309593843           
       0.073689              0.0386893933             0.00285907307           
       0.074368              0.0402144923             0.00290957818           
       0.075047              0.0466032779             0.00309851576           
       0.075727              0.0389205241             0.00281412971           
       0.076406              0.0347584661                0.00271247           
       0.077085              0.0324397505             0.00257146264           
       0.077764               0.040903531             0.00287738129           
       0.078443              0.0336735502             0.00262689105           
       0.079122              0.0418307571             0.00289970077           
       0.079802              0.0357363707             0.00270858436           
       0.080481              0.0408313331             0.00279757419           
       0.081160              0.0411766752             0.00286702853           
       0.081839              0.0381015927             0.00271374355           
       0.082518              0.0383632123             0.00272533772           
       0.083197                0.03663635              0.0026219111           
       0.083876              0.0326456203             0.00243386913           
       0.084556              0.0329849924             0.00251452678           
       0.085235              0.0335734794             0.00248784538           
       0.085914              0.0318554235             0.00244689526           
       0.086593              0.0321320757             0.00244168086           
       0.087272              0.0324747903              0.0024199702           
       0.087951              0.0321285406             0.00246140708           
       0.088631              0.0315230843             0.00235506131           
       0.089310               0.034687402              0.0025228333           
       0.089989              0.0291918671             0.00228731733           
       0.090668              0.0366408892             0.00259087256           
       0.091347              0.0285732917             0.00230074216           
       0.092026              0.0276089257             0.00216170774           
       0.092706              0.0282041443             0.00226419061           
       0.093385              0.0295983634             0.00228385998           
       0.094064               0.029085063             0.00229031917           
       0.094743              0.0308281305             0.00232201697           
       0.095422              0.0316157933             0.00232527207           
       0.096101              0.0307945266             0.00234213574           
       0.096781              0.0292539274             0.00225011156           
       0.097460              0.0272816376             0.00211366248           
       0.098139              0.0292354959             0.00217120603           
       0.098818              0.0309880724             0.00220780956           
       0.099497              0.0239550026             0.00194515046           
       0.100176              0.0253804252             0.00194963848           
       0.100856              0.0250438259             0.00193542611           
       0.101535              0.0315023155             0.00216650197           
       0.102214              0.0286456964             0.00206595202           
       0.102893              0.0281327522             0.00202404415           
       0.103572              0.0244036115             0.00185727957           
       0.104251              0.0273507362             0.00197349563           
       0.104931              0.0253322528               0.001881987           
       0.105610              0.0233219772             0.00181347267           
       0.106289              0.0256787911             0.00187123118           
       0.106968              0.0252552091             0.00186124106           
       0.107647              0.0255928907             0.00187476739           
       0.108326              0.0235698091             0.00177507457           
       0.109005              0.0269974609             0.00188781286           
       0.109685              0.0250451316             0.00179787767           
       0.110364              0.0233001179             0.00175380955           
       0.111043              0.0246358772             0.00179623028           
       0.111722              0.0260659884             0.00182504726           
       0.112401              0.0251799315             0.00179874796           
       0.113080              0.0244899401             0.00175360337           
       0.113760                0.02341005             0.00174314157           
       0.114439              0.0217078186             0.00165461437           
       0.115118              0.0241397315             0.00173168071           
       0.115797              0.0249549562             0.00177698938           
       0.116476              0.0232511037             0.00168958075           
       0.117155               0.024356571             0.00174322699           
       0.117835              0.0217008092             0.00161273568           
       0.118514              0.0217492369             0.00163500561           
       0.119193              0.0185847755             0.00151139864           
       0.119872              0.0241890737             0.00170272418           
       0.120551              0.0224520181             0.00162952048           
       0.121230              0.0218999922             0.00159316783           
       0.121910              0.0230632338             0.00165073301           
       0.122589              0.0225013789             0.00163218203           
       0.123268              0.0220845739             0.00158566789           
       0.123947              0.0197180772             0.00150799429           
       0.124626              0.0202698884             0.00151025512           
       0.125305              0.0202342579             0.00151633193           
       0.125985               0.020342932             0.00150860093           
       0.126664              0.0230110491              0.0015892022           
       0.127343              0.0214286742             0.00155136391           
       0.128022              0.0203495693             0.00150020209           
       0.128701              0.0184861423             0.00142241742           
       0.129380              0.0221681615             0.00153813719           
       0.130059              0.0234426356             0.00158540735           
       0.130739              0.0228054808             0.00157471025           
       0.131418              0.0231015134             0.00158046046           
       0.132097              0.0195968219             0.00143697918           
       0.132776              0.0206530389             0.00146853564           
       0.133455               0.020662714             0.00148029153           
       0.134134              0.0195782542             0.00143633356           
       0.134814               0.019491231             0.00141837118           
       0.135493              0.0193127214             0.00141757493           
       0.136172              0.0198426588             0.00142604507           
       0.136851              0.0173149108             0.00133986779           
       0.137530              0.0206062519             0.00142694967           
       0.138209              0.0209116704             0.00145436247           
       0.138889              0.0172213773             0.00132563026           
       0.139568              0.0207704244             0.00145520244           
       0.140247              0.0248407918             0.00158932947           
       0.140926              0.0202203565              0.0013929223           
       0.141605              0.0192331649               0.001393008           
       0.142284              0.0193764401             0.00137501798           
       0.142964              0.0227716499             0.00149632711           
       0.143643               0.019492912             0.00138267046           
       0.144322              0.0194911547             0.00135367664           
       0.145001              0.0171066386             0.00129420367           
       0.145680              0.0186120708             0.00131801212           
       0.146359              0.0196957208             0.00136079822           
       0.147039              0.0166755395             0.00126243375           
       0.147718              0.0192746004             0.00133485828           
       0.148397              0.0197137194             0.00137095597           
       0.149076              0.0174090091             0.00124836134           
       0.149755              0.0199934327             0.00135847451           
       0.150434              0.0184109438             0.00130413653           
       0.151114              0.0205157317             0.00136905138           
       0.151793              0.0199503108              0.0013500663           
       0.152472              0.0187946686             0.00128723431           
       0.153151              0.0192856605             0.00131654607           
       0.153830              0.0168075265             0.00122009862           
       0.154509              0.0194289006             0.00130632533           
       0.155188              0.0182815949             0.00126669986           
       0.155868              0.0162963405             0.00118743597           
       0.156547              0.0199946761             0.00132374132           
       0.157226              0.0180196854             0.00122597161           
       0.157905              0.0163712668              0.0011783671           
       0.158584               0.018614356             0.00125422011           
       0.159263              0.0166215799             0.00118954518           
       0.159943               0.017929181             0.00123637097           
       0.160622              0.0167289181             0.00117122224           
       0.161301              0.0176082996             0.00121768341           
       0.161980              0.0168428013             0.00117067426           
       0.162659              0.0180598975             0.00122567044           
       0.163338               0.018106346             0.00121724281           
       0.164018              0.0166789889             0.00116214747           
       0.164697              0.0145452898             0.00109920467           
       0.165376              0.0160612284             0.00112982911           
       0.166055              0.0168326492             0.00116427185           
       0.166734              0.0185874651             0.00121797517           
       0.167413              0.0166941336             0.00115508583           
       0.168093               0.019124845             0.00124801585           
       0.168772              0.0176363249             0.00116341554           
       0.169451              0.0197356129             0.00125335414           
       0.170130              0.0178992854             0.00117795057           
       0.170809               0.017614345             0.00118248231           
       0.171488              0.0164319288             0.00113169253           
       0.172168              0.0168602329             0.00113533398           
       0.172847              0.0167059157             0.00114497164           
       0.173526              0.0158307419             0.00109331508           
       0.174205              0.0168415415             0.00113287289           
       0.174884              0.0167950332             0.00112541208           
       0.175563               0.017326591             0.00114796336           
       0.176243              0.0186717403             0.00120361765           
       0.176922              0.0177100779              0.0011416648           
       0.177601              0.0148877154             0.00105825218           
       0.178280              0.0170996674             0.00112148591           
       0.178959               0.015971384               0.001092573           
       0.179638               0.017352781             0.00113556316           
       0.180317              0.0168950807             0.00111232445           
       0.180997               0.018187535              0.0011603504           
       0.181676              0.0153418644              0.0010543361           
       0.182355               0.016471655             0.00109902902           
       0.183034              0.0169463091             0.00109686071           
       0.183713              0.0152440878              0.0010529839           
       0.184392              0.0164851967             0.00109467874           
       0.185072              0.0164384842             0.00108066875           
       0.185751               0.017607594             0.00112154894           
       0.186430              0.0170717665             0.00109661688           
       0.187109              0.0172193359             0.00111361173           
       0.187788                  0.016306             0.00108100398           
       0.188467              0.0178010341             0.00111610755           
       0.189147              0.0162439761             0.00107697481           
       0.189826              0.0180142536             0.00111408634           
       0.190505              0.0165553464             0.00108560223           
       0.191184              0.0149025723             0.00101514362           
       0.191863              0.0158610325             0.00104948578           
       0.192542              0.0162517734             0.00107235238           
       0.193222               0.016313602             0.00105031301           
       0.193901              0.0170334878             0.00108762215           
       0.194580              0.0153626815             0.00101483548           
       0.195259              0.0172281356             0.00108702777           
       0.195938              0.0162852582             0.00105938631           
       0.196617              0.0142355174            0.000976649656           
       0.197297              0.0165188557              0.0010563597           
       0.197976              0.0171642811             0.00106025896           
       0.198655              0.0166870565             0.00105683457           
       0.199334              0.0172891315             0.00106624456           
       0.200013               0.017474842             0.00107136141           
       0.200692              0.0174237274             0.00107622817           
       0.201371              0.0165741864             0.00103784161           
       0.202051              0.0142670266            0.000965895529           
       0.202730               0.016350239             0.00102368416           
       0.203409              0.0156556321             0.00100842786           
       0.204088              0.0163301977             0.00102878499           
       0.204767              0.0161128014             0.00101654314           
       0.205446              0.0156058594             0.00100237899           
       0.206126              0.0167192799             0.00102342509           
       0.206805              0.0147519997            0.000978954077           
       0.207484              0.0158433372            0.000996280468           
       0.208163              0.0145783788            0.000961423657           
       0.208842              0.0168331067              0.0010303004           
       0.209521              0.0170994827             0.00102979047           
       0.210201              0.0164322898             0.00102076548           
       0.210880              0.0160836381            0.000990061499           
       0.211559              0.0174485593               0.001046463           
       0.212238              0.0152741771            0.000974108757           
       0.212917              0.0173139087             0.00103325973           
       0.213596              0.0152630536            0.000975872375           
       0.214276              0.0152359426            0.000954692496           
       0.214955              0.0148313763            0.000961740216           
       0.215634              0.0152892368            0.000969474041           
       0.216313              0.0150406611            0.000959541653           
       0.216992              0.0146710692            0.000947441658           
       0.217671              0.0159715314            0.000981845483           
       0.218351              0.0148799072            0.000956966656           
       0.219030              0.0157843131            0.000970062323           
       0.219709              0.0169444686             0.00101134977           
       0.220388              0.0154376642            0.000964095183           
       0.221067              0.0143305194            0.000929617433           
       0.221746              0.0163475917            0.000991870776           
       0.222426              0.0142699863            0.000912852291           
       0.223105              0.0167978289             0.00100390352           
       0.223784              0.0156740512            0.000960122569           
       0.224463              0.0151627882            0.000951854255           
       0.225142              0.0163329975            0.000972270935           
       0.225821              0.0138055375            0.000897484292           
       0.226500              0.0144597531            0.000924343288           
       0.227180              0.0152043849            0.000933242156           
       0.227859              0.0152187822            0.000937872557           
       0.228538              0.0165072183            0.000966958475           
       0.229217              0.0135435203            0.000882796872           
       0.229896              0.0146341812            0.000917212759           
       0.230575              0.0160956549            0.000946589056           
       0.231255              0.0156804382             0.00094828789           
       0.231934              0.0137121175             0.00088071644           
       0.232613              0.0138166173            0.000887327717           
       0.233292               0.014830035            0.000910411597           
       0.233971              0.0160884879            0.000947810651           
       0.234650              0.0146660536            0.000915585999           
       0.235330               0.016526546            0.000963439618           
       0.236009               0.013095547             0.00085577212           
       0.236688              0.0150141945              0.0009130411           
       0.237367              0.0158744466            0.000940197136           
       0.238046              0.0155310035            0.000936520263           
       0.238725              0.0141855897            0.000881228786           
       0.239405              0.0139208303            0.000878379679           
       0.240084              0.0148364703            0.000901033101           
       0.240763              0.0146251237             0.00090315843           
       0.241442              0.0156142329            0.000920050279           
       0.242121              0.0157199871            0.000924903299           
       0.242800              0.0146244432            0.000896315885           
       0.243480              0.0151326858             0.00090748857           
       0.244159              0.0138996023            0.000870150621           
       0.244838              0.0144909005            0.000873846847           
       0.245517              0.0155644237            0.000918664213           
       0.246196              0.0138921451            0.000868328972           
       0.246875              0.0134584703            0.000842754187           
       0.247554              0.0131375162            0.000841107012           
       0.248234              0.0128916333            0.000820564823           
       0.248913              0.0130771597            0.000835718559           
       0.249592              0.0155055934            0.000901365557           
       0.250271              0.0154746962            0.000897852363           
       0.250950              0.0148132177            0.000883833459           
       0.251629              0.0161618102            0.000915342698           
       0.252309              0.0130751905            0.000824979712           
       0.252988              0.0148189228            0.000863140468           
       0.253667              0.0142751758            0.000857055032           
       0.254346              0.0143891224            0.000860291734           
       0.255025              0.0137029645            0.000837690282           
       0.255704              0.0134369234            0.000825719341           
       0.256384              0.0153069247             0.00087825665           
       0.257063              0.0135906947            0.000832276014           
       0.257742              0.0155139886            0.000883056847           
       0.258421              0.0142479362            0.000844629306           
       0.259100               0.014391916            0.000850366526           
       0.259779              0.0143153709             0.00084738319           
       0.260459              0.0121671356            0.000782753002           
       0.261138              0.0126479403            0.000782472911           
       0.261817              0.0130684064            0.000811428052           
       0.262496              0.0134601936            0.000815425244           
       0.263175              0.0117649638            0.000763986359           
       0.263854              0.0125603543            0.000785721892           
       0.264534              0.0120417982             0.00076276092           
       0.265213              0.0113293461            0.000751511778           
       0.265892              0.0127073746            0.000785708147           
       0.266571              0.0138504508            0.000818420592           
       0.267250              0.0126690981             0.00078405843           
       0.267929              0.0128368787            0.000788423846           
       0.268609              0.0120223176            0.000767176934           
       0.269288              0.0119921438            0.000753485082           
       0.269967              0.0115924023            0.000748802262           
       0.270646              0.0125668372            0.000776268535           
       0.271325              0.0128560331            0.000786461054           
       0.272004              0.0137290669            0.000804624618           
       0.272683              0.0130977287            0.000786877428           
       0.273363              0.0117981093             0.00075158202           
       0.274042              0.0125056189            0.000769224065           
       0.274721               0.011351684            0.000732441352           
       0.275400              0.0119882759            0.000747714902           
       0.276079              0.0100823035            0.000689598964           
       0.276758              0.0121077071            0.000765233551           
       0.277438              0.0117897639             0.00074664301           
       0.278117              0.0119876167             0.00076657208           
       0.278796              0.0124060482            0.000771920451           
       0.279475              0.0113934116            0.000751966349           
       0.280154               0.011105216            0.000731716146           
       0.280833               0.013037467            0.000797643476           
       0.281513              0.0120069936            0.000777481299           
       0.282192              0.0118612869            0.000759566109           
       0.282871              0.0130257603            0.000801540404           
       0.283550              0.0117600266            0.000765683311           
       0.284229              0.0101727588            0.000722597852           
       0.284908              0.0119206913            0.000790468989           
       0.285588              0.0116000392            0.000770634081           
       0.286267              0.0108826255            0.000758375083           
       0.286946              0.0121232839            0.000795232064           
       0.287625             0.00997664757            0.000733682938           
       0.288304              0.0110167745            0.000760661149           
       0.288983              0.0110299333            0.000770753785           
       0.289663              0.0115032603            0.000791724612           
       0.290342              0.0105063874            0.000752614168           
       0.291021              0.0112145493            0.000781753924           
       0.291700             0.00940865618            0.000706695187           
       0.292379              0.0102735709            0.000755371415           
       0.293058             0.00948122726            0.000722917166           
       0.293738              0.0102530514             0.00074545336           
       0.294417             0.00921995824            0.000715117111           
       0.295096              0.0096107697            0.000722089465           
       0.295775              0.0105814281            0.000769248137           
       0.296454              0.0103696802            0.000751662701           
       0.297133              0.0103282696            0.000753709348           
       0.297812              0.0115011852            0.000799344839           
       0.298492             0.00994201331            0.000744626237           
       0.299171              0.0107463157            0.000772695781           
       0.299850             0.00993873792            0.000738020745           
       0.300529              0.0102706623            0.000758694483           
       0.301208              0.0103241846             0.00076251975           
       0.301887             0.00945278583            0.000728763709           
       0.302567             0.00941788214            0.000723773851           
       0.303246             0.00902982729              0.0007133328           
       0.303925             0.00962459177            0.000745906469           
       0.304604             0.00958004543            0.000728109353           
       0.305283              0.0103950112            0.000769695787           
       0.305962              0.0102020841            0.000757913218           
       0.306642             0.00858866219            0.000704849587           
       0.307321             0.00909960056            0.000723195719           
       0.308000              0.0087694179            0.000701538507           
       0.308679             0.00938660966            0.000741523691           
       0.309358              0.0090216374            0.000717130993           
       0.310037             0.00912986275            0.000723026957           
       0.310717             0.00933219525            0.000730291476           
       0.311396             0.00922970094             0.00073114089           
       0.312075             0.00871041267            0.000719282268           
       0.312754             0.00857636517            0.000699447691           
       0.313433             0.00943765785            0.000740110361           
       0.314112             0.00929170863            0.000734196755           
       0.314792              0.0087852709            0.000718949419           
       0.315471             0.00782296909            0.000670042469           
       0.316150             0.00847267555            0.000703765021           
       0.316829             0.00773073997            0.000676684745           
       0.317508             0.00808238814            0.000684139783           
       0.318187             0.00847137711            0.000709649002           
       0.318866             0.00997580155            0.000759714311           
       0.319546             0.00934004854            0.000746126758           
       0.320225             0.00820558561            0.000699360869           
       0.320904             0.00944286606            0.000738636737           
       0.321583             0.00825762079            0.000705946998           
       0.322262             0.00922131282            0.000734697348           
       0.322941             0.00807764672            0.000696439204           
       0.323621             0.00862240589            0.000715148939           
       0.324300             0.00900673798            0.000731486453           
       0.324979             0.00837146782            0.000706492854           
       0.325658             0.00781769327            0.000683964325           
       0.326337             0.00874113318            0.000724176631           
       0.327016              0.0079206745            0.000684976631           
       0.327696             0.00744331661            0.000671400061           
       0.328375             0.00623082935            0.000609103046           
       0.329054             0.00804086541            0.000695694168           
       0.329733             0.00738181264            0.000669008467           
       0.330412             0.00708019763             0.00064982995           
       0.331091             0.00807942693            0.000706764263           
       0.331771             0.00600831097            0.000593511054           
       0.332450              0.0078575975             0.00069190841           
       0.333129             0.00797197973            0.000695127895           
       0.333808             0.00709683748            0.000656731252           
       0.334487             0.00747013951            0.000676976934           
       0.335166             0.00824802542            0.000700941082           
       0.335846             0.00732478039            0.000672155076           
       0.336525             0.00825479369            0.000706506513           
       0.337204             0.00792980862             0.00069427493           
       0.337883             0.00765972696            0.000683253823           
       0.338562             0.00695272214             0.00065457022           
       0.339241              0.0072317817            0.000668828079           
       0.339921             0.00685265801            0.000640142316           
       0.340600             0.00687251669            0.000653243403           
       0.341279             0.00800023422            0.000697256932           
       0.341958             0.00655877955            0.000640231935           
       0.342637             0.00672169454            0.000638978292           
       0.343316             0.00669535362            0.000639571417           
       0.343995             0.00725709548            0.000676764109           
       0.344675             0.00684749447            0.000645306663           
       0.345354             0.00779740294            0.000693155372           
       0.346033             0.00642230302            0.000627433081           
       0.346712             0.00670003024            0.000644945096           
       0.347391             0.00585207206            0.000606484863           
       0.348070             0.00639747403             0.00062511161           
       0.348750             0.00765041112            0.000693467501           
       0.349429             0.00580608104            0.000596323751           
       0.350108             0.00738733812              0.0006807371           
       0.350787             0.00718086993            0.000659754564           
       0.351466             0.00539895667            0.000582607706           
       0.352145             0.00578378329            0.000603514279           
       0.352825             0.00627914602            0.000625979651           
       0.353504             0.00528543429            0.000574174292           
       0.354183             0.00645639279            0.000627286263           
       0.354862             0.00586275481            0.000611643055           
       0.355541             0.00632595751            0.000627025234           
       0.356220             0.00585534661            0.000604390671           
       0.356900             0.00578229594            0.000606313518           
       0.357579             0.00508212823            0.000561450805           
       0.358258             0.00617737051            0.000627566149           
       0.358937             0.00519509962            0.000564692473           
       0.359616             0.00586051651             0.00060814294           
       0.360295             0.00543465545            0.000586118429           
       0.360975             0.00555525631            0.000590051696           
       0.361654              0.0054278362            0.000586252397           
       0.362333             0.00513387972            0.000567257426           
       0.363012             0.00431351145             0.00052665347           
       0.363691             0.00523541049            0.000568762502           
       0.364370             0.00531240519            0.000580037003           
       0.365050             0.00444116753            0.000527507352           
       0.365729             0.00561044359            0.000598549302           
       0.366408             0.00493290719            0.000562488118           
       0.367087             0.00409767678            0.000504439067           
       0.367766             0.00595077876            0.000620558445           
       0.368445             0.00535609505            0.000578282356           
       0.369124             0.00463432314            0.000542134842           
       0.369804             0.00504664642            0.000564833087           
       0.370483             0.00490988637            0.000559564917           
       0.371162             0.00509140616            0.000573118285           
       0.371841             0.00553492612            0.000587140934           
       0.372520             0.00557525221            0.000601087746           
       0.373199             0.00493277806            0.000558639298           
       0.373879              0.0060290479            0.000624754475           
       0.374558             0.00452454891            0.000533320878           
       0.375237             0.00517388213            0.000571242553           
       0.375916             0.00642789629            0.000648915222           
       0.376595             0.00472821633            0.000545669994           
       0.377274             0.00519347159            0.000581041252           
       0.377954             0.00384554227            0.000492130621           
       0.378633             0.00464822352            0.000547897096           
       0.379312             0.00432999516            0.000528675944           
       0.379991             0.00364175597            0.000482333696           
       0.380670             0.00490506858            0.000569670484           
       0.381349             0.00425158517            0.000522751963           
       0.382029             0.00365064482            0.000491341612           
       0.382708             0.00494499902            0.000559361963           
       0.383387             0.00351544382            0.000482316532           
       0.384066             0.00462606076            0.000548206913           
       0.384745             0.00392685118            0.000507066549           
       0.385424             0.00397228642             0.00051172374           
       0.386104             0.00413765952            0.000516495517           
       0.386783             0.00493002622             0.00057597997           
       0.387462             0.00435469794             0.00052786301           
       0.388141             0.00424492283            0.000529491165           
       0.388820             0.00468562486            0.000552276792           
       0.389499             0.00389355128            0.000506272103           
       0.390178             0.00419383306            0.000527524503           
       0.390858             0.00385581783            0.000501726281           
       0.391537             0.00448952896            0.000546916728           
       0.392216             0.00481351565            0.000559208909           
       0.392895             0.00516188241            0.000581042061           
       0.393574             0.00371819985            0.000491917229           
       0.394253             0.00435283383            0.000534639578           
       0.394933             0.00445279332            0.000546922731           
       0.395612             0.00386713256            0.000494882671           
       0.396291             0.00324869453            0.000462823094           
       0.396970             0.00441523967            0.000534777053           
       0.397649             0.00430901059            0.000529931186           
       0.398328             0.00381430383            0.000496392462           
       0.399008             0.00360720243            0.000481679233           
       0.399687             0.00397010217            0.000507293371           
       0.400366             0.00412193804            0.000514925979           
       0.401045             0.00378573829            0.000492546759           
       0.401724             0.00392442007            0.000502324353           
       0.402403             0.00412185679            0.000518817645           
       0.403083             0.00368335562            0.000483372745           
       0.403762             0.00378405327            0.000492351502           
       0.404441             0.00435633976            0.000531636489           
       0.405120             0.00342254175            0.000469679694           
       0.405799             0.00351857544            0.000474154658           
       0.406478             0.00408824178            0.000511111652           
       0.407158             0.00387570855            0.000496714932           
       0.407837              0.0042088791            0.000522193323           
       0.408516             0.00449058487            0.000534693496           
       0.409195             0.00486432985            0.000562812631           
       0.409874             0.00468835974            0.000560226412           
       0.410553             0.00397756809            0.000521564293           
       0.411233             0.00298641688            0.000449591487           
       0.411912             0.00307775352             0.00046288187           
       0.412591             0.00334226781             0.00048555529           
       0.413270             0.00367317463            0.000506606428           
       0.413949             0.00431494966            0.000555079823           
       0.414628             0.00316325803            0.000474410651           
       0.415307             0.00411441976            0.000547073444           
       0.415987             0.00333466425            0.000488454075           
       0.416666              0.0039878974            0.000530944121           
       0.417345             0.00354311682            0.000508817533           
       0.418024             0.00334213384            0.000494188135           
       0.418703             0.00273487532             0.00044622159           
       0.419382             0.00343023642            0.000497290773           
       0.420062             0.00186291677            0.000367502414           
       0.420741             0.00333938396            0.000494652403           
       0.421420             0.00308054759            0.000476897288           
       0.422099             0.00330246704            0.000493789016           
       0.422778             0.00317468113             0.00048676319           
       0.423457              0.0029969762            0.000475838334           
       0.424137             0.00231521476            0.000411412574           
       0.424816             0.00226727308             0.00041563942           
       0.425495             0.00165180416            0.000354432101           
       0.426174             0.00317735745            0.000491743751           
       0.426853              0.0026960706             0.00045022062           
       0.427532             0.00183414216            0.000374483465           
       0.428212             0.00224230703            0.000416793689           
       0.428891             0.00284812867            0.000468667103           
       0.429570             0.00370129216            0.000534635996           
       0.430249             0.00371800013            0.000533059272           
       0.430928             0.00349867662            0.000528405381           
       0.431607             0.00269172319            0.000455515821           
       0.432287             0.00326997579            0.000505742801           
       0.432966             0.00214661554            0.000413369031           
       0.433645             0.00287286957            0.000478709501           
       0.434324             0.00252353438            0.000445956902           
       0.435003             0.00221408634            0.000418433722           
       0.435682             0.00240797002            0.000439948991           
       0.436361             0.00256914451            0.000453826055           
       0.437041             0.00263071543            0.000458619088           
       0.437720             0.00241456127            0.000441493225           
       0.438399             0.00115117498            0.000306433317           
       0.439078             0.00278854628            0.000490759603           
       0.439757             0.00291315606            0.000498514766           
       0.440436             0.00288510686            0.000507289597           
       0.441116             0.00252587301            0.000482419549           
       0.441795             0.00281716306            0.000510091463           
       0.442474             0.00302927223            0.000530420781           
       0.443153              0.0026906031            0.000511554302           
       0.443832             0.00212351421            0.000455224817           
       0.444511             0.00220179786            0.000461451214           
       0.445191             0.00303021978             0.00055451225           
       0.445870             0.00250844084            0.000504531019           
       0.446549             0.00206072731            0.000462116951           
       0.447228             0.00326510342            0.000578401113           
       0.447907               0.002193997            0.000479820606           
       0.448586             0.00122188847            0.000366692915           
       0.449266             0.00226550415            0.000494715981           
       0.449945             0.00247094484            0.000514552862           
       0.450624             0.00291127003              0.0005673908           
       0.451303             0.00150296685            0.000412961174           
       0.451982             0.00202662587             0.00047657166           
       0.452661             0.00187992016            0.000467549528           
       0.453341             0.00237027086            0.000526836924           
       0.454020             0.00332640001            0.000625065846           
       0.454699             0.00290547593            0.000589516121           
       0.455378             0.00289205362            0.000588468494           
       0.456057             0.00203613856            0.000502550316           
       0.456736             0.00164737684            0.000450625718           
       0.457416            0.000782269919            0.000310534704           
       0.458095             0.00208659054            0.000514506093           
       0.458774             0.00215161021            0.000529365494           
       0.459453             0.00100288831            0.000363232727           
       0.460132             0.00169865577            0.000462518986           
       0.460811             0.00157304124            0.000461695161           
       0.461490             0.00112442494            0.000386376687           
       0.462170             0.00268814141            0.000606731767           
       0.462849             0.00134977427            0.000432721974           
       0.463528             0.00258208888             0.00059711186           
       0.464207             0.00168267246            0.000491044601           
       0.464886            0.000952879034            0.000366644438           
       0.465565             0.00181695516            0.000511850447           
       0.466245            0.000986831045            0.000378388527           
       0.466924             0.00225734289            0.000585807427           
       0.467603             0.00228341832             0.00057668413           
       0.468282              0.0024277594            0.000608732303           
       0.468961            0.000906537674             0.00037442094           
       0.469640            0.000911668042            0.000376976834           
       0.470320            0.000915792575            0.000378089768           
       0.470999             0.00063216736            0.000317095034           
       0.471678            0.000637817316            0.000321570418           
       0.472357             0.00113939776            0.000430999092           
       0.473036             0.00132964577            0.000468532098           
       0.473715                0.00170228            0.000534282649           
       0.474395             0.00106371737            0.000428184465           
       0.475074             0.00140747407            0.000492550349           
       0.475753            0.000522563433            0.000297533768           
       0.476432             0.00166717957            0.000550792282           
       0.477111            4.32065736e-05            8.75966903e-05           
       0.477790             0.00128704227            0.000480643903           
       0.478470            0.000971017868            0.000423005731           
       0.479149             0.00137686976            0.000508918243           
       0.479828            0.000424093815            0.000281779236           
       0.480507            0.000248947574             0.00021763028           
       0.481186            8.29235083e-05            0.000128435626           
       0.481865             0.00121741018            0.000486019367           
       0.482545            0.000866115448             0.00041475786           
       0.483224            0.000878520801            0.000420571857           
       0.483903            0.000710036034            0.000384053691           
       0.484582            0.000519788967            0.000333941892           
       0.485261             0.00131397564            0.000517494926           
       0.485940            0.000774658041            0.000413373844           
       0.486619            0.000543766292            0.000342523428           
       0.487299            0.000754640481             0.00040994256           
       0.487978            0.000316562492            0.000262805974           
       0.488657            0.000160647244            0.000194941164           
       0.489336            0.000364548043            0.000288510976           
       0.490015           -0.000315350453                         0           
       0.490694            -6.9575819e-05                         0           
       0.491374            0.000132566817            0.000178001518           
       0.492053           -0.000315407779                         0           
       0.492732           -0.000315426853                         0           
       0.493411           -0.000315446174                         0           
       0.494090           -0.000315465622                         0           
       0.494769           -0.000315484694                         0           
       0.495449           -0.000315504035                         0           
       0.496128           -5.39591943e-05                         0           
       0.496807           -0.000315542623                         0           
       0.497486           -0.000315561987                         0           
       0.498165            -0.00031558163                         0           
       0.498844            -3.2423806e-05                         0           
       0.499524           -0.000315620415                         0           
       0.500203           -0.000315640162                         0           
       0.500882            -2.1089629e-05                         0           
       0.501561            0.000268151469             0.00028217475           
       0.502240           -0.000315698617                         0           
       0.502919           -0.000315718207                         0           
       0.503599           -0.000315737877                         0           
       0.504278           -0.000315757823                         0           
       0.504957            0.000637817363            0.000449605026           
       0.505636           -0.000315797119                         0           
       0.506315            8.93147961e-06             5.3787311e-05           
       0.506994             0.00102469162            0.000585851091           
       0.507673           -0.000315856089                         0           
       0.508353           -0.000315876013                         0           
       0.509032           -0.000315895851                         0           
       0.509711           -0.000315915697                         0           
       0.510390           -0.000315935855                         0           
       0.511069           -0.000315955946                         0           
       0.511748           -0.000315975956                         0           
       0.512428            -0.00031599611                         0           
       0.513107           -0.000316015952                         0           
       0.513786            7.83415779e-05             0.00017636118           
       0.514465           -0.000316056102                         0           
       0.515144             0.00050142373            0.000455472545           
       0.515823           -0.000316096379                         0           
       0.516503           -0.000316116614                         0           
       0.517182            0.000100424034            0.000204932087           
       0.517861            -0.00031615703                         0           
       0.518540           -0.000316177327                         0           
       0.519219           -0.000316197507                         0           
       0.519898           -0.000316217891                         0           
       0.520578           -0.000316238397                         0           
       0.521257           -0.000316258639                         0           
       0.521936           -0.000316278929                         0           
       0.522615           -0.000316299462                         0           
       0.523294           -0.000316320071                         0           
       0.523973           -0.000316340396                         0           
       0.524653           -0.000316360574                         0           
       0.525332           -0.000316381045                         0           
       0.526011            0.000192119626            0.000313190222           
       0.526690           -0.000316422685                         0           
       0.527369           -0.000316443314                         0           
       0.528048            0.000188258572            0.000306769526           
       0.528728            -0.00031648484                         0           
       0.529407           -0.000316505495                         0           
       0.530086           -0.000316526043                         0           
       0.530765            -0.00031654662                         0           
       0.531444            -0.00031656742                         0           
       0.532123            0.000246152837            0.000372723858           
       0.532802            0.000219351591            0.000342991276           
       0.533482           -0.000316630504                         0           
       0.534161            0.000803714447            0.000671965843           
       0.534840           -0.000316672238                         0           
       0.535519             -0.0003166934                         0           
       0.536198           -0.000316714342                         0           
       0.536877           -0.000316734996                         0           
       0.537557           -0.000316756006                         0           
       0.538236           -0.000316777204                         0           
       0.538915           -0.000316798395                         0           
       0.539594           -0.000316819558                         0           
       0.540273           -0.000316841051                         0           
       0.540952           -0.000316862304                         0           
       0.541632            -0.00031688317                         0           
       0.542311            0.000308160071            0.000440981189           
       0.542990           -0.000316925519                         0           
       0.543669           -0.000316946989                         0           
       0.544348           -0.000316968434                         0           
       0.545027           -0.000316989833                         0           
       0.545707           -0.000317011296                         0           
       0.546386            -0.00031703282                         0           
       0.547065           -0.000317054085                         0           
       0.547744           -0.000317075447                         0           
       0.548423           -0.000317097044                         0           
       0.549102           -0.000317118664                         0           
       0.549782           -0.000317140174                         0           
       0.550461           -0.000317161939                         0           
       0.551140            0.000456785248            0.000589652372           
       0.551819           -0.000317205474                         0           
       0.552498           -0.000317227297                         0           
       0.553177           -0.000317248745                         0           
       0.553856           -0.000317270271                         0           
       0.554536           -0.000317291867                         0           
       0.555215           -0.000317313792                         0           
       0.555894           -0.000317335666                         0           
       0.556573           -0.000317357669                         0           
       0.557252           -0.000317379655                         0           
       0.557931            -0.00031740154                         0           
       0.558611           -0.000317423937                         0           
       0.559290            0.000664280558            0.000801133282           
       0.559969           -0.000317467056                         0           
       0.560648           -0.000317488912                         0           
       0.561327           -0.000317511254                         0           
       0.562006           -0.000317533492                         0           
       0.562686           -0.000317555743                         0           
       0.563365           -0.000317578077                         0           
       0.564044            0.000865338526             0.00101944233           
       0.564723           -0.000317622469                         0           
       0.565402           -0.000317644227                         0           
       0.566081            -0.00031766613                         0           
       0.566761           -0.000317688269                         0           
       0.567440           -0.000317710857                         0           
       0.568119           -0.000317733267                         0           
       0.568798             0.00108210422             0.00124534352           
       0.569477           -0.000317778572                         0           
       0.570156           -0.000317801261                         0           
       0.570836           -0.000317823864                         0           
       0.571515            -0.00031784599                         0           
       0.572194           -0.000317868757                         0           
       0.572873           -0.000317891003                         0           
       0.573552           -0.000317913118                         0           
       0.574231           -0.000317935682                         0           
       0.574911           -0.000317958814                         0           
       0.575590           -0.000317981501                         0           
       0.576269           -0.000318004119                         0           
       0.576948           -0.000318027172                         0           
       0.577627           -0.000318049521                         0           
       0.578306           -0.000318072186                         0           
       0.578985           -0.000318095044                         0           
       0.579665           -0.000318117771                         0           
       0.580344           -0.000318140842                         0           
       0.581023           -0.000318163887                         0           
       0.581702            -0.00031818672                         0           
       0.582381           -0.000318209345                         0           
       0.583060             0.00224272095             0.00243669133           
       0.583740           -0.000318255579                         0           
       0.584419            -0.00031827859                         0           
       0.585098           -0.000318301573                         0           
       0.585777           -0.000318324735                         0           
       0.586456           -0.000318348273                         0           
       0.587135           -0.000318371186                         0           
       0.587815           -0.000318393852                         0           
       0.588494           -0.000318417224                         0           
       0.589173           -0.000318441132                         0           
       0.589852            -0.00031846377                         0           
       0.590531           -0.000318487262                         0           
       0.591210           -0.000318510211                         0           
       0.591890           -0.000318533604                         0           
       0.592569           -0.000318556214                         0           
       0.593248           -0.000318580934                         0           
       0.593927           -0.000318604436                         0           
       0.594606           -0.000318628422                         0           
       0.595285           -0.000318650979                         0           
       0.595965           -0.000318672028                         0           
       0.596644           -0.000318693689                         0           
