################################################################################
# EDF_DataBlockID                     0.Image.Psd
# EDF_BinarySize                      2105344
# EDF_HeaderSize                      2560
# ByteOrder                           LowByteFirst
# DataType                            FloatValue
# Dim_1                               512
# Dim_2                               1028
# Image                               0
# HeaderID                            EH:000000:000000:000000
# Size                                2105344
# Center_1                            304.9000
# Center_2                            588.7000
# Comment                             Xenocs_Cell_Window - 20251028_20perc_iodine_1.23mg
# DDummy                              0.6
# Date                                2025-11-02T11:12:56
# Delta                               21.910000
# Dummy                               -1.5
# ExposureTime                        360
# Gamma                               15.360000
# Intensity1                          8.76877e-10
# PSize_1                             7.5e-05
# PSize_2                             7.5e-05
# Pressure                            0.0325785
# SampleDistance                      0.115750
# SampleEnvKind                       large
# SampleEnvPN                         ElectroChemical cell
# SampleEnvSN                         1141
# Thickness                           0
# Wavelength                          1.541891e-10
# Wavelength                          1.54189e-10
# aux                                 0
# aux_dial                            0.002375
# beamx                               588.434
# beamx_dial                          588.434
# beamz                               657.808
# beamz_dial                          657.808
# det0x                               0
# det0x_dial                          6.36945
# det0xvd                             0
# det0xvd_dial                        0
# det0y                               450.002
# det0y_dial                          481.635
# det0z                               0
# det0z_dial                          1.23302
# det0zvd                             0
# det0zvd_dial                        0
# mag                                 1.818
# mag_dial                            1.818
# om                                  0.2499
# om_dial                             -0.610199
# phi                                 -0.0120535
# phi_dial                            0
# ry                                  0.599993
# ry_dial                             0.599993
# s1bot                               0.8
# s1bot_dial                          -1.66094
# s1hl                                0.8
# s1hl_dial                           -0.608437
# s1hr                                0.8
# s1hr_dial                           0.970938
# s1top                               0.8
# s1top_dial                          -0.461562
# s2bot                               0.45
# s2bot_dial                          1.36109
# s2hl                                0.45
# s2hl_dial                           -0.83375
# s2hr                                0.45
# s2hr_dial                           -0.118594
# s2top                               0.45
# s2top_dial                          1.44734
# w2theta                             32
# w2theta_dial                        32
# waxsch                              19.2605
# waxsch_dial                         -32.7355
# waxsh                               137.085
# waxsh_dial                          -43.5338
# waxsth                              26.0607
# waxsth_dial                         -19.4086
# waxsz                               67.0407
# waxsz_dial                          -23.7954
# wind                                65.9854
# wind_dial                           66.0041
# wpsi                                124
# wpsi_dial                           124
# wstod                               115
# wstod_dial                          115
# x                                   0
# x_dial                              1.00969
# z                                   0
# z_dial                              13.3172
# CountCutoff                         6807993
# DetectorModel                       Dectris EIGER2 Si 500K, S/N E-01-0554
# ThresholdSetting                    4023.88989258
# Saturation                          0
# FlatField                           Corrected
# BackgroundReductionExtra            0.02
# BackgroundCorrectionConstant        0.0026712
# Detector                            0
# Monitor                             0
# Pil_Roi0                            0
# SumForIntensity1                    3.15676e+08
# TransmittedFlux                     876877
# det                                 0
# mon                                 0
# pilai0                              3.15676e+08
# pilai1                              794864
# pilct0                              5.45914e+08
# pilct1                              794864
# pilroi0                             0
# pilroi1                             0
# sec                                 1
# title                               20251028_20perc_iodine_1.23mg_1_01062.edf
# usaxs0                              0
# Operation                           Azimuthal average I(q)
# Error_model                         ErrorModel.poisson
# Geometrical_correction              True
# Transmission_correction             True
# Thickness_correction                False
# Binning mode                        Uniform
# Binning factor                      1.0
# Psi                                 0.0
# Omega                               0.2499
# MaskInvalidPixels                   True
# DetectorEdge                        3
# MaskFiles                           ['WAXS_corrected.edf']
################################################################################
    q(A⁻¹)                Intensity(a.u.)            Sigma_I(a.u.)            
       0.693100             0.00807002066             0.00591400997           
       0.695741             0.00541848034             0.00395449653           
       0.698381             0.00416484962             0.00424683089           
       0.701021              0.0258350024              0.0149527731           
       0.703662              0.0110941103             0.00565591916           
       0.706302             0.00676008959             0.00341814383           
       0.708942               0.011181319             0.00567390006           
       0.711583              0.0107178081             0.00481031973           
       0.714223              0.0142640378             0.00640681401           
       0.716864             0.00607549483              0.0027357883           
       0.719504              0.0114960287             0.00406100416           
       0.722144             0.00366054794             0.00212216615           
       0.724785             0.00618783229             0.00220093392           
       0.727425              0.0085621414             0.00350242611           
       0.730065             0.00995968363             0.00267203273           
       0.732706             0.00750310997             0.00194754904           
       0.735346             0.00855791944             0.00271128989           
       0.737987             0.00722844377             0.00176080528           
       0.740627             0.00758416767             0.00269109714           
       0.743267             0.00940431859             0.00200715651           
       0.745908             0.00709162004             0.00189103264           
       0.748548              0.0106599602             0.00213706888           
       0.751189             0.00704306901             0.00234065944           
       0.753829              0.0118329536             0.00278887432           
       0.756469             0.00596464268             0.00159664339           
       0.759110             0.00757121049             0.00189569693           
       0.761750              0.0103687011             0.00196159383           
       0.764390             0.00523549746             0.00145891957           
       0.767031             0.00456103522             0.00117918854           
       0.769671             0.00715213765              0.0018419766           
       0.772312             0.00575690995             0.00125809155           
       0.774952              0.0039866472             0.00141377776           
       0.777592              0.0100753013              0.0016370557           
       0.780233             0.00579464047             0.00149786079           
       0.782873             0.00956169104              0.0018402134           
       0.785513              0.0109532659             0.00210560269           
       0.788154             0.00703696966             0.00141182647           
       0.790794             0.00686431127             0.00166703992           
       0.793435             0.00522449321              0.0013065313           
       0.796075             0.00485261659              0.0012129751           
       0.798715             0.00973725573              0.0020304623           
       0.801356             0.00652332136             0.00143036522           
       0.803996             0.00647598587             0.00145297525           
       0.806637             0.00840894501             0.00131761414           
       0.809277             0.00679570738             0.00128208306           
       0.811917             0.00803768596             0.00130347285           
       0.814558              0.0070492692             0.00126869836           
       0.817198             0.00537374493             0.00105237348           
       0.819838              0.0080386283             0.00130267044           
       0.822479             0.00990238687             0.00169778475           
       0.825119             0.00799425169             0.00129836056           
       0.827760             0.00783142458             0.00130172614           
       0.830400             0.00688587807             0.00114882561           
       0.833040             0.00754718127              0.0012600869           
       0.835681              0.0089558608             0.00156047517           
       0.838321             0.00785998257             0.00122700887           
       0.840961             0.00767277755             0.00132086736           
       0.843602             0.00667188655             0.00112952516           
       0.846242             0.00783261484             0.00122365838           
       0.848883             0.00680477047             0.00116718667           
       0.851523              0.0089583534             0.00132257145           
       0.854163              0.0092820658             0.00143168193           
       0.856804              0.0071403177             0.00112903895           
       0.859444             0.00649058902             0.00105470901           
       0.862085             0.00689438246              0.0011329489           
       0.864725              0.0101543689             0.00140712654           
       0.867365             0.00704493846             0.00108682892           
       0.870006             0.00895049011             0.00116735749           
       0.872646             0.00754402283             0.00112384836           
       0.875286             0.00725677168             0.00106042744           
       0.877927             0.00646473071            0.000965807954           
       0.880567             0.00604263104            0.000967379476           
       0.883208             0.00772152579             0.00108323967           
       0.885848             0.00765763823             0.00112006609           
       0.888488             0.00833070464             0.00109574969           
       0.891129             0.00757959896             0.00107318795           
       0.893769             0.00917496885              0.0011300007           
       0.896410             0.00781966994            0.000972634763           
       0.899050             0.00656248986             0.00097988528           
       0.901690             0.00920006832             0.00126380533           
       0.904331             0.00723334096            0.000993481617           
       0.906971             0.00693774479                0.00103508           
       0.909611             0.00690352154            0.000939927191           
       0.912252             0.00667876463             0.00095491146           
       0.914892             0.00816305127             0.00115365712           
       0.917533             0.00608986492             0.00094263547           
       0.920173             0.00791883554             0.00099730172           
       0.922813             0.00813414019             0.00106068776           
       0.925454               0.009205213             0.00101605936           
       0.928094             0.00713389756            0.000954921736           
       0.930734              0.0081252088               0.001097186           
       0.933375             0.00797522088             0.00107632602           
       0.936015             0.00896605039             0.00103648065           
       0.938656             0.00773722077             0.00103289739           
       0.941296             0.00816589104            0.000961671287           
       0.943936              0.0070766129            0.000877917745           
       0.946577             0.00772955045            0.000911459762           
       0.949217             0.00726202981            0.000812426282           
       0.951858              0.0060592332            0.000776833013           
       0.954498             0.00759593784             0.00100675528           
       0.957138             0.00742803771            0.000943162975           
       0.959779             0.00731916852            0.000922926133           
       0.962419             0.00744172786            0.000924431059           
       0.965059             0.00672892087            0.000924523719           
       0.967700             0.00851982966             0.00106547904           
       0.970340             0.00792852127             0.00090953676           
       0.972981             0.00811852463            0.000838545882           
       0.975621             0.00756073129            0.000860877714           
       0.978261             0.00678808164            0.000775063137           
       0.980902             0.00933738608             0.00108760403           
       0.983542             0.00675232495            0.000819040438           
       0.986182               0.010847869             0.00101922767           
       0.988823             0.00768748779            0.000833127006           
       0.991463             0.00852414019            0.000935979281           
       0.994104             0.00743203174            0.000852567652           
       0.996744              0.0100012234             0.00100878451           
       0.999384             0.00969332612             0.00088819484           
       1.002025             0.00821764071            0.000912769274           
       1.004665              0.0092599863            0.000885482558           
       1.007306             0.00796291519            0.000816925055           
       1.009946             0.00741770557            0.000804121299           
       1.012586             0.00768692498            0.000797252314           
       1.015227             0.00735367308            0.000837726945           
       1.017867             0.00757436212             0.00081710524           
       1.020507             0.00702829188             0.00076241322           
       1.023148             0.00864510595            0.000912395498           
       1.025788             0.00743968406             0.00077608128           
       1.028429             0.00657246369            0.000764216256           
       1.031069             0.00976837552            0.000876739779           
       1.033709             0.00779608988            0.000832591989           
       1.036350             0.00702578442            0.000709877917           
       1.038990             0.00788796903            0.000765997186           
       1.041630             0.00825323541            0.000817231708           
       1.044271             0.00815319445            0.000763904414           
       1.046911             0.00752157227            0.000771776089           
       1.049552              0.0085855957            0.000866304812           
       1.052192              0.0095513246            0.000834350218           
       1.054832             0.00807649213            0.000774213643           
       1.057473             0.00903287723            0.000807135406           
       1.060113              0.0085095966            0.000764035525           
       1.062754             0.00902050398            0.000803142688           
       1.065394             0.00974070811            0.000882376146           
       1.068034             0.00906275008            0.000774398392           
       1.070675             0.00756766249            0.000738160465           
       1.073315             0.00763413648            0.000752022286           
       1.075955             0.00784276008            0.000719587333           
       1.078596             0.00849905032            0.000796134509           
       1.081236             0.00849194583            0.000762032053           
       1.083877             0.00805162223            0.000735356358           
       1.086517             0.00764069419            0.000768132063           
       1.089157             0.00789533613            0.000810195442           
       1.091798              0.0086783658            0.000744702189           
       1.094438             0.00960313548            0.000780847461           
       1.097078             0.00924415022            0.000734783329           
       1.099719             0.00826258236            0.000751400733           
       1.102359              0.0090548419             0.00073666066           
       1.105000             0.00809354152            0.000778778298           
       1.107640             0.00972828462            0.000816383902           
       1.110280             0.00860297081            0.000700482186           
       1.112921              0.0089592728            0.000767893442           
       1.115561             0.00857131239            0.000713842013           
       1.118202             0.00828906299            0.000702651847           
       1.120842             0.00855869916            0.000750406772           
       1.123482             0.00834596766            0.000737785685           
       1.126123             0.00826219493            0.000704099557           
       1.128763             0.00771954956            0.000685251242           
       1.131403              0.0088064932            0.000705254192           
       1.134044             0.00783499501            0.000684510224           
       1.136684             0.00938391192            0.000798693922           
       1.139325             0.00823783272            0.000689363526           
       1.141965             0.00962607947            0.000750115535           
       1.144605             0.00818888696            0.000659686993           
       1.147246             0.00923143642            0.000716821902           
       1.149886              0.0085159222            0.000686037732           
       1.152527             0.00903814831            0.000717037589           
       1.155167             0.00832849599            0.000654689761           
       1.157807             0.00969629304            0.000757394388           
       1.160448             0.00925843627            0.000722722659           
       1.163088             0.00862407376             0.00066533514           
       1.165728             0.00984203388             0.00072975691           
       1.168369             0.00919385497             0.00071183356           
       1.171009             0.00964200632            0.000707451614           
       1.173650             0.00851311163            0.000682190198           
       1.176290              0.0106544845            0.000745799006           
       1.178930             0.00911502221            0.000676084325           
       1.181571             0.00869177328            0.000673293051           
       1.184211             0.00837894187            0.000663409411           
       1.186851             0.00929101773            0.000682995586           
       1.189492             0.00843208364            0.000646282071           
       1.192132             0.00971840142            0.000686043632           
       1.194773             0.00968228659            0.000687759661           
       1.197413             0.00901035468            0.000635694367           
       1.200053             0.00938970951            0.000665426972           
       1.202694             0.00960151504            0.000639880078           
       1.205334             0.00945656864            0.000684365558           
       1.207975              0.0098293972            0.000665998977           
       1.210615              0.0104227055            0.000756558927           
       1.213255             0.00920460857            0.000636663006           
       1.215896             0.00994977521            0.000673925867           
       1.218536              0.0108189722            0.000675720528           
       1.221176             0.00967794849            0.000694827938           
       1.223817              0.0102335256            0.000670707137           
       1.226457             0.00950995302            0.000659586752           
       1.229098             0.00936793375            0.000654611281           
       1.231738              0.0100682743            0.000681979462           
       1.234378             0.00924042152             0.00061391172           
       1.237019             0.00882328258            0.000618185954           
       1.239659             0.00951208791            0.000636271176           
       1.242299              0.0102655002            0.000652591268           
       1.244940             0.00936978944             0.00060636444           
       1.247580               0.009970033            0.000644613746           
       1.250221             0.00961637862            0.000629171419           
       1.252861              0.0106277836            0.000629685511           
       1.255501              0.0107033615            0.000686144885           
       1.258142             0.00996535877            0.000622131104           
       1.260782             0.00993421995            0.000634598517           
       1.263423              0.0104790537            0.000626275568           
       1.266063              0.0100112146            0.000627421712           
       1.268703              0.0105310261             0.00063816454           
       1.271344             0.00952962244            0.000627638839           
       1.273984              0.0105267869            0.000637101031           
       1.276624              0.0103479907            0.000619800477           
       1.279265              0.0106234353            0.000638424125           
       1.281905             0.00967145545            0.000611851345           
       1.284546              0.0112085043            0.000636673009           
       1.287186              0.0100499079            0.000591479407           
       1.289826             0.00981750376             0.00061612098           
       1.292467              0.0104644244             0.00062208613           
       1.295107               0.010364533            0.000612959865           
       1.297747              0.0111510617            0.000608400448           
       1.300388              0.0106369709            0.000647764575           
       1.303028             0.00927478442            0.000577442647           
       1.305669              0.0100271136            0.000614702059           
       1.308309               0.012409742            0.000677111356           
       1.310949             0.00945898279            0.000590560327           
       1.313590              0.0105705744            0.000604782312           
       1.316230              0.0117185039             0.00067952714           
       1.318871              0.0100786019             0.00061719282           
       1.321511               0.010447217            0.000616730919           
       1.324151              0.0104041208            0.000597211501           
       1.326792              0.0114527249            0.000630458639           
       1.329432              0.0101692729             0.00058989069           
       1.332072              0.0110848454             0.00060669495           
       1.334713              0.0107266085            0.000615968121           
       1.337353              0.0111020989            0.000600976106           
       1.339994              0.0109771944            0.000627106864           
       1.342634              0.0115502688            0.000616853577           
       1.345274              0.0107542695            0.000615995326           
       1.347915              0.0103048054            0.000586334113           
       1.350555              0.0114337569             0.00062843457           
       1.353195              0.0106478715            0.000609431371           
       1.355836              0.0106492639            0.000599967659           
       1.358476              0.0107316655            0.000584909587           
       1.361117              0.0114308158            0.000604490531           
       1.363757              0.0116509824            0.000628919003           
       1.366397              0.0100461763             0.00056632875           
       1.369038              0.0102233349            0.000576988939           
       1.371678              0.0118581462            0.000615933537           
       1.374319              0.0105227036            0.000575219076           
       1.376959              0.0121973652            0.000613074163           
       1.379599              0.0109567284            0.000622719599           
       1.382240              0.0108203526            0.000581609225           
       1.384880              0.0113245728            0.000630246768           
       1.387520              0.0110769761            0.000591985229           
       1.390161             0.00992548395            0.000532218392           
       1.392801             0.00943454986            0.000540632242           
       1.395442              0.0119493711            0.000616744383           
       1.398082              0.0118620095            0.000575439124           
       1.400722              0.0100338329            0.000554368054           
       1.403363              0.0123455979            0.000647281306           
       1.406003              0.0104224532            0.000556590127           
       1.408644               0.011437894             0.00061080776           
       1.411284              0.0107067552            0.000559589733           
       1.413924              0.0115253053             0.00057843423           
       1.416565              0.0109644865            0.000561969307           
       1.419205              0.0115009459            0.000600393487           
       1.421845              0.0110681373            0.000588642179           
       1.424486              0.0117449204            0.000582862886           
       1.427126             0.00982617822            0.000553819685           
       1.429767               0.010950232            0.000550074166           
       1.432407              0.0106370792            0.000567374368           
       1.435047              0.0110924893            0.000544145918           
       1.437688              0.0116099036            0.000565015774           
       1.440328              0.0110241686            0.000561927084           
       1.442968              0.0110684497            0.000575670062           
       1.445609              0.0111832203            0.000560290741           
       1.448249              0.0110027253            0.000569822095           
       1.450890              0.0113661213            0.000575375517           
       1.453530              0.0108866886            0.000589126179           
       1.456170              0.0117875012            0.000594945704           
       1.458811               0.010817219            0.000544982639           
       1.461451              0.0111891547            0.000555726703           
       1.464092              0.0107129112              0.0005473265           
       1.466732               0.011583221            0.000564234015           
       1.469372              0.0117070302            0.000553966263           
       1.472013              0.0110912225            0.000581537674           
       1.474653              0.0111814894            0.000574891938           
       1.477293              0.0109143325            0.000579953709           
       1.479934              0.0107452233            0.000549093027           
       1.482574              0.0111287096            0.000540556939           
       1.485215              0.0110839569            0.000549516686           
       1.487855              0.0107069908            0.000547215999           
       1.490495              0.0111206068            0.000555631544           
       1.493136              0.0106245198            0.000535652713           
       1.495776              0.0106664893            0.000534265834           
       1.498416              0.0103552412            0.000543635932           
       1.501057               0.010967914            0.000547156815           
       1.503697              0.0111316968            0.000538912312           
       1.506338              0.0107564779            0.000539432253           
       1.508978               0.010147526            0.000518787887           
       1.511618             0.00982915498            0.000543770261           
       1.514259              0.0107949944            0.000550173638           
       1.516899              0.0113842204            0.000550112277           
       1.519540              0.0108204198            0.000544965739           
       1.522180              0.0106846993             0.00054629433           
       1.524820              0.0107028134            0.000543689645           
       1.527461              0.0115436068            0.000567434101           
       1.530101              0.0105064219            0.000535928449           
       1.532741              0.0114668635            0.000556639472           
       1.535382              0.0104642639            0.000540308684           
       1.538022              0.0110973947            0.000524171533           
       1.540663              0.0109893481            0.000561027604           
       1.543303              0.0111540616            0.000524812683           
       1.545943              0.0111899655             0.00055636877           
       1.548584              0.0106073275            0.000551414357           
       1.551224             0.00982132444            0.000490581784           
       1.553864              0.0104151106            0.000533832044           
       1.556505              0.0109496645            0.000528763986           
       1.559145              0.0104777688             0.00052358068           
       1.561786              0.0105556137            0.000525926793           
       1.564426              0.0109192283            0.000518270668           
       1.567066              0.0109153861            0.000542952601           
       1.569707             0.00994264537            0.000508886733           
       1.572347               0.011402666            0.000563009479           
       1.574988             0.00918431659            0.000480946072           
       1.577628              0.0104507259            0.000534968012           
       1.580268             0.00941530664             0.00049198047           
       1.582909              0.0103440281            0.000546594234           
       1.585549             0.00990918225            0.000519450349           
       1.588189             0.00979134555            0.000505082956           
       1.590830             0.00981054371            0.000504943323           
       1.593470              0.0103917491            0.000540262687           
       1.596111             0.00951684116            0.000504771803           
       1.598751              0.0103429401            0.000509893452           
       1.601391              0.0110527893            0.000538729725           
       1.604032             0.00913059549            0.000499884817           
       1.606672             0.00973301582            0.000501451982           
       1.609312             0.00952837244            0.000517924965           
       1.611953              0.0088146295            0.000487470131           
       1.614593              0.0100155425             0.00050970297           
       1.617234              0.0101781855            0.000532516123           
       1.619874             0.00890125464            0.000496025749           
       1.622514             0.00913371929            0.000495606785           
       1.625155               0.010067652            0.000523402212           
       1.627795             0.00899691663            0.000482663859           
       1.630436             0.00947440886            0.000492720136           
       1.633076              0.0102095188            0.000518186153           
       1.635716             0.00918274151            0.000483792324           
       1.638357             0.00888633442            0.000477174632           
       1.640997             0.00995861629            0.000520446222           
       1.643637              0.0100096044            0.000507747698           
       1.646278             0.00866673025            0.000487307098           
       1.648918             0.00919484238            0.000503303971           
       1.651559              0.0089571442            0.000500611416           
       1.654199             0.00863072654            0.000477934608           
       1.656839             0.00815414299            0.000464713762           
       1.659480             0.00935855499            0.000516547885           
       1.662120             0.00951738279            0.000490613963           
       1.664761             0.00802929307            0.000468087921           
       1.667401             0.00967346057            0.000491066518           
       1.670041             0.00749801055            0.000438929173           
       1.672682             0.00970138171            0.000497221062           
       1.675322             0.00792520409            0.000446515159           
       1.677962             0.00874938065             0.00046398313           
       1.680603             0.00854398183            0.000459915528           
       1.683243              0.0093251293            0.000501291308           
       1.685884             0.00921143907            0.000501905332           
       1.688524             0.00875787137            0.000479932519           
       1.691164             0.00849151467             0.00047268524           
       1.693805             0.00888330798            0.000488778056           
       1.696445             0.00886877269            0.000491210954           
       1.699085              0.0093919491            0.000488553757           
       1.701726             0.00817434086            0.000439070127           
       1.704366             0.00885157763            0.000481327969           
       1.707007             0.00850743837             0.00046135979           
       1.709647             0.00863907366            0.000470165719           
       1.712287             0.00901291404             0.00048441082           
       1.714928             0.00921753341             0.00049382842           
       1.717568             0.00858513263            0.000448946879           
       1.720209             0.00901919918            0.000481981883           
       1.722849             0.00888081165            0.000475811072           
       1.725489             0.00799054858            0.000451711381           
       1.728130             0.00900909979             0.00050972061           
       1.730770             0.00904589067            0.000485085049           
       1.733410             0.00952525387            0.000489947549           
       1.736051             0.00812679284            0.000455704503           
       1.738691             0.00945979291            0.000481693041           
       1.741332             0.00789734059            0.000452988237           
       1.743972             0.00950397329            0.000513169196           
       1.746612             0.00932613481             0.00048814109           
       1.749253             0.00889478139            0.000486133096           
       1.751893             0.00908767678            0.000487769262           
       1.754533             0.00738531721            0.000439305662           
       1.757174              0.0080713245            0.000454955081           
       1.759814             0.00824743767            0.000452920702           
       1.762455              0.0076297773            0.000443629906           
       1.765095             0.00806218301            0.000436245926           
       1.767735             0.00858578142            0.000464077423           
       1.770376             0.00863058084            0.000466513217           
       1.773016             0.00839503249            0.000457021175           
       1.775657             0.00855596117            0.000454742177           
       1.778297              0.0090433554            0.000463489378           
       1.780937             0.00896313974            0.000487038349           
       1.783578             0.00815209547            0.000452866746           
       1.786218             0.00901037871            0.000496872901           
       1.788858             0.00929100285            0.000479201722           
       1.791499             0.00769021573            0.000431073384           
       1.794139             0.00869236071            0.000454582732           
       1.796780             0.00899317137            0.000460152455           
       1.799420               0.009635431            0.000473662695           
       1.802060             0.00747501649            0.000420565381           
       1.804701             0.00867539411             0.00043479334           
       1.807341              0.0101471525            0.000494109494           
       1.809981             0.00905866428            0.000468412778           
       1.812622             0.00910909806            0.000461258512           
       1.815262             0.00936960097            0.000477744889           
       1.817903             0.00915906717            0.000465348254           
       1.820543             0.00792114971            0.000439502836           
       1.823183             0.00845454987            0.000453809933           
       1.825824             0.00862063427            0.000437789343           
       1.828464             0.00845511979             0.00045201155           
       1.831105             0.00873804757            0.000446807469           
       1.833745             0.00881437792            0.000458338788           
       1.836385              0.0078317414            0.000444365647           
       1.839026             0.00818888228            0.000452949013           
       1.841666             0.00753233758            0.000432871684           
       1.844306             0.00873524342            0.000453437245           
       1.846947             0.00832781018             0.00044661717           
       1.849587              0.0076513586            0.000472719711           
       1.852228             0.00852718256            0.000451257756           
       1.854868             0.00860079279             0.00047874014           
       1.857508             0.00820045615             0.00046288069           
       1.860149             0.00786007629            0.000461405882           
       1.862789              0.0080982076            0.000452059477           
       1.865429             0.00802578946            0.000469766296           
       1.868070             0.00858985958            0.000479516661           
       1.870710             0.00864533876            0.000469971991           
       1.873351              0.0072183918            0.000434747557           
       1.875991             0.00774839701             0.00045777642           
       1.878631             0.00816197749            0.000460836427           
       1.881272             0.00820316729            0.000458902265           
       1.883912             0.00849917875            0.000486124232           
       1.886553             0.00766924559            0.000456617285           
       1.889193             0.00799389495            0.000465385175           
       1.891833              0.0081075341            0.000486743911           
       1.894474             0.00832774471            0.000489013673           
       1.897114             0.00776849452            0.000457043047           
       1.899754             0.00901695755            0.000494460973           
       1.902395               0.007704919            0.000448137168           
       1.905035              0.0085009912            0.000498570294           
       1.907676             0.00857010712            0.000471810342           
       1.910316             0.00787680775            0.000464333784           
       1.912956             0.00848037822            0.000471195975           
       1.915597             0.00785151104            0.000455922514           
       1.918237             0.00756503065            0.000462187053           
       1.920878             0.00801005147            0.000473640233           
       1.923518             0.00751144937            0.000458856654           
       1.926158             0.00802562806            0.000468146928           
       1.928799             0.00817288563            0.000466953864           
       1.931439             0.00819287477            0.000479787242           
       1.934079             0.00750725172            0.000478780926           
       1.936720             0.00801782218            0.000458441159           
       1.939360             0.00858091839             0.00050597602           
       1.942001             0.00822882968            0.000454139035           
       1.944641             0.00836618553             0.00046693347           
       1.947281             0.00829667233            0.000460703549           
       1.949922             0.00751985417            0.000453040919           
       1.952562             0.00760139209            0.000469768094           
       1.955202             0.00667227546            0.000439586372           
       1.957843             0.00806456974             0.00047074609           
       1.960483             0.00800360505            0.000490300601           
       1.963124             0.00841990473            0.000492573214           
       1.965764             0.00750651963            0.000438592407           
       1.968404             0.00725963149            0.000427244217           
       1.971045             0.00789403746            0.000454232418           
       1.973685             0.00701863775            0.000449261838           
       1.976326             0.00766054931            0.000462906042           
       1.978966             0.00789331425            0.000474009741           
       1.981606             0.00783185186            0.000482007877           
       1.984247             0.00844570239            0.000497250339           
       1.986887             0.00783144839             0.00047309079           
       1.989527             0.00805188946            0.000474536803           
       1.992168             0.00797353464            0.000489970599           
       1.994808             0.00797668411            0.000487966644           
       1.997449             0.00744966973            0.000461886951           
       2.000089             0.00701095588            0.000446303757           
       2.002729             0.00768337877            0.000467496476           
       2.005370              0.0073105961            0.000451107886           
       2.008010               0.007609229             0.00048031534           
       2.010650             0.00672950563            0.000455068018           
       2.013291             0.00782208423            0.000470723525           
       2.015931             0.00845573661            0.000485958853           
       2.018572             0.00792012353            0.000503047437           
       2.021212             0.00728822368            0.000473892694           
       2.023852             0.00791754638            0.000467480477           
       2.026493             0.00749950376            0.000475298942           
       2.029133             0.00811961863              0.0004846068           
       2.031774             0.00703492296            0.000473396026           
       2.034414             0.00746270977            0.000448638574           
       2.037054             0.00733361296            0.000456013892           
       2.039695             0.00644784522            0.000424359468           
       2.042335             0.00702296296            0.000460250304           
       2.044975             0.00815360492            0.000489902581           
       2.047616             0.00755661764            0.000470455405           
       2.050256             0.00750946472             0.00047342357           
       2.052897             0.00766663351            0.000487170857           
       2.055537             0.00745598051            0.000464318626           
       2.058177              0.0069539709            0.000439119227           
       2.060818             0.00817580618            0.000498789676           
       2.063458             0.00670025233            0.000470551172           
       2.066098             0.00828803844            0.000493688601           
       2.068739             0.00676201805            0.000452860168           
       2.071379             0.00807050537            0.000507642161           
       2.074020             0.00677938699            0.000455155748           
       2.076660             0.00700681522            0.000466467996           
       2.079300             0.00784729606            0.000505748209           
       2.081941             0.00729291776            0.000446413561           
       2.084581             0.00714611856            0.000466427431           
       2.087222             0.00766187992            0.000465774641           
       2.089862              0.0078595432            0.000513801714           
       2.092502             0.00821425323            0.000509172335           
       2.095143             0.00739992631            0.000499053859           
       2.097783             0.00786085188            0.000497988592           
       2.100423             0.00776769084            0.000477005911           
       2.103064             0.00778720452            0.000495579051           
       2.105704             0.00758378521            0.000486640942           
       2.108345             0.00731999834            0.000459328773           
       2.110985             0.00777132363            0.000505494384           
       2.113625             0.00679437663            0.000476778931           
       2.116266             0.00743563913            0.000505847622           
       2.118906              0.0088317864            0.000513776983           
       2.121546             0.00712243797            0.000452577025           
       2.124187             0.00759693906            0.000490635564           
       2.126827             0.00800465857             0.00050925032           
       2.129468             0.00720524004            0.000484386522           
       2.132108             0.00708642797            0.000467369519           
       2.134748             0.00671838554             0.00045330542           
       2.137389             0.00799316159            0.000515828664           
       2.140029               0.006754506            0.000424514621           
       2.142670             0.00645860106            0.000443638933           
       2.145310             0.00850023622            0.000495371066           
       2.147950             0.00660193244            0.000449346178           
       2.150591             0.00674862931            0.000449719754           
       2.153231             0.00760071383            0.000491272132           
       2.155871             0.00780909774            0.000481063483           
       2.158512             0.00800317693            0.000508154893           
       2.161152             0.00793895275             0.00049025152           
       2.163793             0.00671706991            0.000448918715           
       2.166433             0.00772888266            0.000494495138           
       2.169073             0.00723640661            0.000467828875           
       2.171714             0.00709560403            0.000459792068           
       2.174354             0.00715683864             0.00048250887           
       2.176995             0.00828895034            0.000517086495           
       2.179635             0.00772324021            0.000527437671           
       2.182275             0.00781501193            0.000500934779           
       2.184916             0.00707827787            0.000460467408           
       2.187556             0.00703986554            0.000454613623           
       2.190196              0.0082719494            0.000514961652           
       2.192837             0.00720599077            0.000478022608           
       2.195477             0.00769403267            0.000470917896           
       2.198118             0.00767591287            0.000482415418           
       2.200758             0.00702259998            0.000473398409           
       2.203398             0.00711514146            0.000479555729           
       2.206039             0.00802225738            0.000481922698           
       2.208679             0.00664558329            0.000448835356           
       2.211319             0.00707965897            0.000465933163           
       2.213960             0.00782969442             0.00049655807           
       2.216600             0.00714045366            0.000490548185           
       2.219241             0.00728103414            0.000473424169           
       2.221881             0.00680482291            0.000458621409           
       2.224521             0.00686439275            0.000466268856           
       2.227162              0.0071831869            0.000467423031           
       2.229802             0.00751044695            0.000492913948           
       2.232443             0.00707697266            0.000470931012           
       2.235083             0.00698230685            0.000481568637           
       2.237723             0.00827981176             0.00050324521           
       2.240364             0.00791215438            0.000504064715           
       2.243004             0.00733391475            0.000481422274           
       2.245644             0.00752402224            0.000492502814           
       2.248285             0.00737197668            0.000477735072           
       2.250925             0.00678101546            0.000460970042           
       2.253566              0.0067324413             0.00049104402           
       2.256206             0.00805472341            0.000526365862           
       2.258846              0.0072282369            0.000474335259           
       2.261487              0.0071376539            0.000494729481           
       2.264127             0.00781328581            0.000499904432           
       2.266767             0.00653446805            0.000469347589           
       2.269408             0.00755745195            0.000506817945           
       2.272048             0.00654247616            0.000468743475           
       2.274689             0.00740935199            0.000505404738           
       2.277329             0.00847056037            0.000508809623           
       2.279969             0.00664958895            0.000479864859           
       2.282610             0.00651546671            0.000461789702           
       2.285250             0.00731622926            0.000468369636           
       2.287891             0.00676240207            0.000482782506           
       2.290531             0.00790817684             0.00052910079           
       2.293171             0.00725753354            0.000493735124           
       2.295812             0.00736258939            0.000495296836           
       2.298452             0.00786017771            0.000535165095           
       2.301092             0.00723808759             0.00047715191           
       2.303733             0.00728370202            0.000497966385           
       2.306373             0.00635694834            0.000472535537           
       2.309014             0.00681223175            0.000479621905           
       2.311654             0.00695318048            0.000505659601           
       2.314294             0.00641229894            0.000447379621           
       2.316935             0.00724558398            0.000477525504           
       2.319575             0.00706459705            0.000494047755           
       2.322215             0.00746501589            0.000529271702           
       2.324856             0.00733534322            0.000482365539           
       2.327496             0.00673983133            0.000491645543           
       2.330137             0.00718797877            0.000485857568           
       2.332777             0.00652389238            0.000477268252           
       2.335417             0.00799557442            0.000512592987           
       2.338058             0.00700912748            0.000494268729           
       2.340698             0.00726669018            0.000499313298           
       2.343339             0.00776795736            0.000527608331           
       2.345979              0.0074491599            0.000488809374           
       2.348619             0.00775403345            0.000516941583           
       2.351260             0.00684077671            0.000482717046           
       2.353900             0.00721110568            0.000494040917           
       2.356540             0.00776707715            0.000512004608           
       2.359181             0.00702124727            0.000479977104           
       2.361821             0.00682949986            0.000457270287           
       2.364462             0.00707537808            0.000486780407           
       2.367102             0.00737233194            0.000510634484           
       2.369742             0.00737330962              0.0005375137           
       2.372383              0.0064313921            0.000454567172           
       2.375023             0.00803864008            0.000534231037           
       2.377663              0.0072729213            0.000485866391           
       2.380304             0.00718558854            0.000490992908           
       2.382944             0.00746710488            0.000476728071           
       2.385585             0.00733508328            0.000503923953           
       2.388225             0.00786144227            0.000519239893           
       2.390865             0.00725483044            0.000493680901           
       2.393506             0.00672447129            0.000466326413           
       2.396146             0.00715879027            0.000520241416           
       2.398787             0.00673778552            0.000465131344           
       2.401427             0.00756556133            0.000475738884           
       2.404067             0.00798342815            0.000499601254           
       2.406708              0.0071823639            0.000468191081           
       2.409348             0.00672807386            0.000480646281           
       2.411988             0.00751805981             0.00049780715           
       2.414629             0.00739751989            0.000509179095           
       2.417269             0.00778915146            0.000528583622           
       2.419910             0.00685546607            0.000497042716           
       2.422550             0.00731800457            0.000491320333           
       2.425190             0.00738396899            0.000520231886           
       2.427831             0.00728356017            0.000513778212           
       2.430471             0.00698221789            0.000479240569           
       2.433112             0.00654650189            0.000451870702           
       2.435752             0.00751641608            0.000512423157           
       2.438392             0.00702640358            0.000478199541           
       2.441033             0.00749974393            0.000523587574           
       2.443673             0.00739847157            0.000520440238           
       2.446313             0.00700470518            0.000506847768           
       2.448954             0.00681212709            0.000475909848           
       2.451594             0.00721524749            0.000526637516           
       2.454235             0.00843001712              0.0005340986           
       2.456875             0.00612506921            0.000476368662           
       2.459515             0.00779273743            0.000551229404           
       2.462156             0.00767789353            0.000516588173           
       2.464796             0.00796102475            0.000519240224           
       2.467436             0.00846340417            0.000553638455           
       2.470077             0.00825768036            0.000518331879           
       2.472717             0.00833403643            0.000522978448           
       2.475358             0.00703059265            0.000485352234           
       2.477998             0.00838891255             0.00052123059           
       2.480638             0.00740336443            0.000498357359           
       2.483279             0.00681196817            0.000499626141           
       2.485919             0.00659934538            0.000473929825           
       2.488560             0.00790748569            0.000517329964           
       2.491200             0.00750406574             0.00051894642           
       2.493840             0.00603594893            0.000492477511           
       2.496481             0.00656478171            0.000505197177           
       2.499121             0.00716652654            0.000513412044           
       2.501761              0.0070971936            0.000517691961           
       2.504402              0.0076519093            0.000529689272           
       2.507042             0.00606338203            0.000468020137           
       2.509683              0.0074614324            0.000511245376           
       2.512323             0.00621777767            0.000490148781           
       2.514963             0.00711655617            0.000517900555           
       2.517604             0.00730766053            0.000544569225           
       2.520244             0.00781400813            0.000527925895           
       2.522884             0.00803468542             0.00054298434           
       2.525525              0.0107817688            0.000636135215           
       2.528165             0.00763871778            0.000527098399           
       2.530806             0.00753453362            0.000532616103           
       2.533446              0.0065891945            0.000487452367           
       2.536086             0.00707502572            0.000500582232           
       2.538727             0.00751002308            0.000494775547           
       2.541367             0.00674108853            0.000473379756           
       2.544008             0.00712801652            0.000502720618           
       2.546648             0.00715209269            0.000512206478           
       2.549288              0.0067904269             0.00050925723           
       2.551929             0.00645938851            0.000488771502           
       2.554569             0.00686174509            0.000485334823           
       2.557209             0.00614361393             0.00046345373           
       2.559850             0.00703530029            0.000497540135           
       2.562490             0.00747448549            0.000530042258           
       2.565131             0.00780015505            0.000561416679           
       2.567771             0.00713601446            0.000517733448           
       2.570411             0.00768506238              0.0005314684           
       2.573052             0.00708736696            0.000516810573           
       2.575692             0.00725669657            0.000519781177           
       2.578332             0.00709929452            0.000516239081           
       2.580973             0.00675689717            0.000498844265           
       2.583613             0.00596783903            0.000457650368           
       2.586254              0.0068933784            0.000491176228           
       2.588894             0.00732261836            0.000525703683           
       2.591534             0.00679638731            0.000524283223           
       2.594175             0.00633435453             0.00049659735           
       2.596815             0.00585656162            0.000480316782           
       2.599456             0.00651707269            0.000480481099           
       2.602096             0.00707498064            0.000504435056           
       2.604736             0.00686376287            0.000508629614           
       2.607377             0.00667811604            0.000488482375           
       2.610017             0.00606276866            0.000457288346           
       2.612657             0.00635467128            0.000497966636           
       2.615298             0.00713961523             0.00051532461           
       2.617938             0.00727718925            0.000556551493           
       2.620579             0.00642979247            0.000502213807           
       2.623219             0.00833800198            0.000571086179           
       2.625859             0.00732090891            0.000520289099           
       2.628500              0.0064203852            0.000484046148           
       2.631140             0.00653466369            0.000495859404           
       2.633780             0.00737009596            0.000526145427           
       2.636421             0.00792782633            0.000559109944           
       2.639061             0.00719027513             0.00050125672           
       2.641702             0.00694383222            0.000503995471           
       2.644342             0.00744862204            0.000524217577           
       2.646982             0.00694420302            0.000498589572           
       2.649623             0.00710342994            0.000528458248           
       2.652263             0.00716432262            0.000525392724           
       2.654904             0.00686739683            0.000514907542           
       2.657544             0.00721687321            0.000497176735           
       2.660184             0.00632423551            0.000492544488           
       2.662825             0.00766362549            0.000554777763           
       2.665465             0.00702749889            0.000513810224           
       2.668105             0.00729009901            0.000551601539           
       2.670746             0.00787061337            0.000529461973           
       2.673386             0.00903821823            0.000584727712           
       2.676027             0.00913067053            0.000578278366           
       2.678667              0.0107933999            0.000613484099           
       2.681307                0.01272459            0.000654491144           
       2.683948              0.0140306805             0.00070612808           
       2.686588              0.0127390947            0.000661684324           
       2.689229              0.0102492477            0.000579952781           
       2.691869             0.00912351469            0.000578311541           
       2.694509             0.00812482432             0.00054604236           
       2.697150             0.00771079728            0.000523317442           
       2.699790             0.00760868088            0.000544978261           
       2.702430             0.00753137232            0.000518280457           
       2.705071             0.00733724881             0.00052859806           
       2.707711             0.00775726707              0.0005275242           
       2.710352             0.00776504785            0.000557674814           
       2.712992             0.00730811529            0.000551021364           
       2.715632             0.00636513242            0.000477116662           
       2.718273             0.00583371289            0.000473376068           
       2.720913              0.0081632713            0.000558378152           
       2.723553             0.00697602609            0.000519642331           
       2.726194             0.00642368507            0.000521249739           
       2.728834             0.00771344579            0.000571454499           
       2.731475             0.00759741454            0.000523420579           
       2.734115               0.007570551            0.000538710221           
       2.736755             0.00787983692            0.000554127937           
       2.739396             0.00730097111            0.000530295808           
       2.742036             0.00683584766            0.000537018995           
       2.744677             0.00657775945            0.000511125552           
       2.747317             0.00699992773            0.000523512969           
       2.749957             0.00693796631             0.00052484845           
       2.752598             0.00729243285            0.000543928553           
       2.755238              0.0080691567            0.000582491757           
       2.757878             0.00822515757            0.000582953594           
       2.760519             0.00873235926            0.000594289635           
       2.763159              0.0105274403            0.000645999098           
       2.765800             0.00777771558            0.000529154311           
       2.768440             0.00799427954            0.000540422779           
       2.771080             0.00875466028            0.000570261018           
       2.773721              0.0077404448             0.00055004483           
       2.776361             0.00766976909            0.000555081613           
       2.779001              0.0071033441            0.000553209615           
       2.781642              0.0075078894            0.000564553153           
       2.784282             0.00687754837            0.000549219772           
       2.786923             0.00682813314            0.000552061501           
       2.789563             0.00731620204            0.000550374836           
       2.792203             0.00664022616            0.000500887706           
       2.794844             0.00638409765            0.000538273227           
       2.797484             0.00758752067             0.00055381243           
       2.800125             0.00706736171            0.000562018792           
       2.802765             0.00629741097            0.000521394985           
       2.805405             0.00756219707            0.000573293824           
       2.808046             0.00724190794            0.000570884335           
       2.810686             0.00549799051            0.000457071531           
       2.813326             0.00724975919            0.000545185306           
       2.815967             0.00788150798            0.000584605593           
       2.818607             0.00599549185            0.000486568365           
       2.821248             0.00715403478            0.000520470014           
       2.823888             0.00722189252            0.000542817272           
       2.826528             0.00652467003            0.000499671861           
       2.829169             0.00678502263            0.000533718256           
       2.831809             0.00651673337            0.000530174603           
       2.834449             0.00654987242            0.000534879978           
       2.837090             0.00643668171            0.000512125918           
       2.839730             0.00678819855            0.000523356229           
       2.842371             0.00614577857            0.000498694899           
       2.845011             0.00734219736             0.00054942388           
       2.847651             0.00702362352            0.000538032077           
       2.850292             0.00751685196            0.000562065593           
       2.852932             0.00636289846            0.000528396056           
       2.855573             0.00606489378            0.000500412361           
       2.858213             0.00656351512            0.000546668604           
       2.860853             0.00724071569            0.000534117556           
       2.863494             0.00682789449            0.000537008412           
       2.866134             0.00765414615            0.000590960926           
       2.868774             0.00621392894            0.000523306923           
       2.871415             0.00722773271            0.000573174689           
       2.874055             0.00601399541            0.000499768534           
       2.876696             0.00719474173            0.000561417518           
       2.879336             0.00705953809            0.000535990272           
       2.881976             0.00684794037            0.000544488805           
       2.884617             0.00747276161            0.000560433332           
       2.887257             0.00674989825            0.000535387071           
       2.889897             0.00634933131            0.000508571234           
       2.892538             0.00791628479            0.000622103048           
       2.895178             0.00779193207            0.000557596873           
       2.897819             0.00722426357            0.000547690743           
       2.900459             0.00650955712            0.000509779861           
       2.903099             0.00774666306            0.000550422124           
       2.905740             0.00605657863            0.000499281525           
       2.908380              0.0078832115            0.000576089785           
       2.911021             0.00612976475            0.000516255428           
       2.913661             0.00719699716            0.000559227167           
       2.916301             0.00771731509            0.000579641771           
       2.918942             0.00752245772            0.000547397206           
       2.921582             0.00758970312            0.000575289407           
       2.924222             0.00691449003            0.000531975499           
       2.926863             0.00737536526            0.000572282837           
       2.929503             0.00744615625            0.000581835292           
       2.932144             0.00694948399            0.000539577502           
       2.934784             0.00681694799            0.000525644748           
       2.937424             0.00641422261            0.000515116471           
       2.940065             0.00716903756            0.000519480455           
       2.942705             0.00710269476            0.000516422502           
       2.945346             0.00808951181            0.000584889334           
       2.947986              0.0066938893            0.000542506079           
       2.950626             0.00713676098             0.00055701101           
       2.953267             0.00719215398            0.000550133824           
       2.955907             0.00647182319            0.000541355751           
       2.958547             0.00721448233            0.000539594627           
       2.961188             0.00707141624            0.000557338164           
       2.963828             0.00827940906            0.000589910585           
       2.966469             0.00676079032            0.000522941041           
       2.969109              0.0072511188            0.000549596598           
       2.971749              0.0068303221            0.000530083582           
       2.974390             0.00643986324            0.000505796158           
       2.977030              0.0074733545            0.000557049566           
       2.979670             0.00776741478            0.000552395185           
       2.982311             0.00835124167            0.000593656715           
       2.984951             0.00736798462            0.000530340638           
       2.987592             0.00763698629            0.000550749548           
       2.990232             0.00675278695            0.000538596477           
       2.992872             0.00805659424            0.000554143927           
       2.995513             0.00783368521            0.000534582681           
       2.998153             0.00946154278            0.000597377535           
       3.000794              0.0110462196            0.000625202107           
       3.003434              0.0125618469            0.000667721839           
       3.006074              0.0488947408             0.00129888233           
       3.008715               0.123551297             0.00199310785           
       3.011355               0.184124618              0.0023463112           
       3.013995              0.0943644214              0.0016842782           
       3.016636              0.0619287578             0.00133611443           
       3.019276               0.129170991              0.0018968129           
       3.021917               0.497680998             0.00358004692           
       3.024557                1.65994062             0.00642820093           
       3.027197                1.13865035             0.00519062351           
       3.029838               0.509642283               0.003521876           
       3.032478                0.25893345             0.00251290906           
       3.035118              0.0712723376             0.00133607544           
       3.037759              0.0968576457             0.00155552407           
       3.040399               0.135745709             0.00189955815           
       3.043040               0.540085184             0.00383540839           
       3.045680               0.387997303               0.003058574           
       3.048320              0.0852903023             0.00146521593           
       3.050961               0.108265506             0.00167989677           
       3.053601              0.0851068252             0.00143450047           
       3.056242              0.0554000159             0.00123053367           
       3.058882              0.0482446316             0.00123180673           
       3.061522               0.035493185             0.00103660272           
       3.064163              0.0427233355             0.00112297193           
       3.066803               0.104170427             0.00184606973           
       3.069443                0.10359033             0.00192607645           
       3.072084              0.0551737952             0.00136873783           
       3.074724               0.041915683              0.0013323137           
       3.077365              0.0836826251             0.00194872005           
       3.080005              0.0181520504            0.000912743246           
       3.082645              0.0105769739              0.0007319345           
       3.085286              0.0130059854            0.000818042977           
       3.087926             0.00866703181            0.000662642889           
       3.090566              0.0106349862            0.000719206075           
       3.093207              0.0108816957            0.000757039336           
       3.095847              0.0102601531            0.000704583142           
       3.098488             0.00797720812            0.000688882743           
       3.101128             0.00954614255            0.000758434085           
       3.103768              0.0091182017            0.000727294036           
       3.106409             0.00906195381            0.000771645376           
       3.109049             0.00822390465            0.000705438167           
       3.111690             0.00835608191            0.000698877494           
       3.114330             0.00863400263            0.000725517302           
       3.116970             0.00710598074            0.000663246705           
       3.119611              0.0120530928            0.000919456299           
       3.122251              0.0188373171             0.00120236684           
       3.124891              0.0357537987             0.00167191874           
       3.127532              0.0239301478             0.00133811937           
       3.130172               0.014475985             0.00105873306           
       3.132813             0.00925644958            0.000833460726           
       3.135453             0.00816858293            0.000776504718           
       3.138093             0.00674140639            0.000764344402           
       3.140734             0.00826416667            0.000780757179           
       3.143374             0.00808969673            0.000816922593           
       3.146014             0.00592585927            0.000752701678           
       3.148655             0.00610844507            0.000710403693           
       3.151295             0.00571827229            0.000732469342           
       3.153936             0.00595250397            0.000721889044           
       3.156576             0.00602758208             0.00071654643           
       3.159216             0.00643526975             0.00074408575           
       3.161857             0.00697579426            0.000771552266           
       3.164497             0.00895266361             0.00091839241           
       3.167138             0.00823384818             0.00091003165           
       3.169778             0.00631032278            0.000783536172           
       3.172418             0.00694683182            0.000813741673           
       3.175059             0.00553369553            0.000643873088           
       3.177699             0.00662502912            0.000746032401           
       3.180339             0.00577710814             0.00074641402           
       3.182980             0.00534787139            0.000742493873           
       3.185620              0.0058863656            0.000793324281           
       3.188261             0.00697144988            0.000878760428           
       3.190901             0.00504318142            0.000687403966           
       3.193541             0.00596308417            0.000785413309           
       3.196182             0.00494872689            0.000745653453           
       3.198822             0.00572146914            0.000802028147           
       3.201463             0.00629420724            0.000826720795           
       3.204103             0.00687564553            0.000858805292           
       3.206743               0.007738182            0.000910996435           
       3.209384             0.00699823579            0.000936013136           
       3.212024             0.00566218928            0.000784949804           
       3.214664              0.0060458317            0.000922343312           
       3.217305             0.00644142733            0.000904980685           
       3.219945             0.00536023024            0.000849697372           
       3.222586             0.00611938911            0.000864736909           
       3.225226             0.00435447814            0.000809215792           
       3.227866             0.00628088128            0.000888276159           
       3.230507             0.00689314593            0.000964631661           
       3.233147             0.00590822919               0.000900273           
       3.235787              0.0057354444            0.000907745115           
       3.238428              0.0058604509            0.000990189406           
       3.241068             0.00304978445             0.00066791627           
       3.243709             0.00482824064            0.000868258453           
       3.246349             0.00517410796            0.000819357445           
       3.248989             0.00560053813             0.00100655739           
       3.251630             0.00686688009             0.00107329073           
       3.254270             0.00427380576            0.000756747178           
       3.256911             0.00460818974            0.000857388236           
       3.259551             0.00591501838             0.00104578018           
       3.262191             0.00557842594             0.00103737393           
       3.264832             0.00440601502            0.000963288781           
       3.267472             0.00665554627             0.00111065196           
       3.270112             0.00675066469             0.00123615168           
       3.272753             0.00646590655             0.00110735785           
       3.275393             0.00653980143             0.00113632886           
       3.278034             0.00732451561             0.00120324939           
       3.280674             0.00559089929              0.0011407549           
       3.283314             0.00558004581             0.00101924832           
       3.285955             0.00534971814             0.00102970746           
       3.288595              0.0049249596             0.00109916877           
       3.291235             0.00309657235            0.000895969365           
       3.293876             0.00692882082             0.00135949799           
       3.296516             0.00491330079             0.00109904876           
       3.299157              0.0047825896             0.00107070615           
       3.301797             0.00616787524             0.00138698634           
       3.304437             0.00536603102             0.00112083031           
       3.307078             0.00593730406             0.00129872353           
       3.309718             0.00571492224             0.00131517191           
       3.312359             0.00697438783             0.00145322735           
       3.314999             0.00438332839             0.00113431675           
       3.317639             0.00728411895             0.00139845994           
       3.320280             0.00455674892             0.00117599815           
       3.322920             0.00562639937             0.00132874955           
       3.325560               0.006519636             0.00143131254           
       3.328201             0.00529435045             0.00116163847           
       3.330841             0.00641466001             0.00155619621           
       3.333482             0.00607695218             0.00143171884           
       3.336122             0.00536109244             0.00134536793           
       3.338762              0.0053946028             0.00155895786           
       3.341403             0.00450872823             0.00136185398           
       3.344043             0.00334941525             0.00112692899           
       3.346683              0.0039321516             0.00124657453           
       3.349324             0.00399663745             0.00141300572           
       3.351964             0.00442196412             0.00157169839           
       3.354605             0.00218648691             0.00126394813           
       3.357245             0.00697854937             0.00203702401           
       3.359885             0.00457508068             0.00132007474           
       3.362526             0.00527823528             0.00177313478           
       3.365166             0.00632300139             0.00183045833           
       3.367807             0.00428622122              0.0019287525           
       3.370447             0.00655260331             0.00197819807           
       3.373087             0.00809123069             0.00235070095           
       3.375728             0.00345603248             0.00173387677           
       3.378368              0.0131282346             0.00501536313           
       3.381008              0.0150796841             0.00400749951           
       3.383649             0.00961055505             0.00256646916           
       3.386289             0.00575375894             0.00235027233           
       3.388930               0.002404427              0.0024032086           
       3.391570             0.00116629026              0.0011839994           
       3.394210             0.00583149471             0.00335048802           
       3.396851           -2.57365458e-05                         0           
       3.399491             0.00461975379             0.00333674816           
       3.402131             0.00469315327             0.00475820196           
       3.404772           -2.57849909e-05                         0           
       3.407412                       nan                       nan           
       3.410053           -2.58484995e-05                         0           
       3.412693                       nan                       nan           
       3.415333             0.00877495135             0.00922361964           
