################################################################################
# EDF_DataBlockID                     0.Image.Psd
# EDF_BinarySize                      2105344
# EDF_HeaderSize                      2560
# ByteOrder                           LowByteFirst
# DataType                            FloatValue
# Dim_1                               512
# Dim_2                               1028
# Image                               0
# HeaderID                            EH:000000:000000:000000
# Size                                2105344
# Center_1                            304.9000
# Center_2                            588.7000
# Comment                             Xenocs_Cell_Window - 20251028_20perc_iodine_1.23mg
# DDummy                              0.6
# Date                                2025-10-31T10:13:56
# Delta                               21.910000
# Dummy                               -1.5
# ExposureTime                        360
# Gamma                               15.360000
# Intensity1                          8.52151e-10
# PSize_1                             7.5e-05
# PSize_2                             7.5e-05
# Pressure                            0.0327911
# SampleDistance                      0.115750
# SampleEnvKind                       large
# SampleEnvPN                         ElectroChemical cell
# SampleEnvSN                         1141
# Thickness                           0
# Wavelength                          1.541891e-10
# Wavelength                          1.54189e-10
# aux                                 0
# aux_dial                            0.002375
# beamx                               588.434
# beamx_dial                          588.434
# beamz                               657.808
# beamz_dial                          657.808
# det0x                               0
# det0x_dial                          6.36945
# det0xvd                             0
# det0xvd_dial                        0
# det0y                               450.002
# det0y_dial                          481.635
# det0z                               0
# det0z_dial                          1.23302
# det0zvd                             0
# det0zvd_dial                        0
# mag                                 1.818
# mag_dial                            1.818
# om                                  0.2499
# om_dial                             -0.610199
# phi                                 -0.0120535
# phi_dial                            0
# ry                                  0.599993
# ry_dial                             0.599993
# s1bot                               0.8
# s1bot_dial                          -1.66094
# s1hl                                0.8
# s1hl_dial                           -0.608437
# s1hr                                0.8
# s1hr_dial                           0.970938
# s1top                               0.8
# s1top_dial                          -0.461562
# s2bot                               0.45
# s2bot_dial                          1.36109
# s2hl                                0.45
# s2hl_dial                           -0.83375
# s2hr                                0.45
# s2hr_dial                           -0.118594
# s2top                               0.45
# s2top_dial                          1.44734
# w2theta                             32
# w2theta_dial                        32
# waxsch                              19.2605
# waxsch_dial                         -32.7355
# waxsh                               137.085
# waxsh_dial                          -43.5338
# waxsth                              26.0607
# waxsth_dial                         -19.4086
# waxsz                               67.0407
# waxsz_dial                          -23.7954
# wind                                65.9854
# wind_dial                           66.0041
# wpsi                                124
# wpsi_dial                           124
# wstod                               115
# wstod_dial                          115
# x                                   0
# x_dial                              1.00969
# z                                   0
# z_dial                              13.3172
# CountCutoff                         6807993
# DetectorModel                       Dectris EIGER2 Si 500K, S/N E-01-0554
# ThresholdSetting                    4023.88989258
# Saturation                          0
# FlatField                           Corrected
# BackgroundReductionExtra            0.02
# BackgroundCorrectionConstant        0.0026712
# Detector                            0
# Monitor                             0
# Pil_Roi0                            0
# SumForIntensity1                    3.06774e+08
# TransmittedFlux                     852151
# det                                 0
# mon                                 0
# pilai0                              3.06774e+08
# pilai1                              782394
# pilct0                              5.31118e+08
# pilct1                              782394
# pilroi0                             0
# pilroi1                             0
# sec                                 1
# title                               20251028_20perc_iodine_1.23mg_1_00617.edf
# usaxs0                              0
# Operation                           Azimuthal average I(q)
# Error_model                         ErrorModel.poisson
# Geometrical_correction              True
# Transmission_correction             True
# Thickness_correction                False
# Binning mode                        Uniform
# Binning factor                      1.0
# Psi                                 0.0
# Omega                               0.2499
# MaskInvalidPixels                   True
# DetectorEdge                        3
# MaskFiles                           ['WAXS_corrected.edf']
################################################################################
    q(A⁻¹)                Intensity(a.u.)            Sigma_I(a.u.)            
       0.693100              0.0207815384             0.00962708123           
       0.695741              0.0112030804             0.00576809276           
       0.698381            -2.3806149e-05                         0           
       0.701021              0.0177151577              0.0125603303           
       0.703662             0.00565630172             0.00409670128           
       0.706302             0.00340657389             0.00246141064           
       0.708942              0.0028180485             0.00288948507           
       0.711583             0.00881702102             0.00442581192           
       0.714223             0.00293177714             0.00294643872           
       0.716864             0.00250902207             0.00178342545           
       0.719504             0.00294638437              0.0020855244           
       0.722144             0.00879545926              0.0033369266           
       0.724785             0.00473460943             0.00195294889           
       0.727425              0.0073391928             0.00328937201           
       0.730065             0.00365755886             0.00164257695           
       0.732706             0.00618989839             0.00179440539           
       0.735346             0.00968702858             0.00292616094           
       0.737987             0.00793590401             0.00187153603           
       0.740627              0.0117071351             0.00339165591           
       0.743267             0.00612885064             0.00164368333           
       0.745908             0.00886281124             0.00214448546           
       0.748548             0.00574867397             0.00159197274           
       0.751189             0.00803339013             0.00253581605           
       0.753829             0.00881064484             0.00244116577           
       0.756469             0.00877218968             0.00196417771           
       0.759110             0.00780036954               0.001951888           
       0.761750             0.00799210388              0.0017469824           
       0.764390             0.00624499834             0.00161632838           
       0.767031             0.00782228701             0.00156649665           
       0.769671             0.00486697543             0.00154136968           
       0.772312             0.00735630634             0.00144264173           
       0.774952              0.0051484087             0.00162976434           
       0.777592             0.00928132881             0.00159386148           
       0.780233             0.00713827239             0.00168642031           
       0.782873             0.00581201167             0.00145537575           
       0.785513             0.00829828897             0.00185913081           
       0.788154             0.00759157883             0.00148752952           
       0.790794             0.00788320586             0.00181221621           
       0.793435             0.00742906524             0.00158043224           
       0.796075              0.0100142838             0.00176760371           
       0.798715             0.00912722179             0.00199414624           
       0.801356             0.00541752081             0.00132228146           
       0.803996             0.00733490399             0.00156860483           
       0.806637             0.00680222669             0.00120213738           
       0.809277             0.00697353096              0.0013174564           
       0.811917             0.00762369428             0.00128774618           
       0.814558             0.00628996975             0.00121568671           
       0.817198             0.00659731994             0.00118284054           
       0.819838             0.00627406423             0.00116742536           
       0.822479             0.00811013347             0.00155861102           
       0.825119             0.00780153212             0.00130109023           
       0.827760              0.0073468142             0.00127896845           
       0.830400             0.00645646672             0.00112845167           
       0.833040             0.00865730212             0.00136902208           
       0.835681             0.00696563364             0.00139602942           
       0.838321             0.00928694855             0.00135295855           
       0.840961             0.00748303616             0.00132322253           
       0.843602             0.00765098519             0.00122699085           
       0.846242             0.00744543972             0.00121021641           
       0.848883             0.00699901712             0.00120077923           
       0.851523             0.00739560303             0.00121899775           
       0.854163              0.0077083683             0.00132347734           
       0.856804             0.00881977488             0.00127288734           
       0.859444              0.0089640955             0.00125734627           
       0.862085             0.00614529724             0.00108503848           
       0.864725             0.00845843536             0.00130275504           
       0.867365             0.00673054992             0.00107760332           
       0.870006             0.00687426844             0.00103777874           
       0.872646             0.00912867722             0.00125406835           
       0.875286             0.00812440222             0.00113819323           
       0.877927              0.0075411016             0.00105814215           
       0.880567             0.00781807084             0.00111620687           
       0.883208               0.005917671            0.000961965421           
       0.885848             0.00624408564             0.00102598666           
       0.888488             0.00694870216             0.00101515743           
       0.891129             0.00685982557             0.00103566731           
       0.893769             0.00745170621             0.00103303571           
       0.896410              0.0100696714             0.00111962938           
       0.899050             0.00783503763             0.00108610675           
       0.901690             0.00838676785             0.00122403272           
       0.904331             0.00816099344             0.00107046616           
       0.906971             0.00633076075             0.00100300655           
       0.909611             0.00815614801             0.00103636439           
       0.912252             0.00842054864             0.00108766785           
       0.914892             0.00788862487             0.00115043531           
       0.917533             0.00746794395             0.00105889167           
       0.920173             0.00787630736             0.00100894686           
       0.922813             0.00669961663            0.000976489924           
       0.925454             0.00875907225             0.00100540785           
       0.928094             0.00889242511             0.00108149748           
       0.930734             0.00792108839             0.00109892102           
       0.933375             0.00851585573             0.00112823012           
       0.936015             0.00738788962            0.000954403166           
       0.938656              0.0069705922            0.000994513275           
       0.941296             0.00685635431            0.000893886845           
       0.943936             0.00806275135            0.000950591226           
       0.946577             0.00817599686            0.000950915226           
       0.949217             0.00728881984            0.000825647403           
       0.951858             0.00716633691             0.00085699544           
       0.954498             0.00920846362             0.00112444408           
       0.957138              0.0100905651             0.00111511203           
       0.959779              0.0083904532             0.00100239719           
       0.962419              0.0083667269            0.000994320729           
       0.965059             0.00666287181            0.000933226658           
       0.967700             0.00917234695             0.00112145217           
       0.970340             0.00740668739            0.000891758436           
       0.972981             0.00703167018             0.00079164155           
       0.975621              0.0075765341            0.000874190163           
       0.978261             0.00744865307            0.000823594594           
       0.980902             0.00702515327            0.000956967332           
       0.983542             0.00725411199            0.000861156067           
       0.986182              0.0089965989            0.000941562662           
       0.988823             0.00668205931             0.00078792561           
       0.991463              0.0101419999              0.0010356519           
       0.994104              0.0100725424             0.00100682893           
       0.996744             0.00879001073            0.000959351155           
       0.999384             0.00844847131            0.000841147118           
       1.002025             0.00740830752            0.000879139916           
       1.004665             0.00846825949            0.000858979854           
       1.007306             0.00593730478            0.000715569635           
       1.009946             0.00670717688            0.000775653417           
       1.012586             0.00859788909            0.000855315705           
       1.015227             0.00686739774            0.000821216159           
       1.017867             0.00762838723            0.000831825806           
       1.020507             0.00654448867            0.000746301723           
       1.023148             0.00762578678            0.000869263338           
       1.025788             0.00706421733            0.000767137208           
       1.028429             0.00741129627            0.000823209402           
       1.031069             0.00867367987             0.00083805456           
       1.033709             0.00893932522            0.000904393096           
       1.036350             0.00893086829             0.00081188433           
       1.038990             0.00833414671            0.000798704639           
       1.041630             0.00857563724            0.000845040169           
       1.044271             0.00706332593            0.000721258266           
       1.046911             0.00766376539            0.000790258479           
       1.049552             0.00909035745            0.000904246947           
       1.052192             0.00953353936            0.000845580041           
       1.054832             0.00734393684            0.000748901947           
       1.057473             0.00817040135            0.000778692696           
       1.060113             0.00812548969            0.000757346981           
       1.062754             0.00772166305             0.00075377858           
       1.065394             0.00689543978            0.000753096345           
       1.068034             0.00838090457            0.000755424297           
       1.070675             0.00890284716            0.000812167157           
       1.073315             0.00922134794            0.000838414954           
       1.075955             0.00766718667            0.000721735594           
       1.078596             0.00874568238            0.000819236248           
       1.081236             0.00760367338            0.000731463094           
       1.083877             0.00919645274            0.000797218537           
       1.086517             0.00847192547            0.000820486818           
       1.089157             0.00916180876            0.000885331986           
       1.091798              0.0071533249            0.000685849285           
       1.094438             0.00828843307            0.000735879919           
       1.097078             0.00757269769            0.000674624591           
       1.099719             0.00852657009             0.00077430481           
       1.102359             0.00850153572            0.000724080404           
       1.105000              0.0101788175            0.000885939908           
       1.107640             0.00951228945            0.000818898145           
       1.110280             0.00807869395            0.000688580166           
       1.112921             0.00954294156            0.000803927289           
       1.115561             0.00821251082            0.000708806156           
       1.118202             0.00926307601            0.000753487665           
       1.120842             0.00880219677            0.000771968289           
       1.123482             0.00932146068            0.000790942518           
       1.126123             0.00907287301            0.000748462126           
       1.128763             0.00775477321            0.000696705859           
       1.131403              0.0100396862              0.0007638627           
       1.134044             0.00843670179            0.000720539821           
       1.136684             0.00763315835            0.000730721044           
       1.139325             0.00872049464            0.000719487805           
       1.141965             0.00943330523            0.000753262666           
       1.144605             0.00896567273            0.000700209477           
       1.147246             0.00879498383            0.000709749684           
       1.149886             0.00920253125            0.000723430594           
       1.152527             0.00824054123            0.000694530177           
       1.155167             0.00832581931            0.000664013348           
       1.157807             0.00920287557            0.000748500427           
       1.160448             0.00923838962            0.000732338807           
       1.163088             0.00796467647            0.000648603608           
       1.165728             0.00924629117            0.000717514417           
       1.168369             0.00917233218            0.000721241292           
       1.171009              0.0102473267            0.000739825656           
       1.173650              0.0089834841            0.000710877507           
       1.176290             0.00869607884            0.000683484035           
       1.178930               0.010989743             0.00075305523           
       1.181571             0.00921980054            0.000703431417           
       1.184211              0.0111662135            0.000776874851           
       1.186851             0.00815647963            0.000649155425           
       1.189492              0.0096407272            0.000701004188           
       1.192132             0.00846529224            0.000649510773           
       1.194773             0.00940804037            0.000687714814           
       1.197413             0.00938084094             0.00065797496           
       1.200053             0.00931730089            0.000672404239           
       1.202694             0.00890712801            0.000625185092           
       1.205334             0.00932684184            0.000689445151           
       1.207975             0.00927916584            0.000656410695           
       1.210615             0.00937323827            0.000727793907           
       1.213255              0.0106586376            0.000694974488           
       1.215896             0.00890630353             0.00064679298           
       1.218536              0.0104308211            0.000673045491           
       1.221176             0.00985907202            0.000711401373           
       1.223817              0.0111190396            0.000709193892           
       1.226457             0.00913328464            0.000655703188           
       1.229098              0.0101707633            0.000691909692           
       1.231738             0.00998183864            0.000688826918           
       1.234378             0.00967062317            0.000637086384           
       1.237019             0.00832033283            0.000608955348           
       1.239659             0.00888539367            0.000623811992           
       1.242299             0.00983719174            0.000648034056           
       1.244940              0.0106932948            0.000657106313           
       1.247580              0.0111592849             0.00069179992           
       1.250221              0.0101172743            0.000654645266           
       1.252861              0.0105841217            0.000637442216           
       1.255501             0.00973397046            0.000663761113           
       1.258142             0.00934360737            0.000611088057           
       1.260782                0.01007951            0.000648429757           
       1.263423              0.0104416813            0.000634162729           
       1.266063              0.0105878041            0.000654530919           
       1.268703             0.00966062819            0.000620027665           
       1.271344              0.0105515662            0.000669948607           
       1.273984              0.0099853882            0.000629439406           
       1.276624              0.0106570156            0.000638047118           
       1.279265              0.0104884971            0.000643493986           
       1.281905              0.0107788252             0.00065523453           
       1.284546              0.0093400596            0.000589560652           
       1.287186              0.0107431839            0.000620349096           
       1.289826             0.00970705479            0.000621470131           
       1.292467              0.0101196821            0.000620565092           
       1.295107              0.0109602173            0.000639407628           
       1.297747              0.0103457308            0.000594460583           
       1.300388              0.0109393779            0.000666370221           
       1.303028              0.0112444011             0.00064496503           
       1.305669              0.0101545981            0.000627507802           
       1.308309             0.00976062219            0.000609156011           
       1.310949             0.00992189174            0.000613550555           
       1.313590              0.0103798023             0.00060793254           
       1.316230              0.0111062097              0.0006710652           
       1.318871               0.011803015            0.000677529578           
       1.321511              0.0104524939            0.000625772444           
       1.324151              0.0106062705            0.000611670984           
       1.326792              0.0113618383            0.000636997236           
       1.329432               0.010542416            0.000609267097           
       1.332072              0.0118062296             0.00063514405           
       1.334713              0.0105592197            0.000619946187           
       1.337353             0.00999507488            0.000578440571           
       1.339994              0.0113661671            0.000647312445           
       1.342634             0.00958346566            0.000569978401           
       1.345274              0.0104763464            0.000616741176           
       1.347915              0.0116944557            0.000633616286           
       1.350555             0.00979993882            0.000590185226           
       1.353195              0.0115571207            0.000644064393           
       1.355836              0.0110213914            0.000619152054           
       1.358476              0.0114706113            0.000613422241           
       1.361117              0.0109809588            0.000601010527           
       1.363757              0.0114768972            0.000633193941           
       1.366397              0.0111383703            0.000604909073           
       1.369038              0.0108247383             0.00060226962           
       1.371678              0.0127887438            0.000648859184           
       1.374319                0.01102853            0.000597364603           
       1.376959              0.0111625708            0.000594940009           
       1.379599              0.0109736877            0.000632178099           
       1.382240              0.0113576296            0.000604457112           
       1.384880              0.0103902011             0.00061238247           
       1.387520              0.0115918298            0.000614309624           
       1.390161              0.0117302931            0.000586920833           
       1.392801              0.0120385154             0.00061949653           
       1.395442              0.0108822026            0.000597038232           
       1.398082              0.0112001211            0.000567208424           
       1.400722              0.0101476855            0.000565534788           
       1.403363              0.0122054239            0.000652866664           
       1.406003              0.0113693604            0.000589697927           
       1.408644              0.0117437699             0.00062783618           
       1.411284              0.0112927578              0.0005829776           
       1.413924              0.0123546227            0.000607510192           
       1.416565              0.0108480036            0.000567027885           
       1.419205              0.0101284053            0.000571545475           
       1.421845              0.0110957523            0.000597865573           
       1.424486              0.0102557125            0.000552503892           
       1.427126              0.0107162128            0.000586688796           
       1.429767              0.0114651739            0.000570966953           
       1.432407              0.0111093356            0.000588184558           
       1.435047              0.0112349603             0.00055551744           
       1.437688              0.0107220266            0.000550802325           
       1.440328              0.0108391611            0.000565217941           
       1.442968              0.0113516667            0.000591386115           
       1.445609              0.0112465423            0.000569968136           
       1.448249               0.010845504            0.000573885272           
       1.450890              0.0107165503            0.000566739915           
       1.453530              0.0115980989            0.000616829145           
       1.456170              0.0094056574            0.000539103432           
       1.458811               0.011113446            0.000560351177           
       1.461451              0.0111837478            0.000563595307           
       1.464092              0.0106125535            0.000552603626           
       1.466732              0.0102453192             0.00053829259           
       1.469372              0.0102157017            0.000524934493           
       1.472013              0.0106905191            0.000579160059           
       1.474653              0.0103461019            0.000560965079           
       1.477293              0.0116318252            0.000607336993           
       1.479934              0.0106498328            0.000554524402           
       1.482574              0.0112948223            0.000552420522           
       1.485215              0.0102908018            0.000537117297           
       1.487855              0.0117524123            0.000581566847           
       1.490495             0.00985026335            0.000530466096           
       1.493136              0.0110196087            0.000553379162           
       1.495776              0.0110332894            0.000551201279           
       1.498416             0.00999051862            0.000541667927           
       1.501057              0.0102099699            0.000535516783           
       1.503697              0.0104971599             0.00053086536           
       1.506338              0.0104782667            0.000540079445           
       1.508978              0.0105836033            0.000537449395           
       1.511618              0.0101707477            0.000561105933           
       1.514259              0.0104662031            0.000549533542           
       1.516899              0.0105519502            0.000537250856           
       1.519540              0.0109279519            0.000555555682           
       1.522180              0.0101925804            0.000541250952           
       1.524820               0.010784007            0.000553609105           
       1.527461              0.0109636323            0.000560961377           
       1.530101              0.0103566174            0.000539758413           
       1.532741              0.0106631662             0.00054450996           
       1.535382             0.00975937306            0.000529309424           
       1.538022              0.0109107108            0.000527230464           
       1.540663              0.0105132231            0.000556643657           
       1.543303              0.0103329494            0.000512402236           
       1.545943              0.0111730373            0.000563955784           
       1.548584              0.0115279641            0.000583126059           
       1.551224              0.0108905339              0.0005240371           
       1.553864              0.0108201369            0.000551950505           
       1.556505             0.00978564014            0.000507069097           
       1.559145              0.0109517503            0.000543002755           
       1.561786              0.0098877961            0.000516350217           
       1.564426              0.0102481761            0.000509325016           
       1.567066              0.0107846027            0.000547463921           
       1.569707             0.00995354844            0.000516499829           
       1.572347              0.0101209464            0.000538064238           
       1.574988             0.00991873076              0.0005070048           
       1.577628             0.00988289068            0.000527724969           
       1.580268             0.00958906226            0.000503651067           
       1.582909             0.00959498527            0.000534014952           
       1.585549             0.00991448006            0.000527073482           
       1.588189             0.00896886892            0.000490367212           
       1.590830               0.010338184            0.000525810536           
       1.593470             0.00886287243             0.00050612636           
       1.596111             0.00950872349            0.000511824235           
       1.598751             0.00910105255            0.000485192749           
       1.601391             0.00918846206             0.00049827313           
       1.604032             0.00945504746            0.000516016172           
       1.606672             0.00888480261            0.000486004835           
       1.609312             0.00993769104            0.000536551346           
       1.611953             0.00961746772            0.000516520316           
       1.614593             0.00916250554            0.000494536225           
       1.617234             0.00872205862            0.000500055423           
       1.619874              0.0086148556            0.000495009656           
       1.622514             0.00928863451            0.000506991188           
       1.625155             0.00834639604            0.000483428235           
       1.627795             0.00975924624            0.000509937712           
       1.630436             0.00893610146            0.000485410712           
       1.633076             0.00868032614            0.000484687979           
       1.635716             0.00936463742            0.000495597764           
       1.638357             0.00989232718              0.0005107123           
       1.640997             0.00825109478            0.000480555121           
       1.643637             0.00916386289            0.000492821742           
       1.646278             0.00880473537            0.000498246563           
       1.648918             0.00875138718            0.000498089884           
       1.651559             0.00773423007            0.000471884346           
       1.654199             0.00932710997            0.000503998693           
       1.656839             0.00850246102            0.000481370817           
       1.659480             0.00789372529            0.000481236162           
       1.662120              0.0084294968            0.000468374262           
       1.664761              0.0083679307            0.000484740021           
       1.667401             0.00853342757            0.000467866775           
       1.670041             0.00906782414            0.000489648049           
       1.672682             0.00836401803            0.000468329227           
       1.675322              0.0078726057            0.000451441302           
       1.677962             0.00885986483            0.000473628844           
       1.680603             0.00784469188            0.000447040551           
       1.683243             0.00848320229            0.000485013375           
       1.685884              0.0093655069            0.000513375066           
       1.688524             0.00876098931            0.000486932242           
       1.691164             0.00868394802            0.000484896586           
       1.693805             0.00869333162            0.000490488155           
       1.696445             0.00971812118            0.000521601097           
       1.699085             0.00932599259            0.000493847757           
       1.701726              0.0090756381            0.000469307142           
       1.704366             0.00927358448            0.000499764765           
       1.707007             0.00923372963            0.000487573364           
       1.709647             0.00953408619             0.00050103489           
       1.712287              0.0086784214            0.000482183837           
       1.714928             0.00890590581             0.00049240089           
       1.717568             0.00915206542            0.000470210227           
       1.720209              0.0086379924            0.000478480447           
       1.722849             0.00848087691            0.000471671521           
       1.725489             0.00850763014             0.00047281157           
       1.728130             0.00842579265            0.000500043677           
       1.730770             0.00928168734            0.000498444432           
       1.733410             0.00897129875            0.000482336391           
       1.736051             0.00820331471            0.000464439846           
       1.738691             0.00898580245            0.000476232524           
       1.741332             0.00809469376            0.000465219342           
       1.743972             0.00815169029            0.000482106371           
       1.746612             0.00859583923            0.000475389652           
       1.749253             0.00838342075            0.000478750501           
       1.751893             0.00861839479            0.000481850424           
       1.754533             0.00821917964            0.000470118693           
       1.757174             0.00847086293            0.000472792962           
       1.759814             0.00797889357            0.000451902815           
       1.762455             0.00763149144            0.000450070612           
       1.765095             0.00744288035            0.000425193521           
       1.767735             0.00828358964            0.000462403248           
       1.770376             0.00873415795            0.000476064197           
       1.773016              0.0084610766            0.000465424248           
       1.775657             0.00845900354            0.000458671228           
       1.778297             0.00893920703             0.00046745041           
       1.780937             0.00849807464            0.000481065714           
       1.783578             0.00844306951            0.000467516611           
       1.786218             0.00949833147            0.000517497802           
       1.788858             0.00867640011            0.000469751223           
       1.791499             0.00870921796            0.000465353075           
       1.794139             0.00833321336            0.000451503765           
       1.796780             0.00894531335            0.000465536941           
       1.799420             0.00854499098            0.000452481131           
       1.802060               0.009293047            0.000475682934           
       1.804701              0.0091063249            0.000451877698           
       1.807341              0.0094583097            0.000483914828           
       1.809981             0.00900263548            0.000473688177           
       1.812622             0.00891329207            0.000462846341           
       1.815262             0.00891576774            0.000472743902           
       1.817903             0.00944767279             0.00047943082           
       1.820543             0.00922773697            0.000481200683           
       1.823183             0.00909706788            0.000477518862           
       1.825824             0.00911578502            0.000456671252           
       1.828464             0.00821640509            0.000452003327           
       1.831105             0.00807789433            0.000435786092           
       1.833745             0.00877786685            0.000463976872           
       1.836385             0.00870236544            0.000475161261           
       1.839026             0.00968947192            0.000499802149           
       1.841666             0.00901638421            0.000480420527           
       1.844306             0.00895582083            0.000465739898           
       1.846947             0.00900610982            0.000471139684           
       1.849587             0.00913191828            0.000523873586           
       1.852228             0.00850175878            0.000457074874           
       1.854868             0.00852882995            0.000483600107           
       1.857508             0.00843491617            0.000476213283           
       1.860149             0.00850658483             0.00048692091           
       1.862789             0.00956732933            0.000498433872           
       1.865429             0.00955396923            0.000519925302           
       1.868070             0.00936944332            0.000508017442           
       1.870710             0.00955264263            0.000501133914           
       1.873351             0.00910060193            0.000495179942           
       1.875991             0.00946100173            0.000513129647           
       1.878631             0.00936431706            0.000500723783           
       1.881272             0.00934179359            0.000496770286           
       1.883912             0.00908918569            0.000509955567           
       1.886553              0.0101864598            0.000533824772           
       1.889193             0.00897209591            0.000500139713           
       1.891833             0.00895105197            0.000518805098           
       1.894474             0.00862501656            0.000504833691           
       1.897114             0.00882206892            0.000494065988           
       1.899754             0.00817691226             0.00047764775           
       1.902395             0.00884201783            0.000486982865           
       1.905035             0.00831781541            0.000500273289           
       1.907676             0.00873702363            0.000483244752           
       1.910316             0.00842019088            0.000486998013           
       1.912956             0.00853589328            0.000479545158           
       1.915597             0.00916955256            0.000499803794           
       1.918237             0.00847987521             0.00049638451           
       1.920878             0.00875735764            0.000502375598           
       1.923518             0.00851247774            0.000495512047           
       1.926158             0.00971666182            0.000522531249           
       1.928799             0.00889330075            0.000494115882           
       1.931439             0.00931932778            0.000519079516           
       1.934079             0.00873931345            0.000524017837           
       1.936720             0.00844744969            0.000477341572           
       1.939360             0.00948004349            0.000539484877           
       1.942001             0.00890837403            0.000479324997           
       1.944641             0.00935713126            0.000500926124           
       1.947281             0.00890066209            0.000484051763           
       1.949922             0.00872255248            0.000494954841           
       1.952562             0.00878589954            0.000512319783           
       1.955202             0.00902455089            0.000518598309           
       1.957843             0.00855934978             0.00049195748           
       1.960483             0.00764814207            0.000486192925           
       1.963124             0.00829961854            0.000496086409           
       1.965764             0.00859315983            0.000476024496           
       1.968404             0.00889694652            0.000479789187           
       1.971045             0.00820280792            0.000469700331           
       1.973685             0.00936481987            0.000526421829           
       1.976326             0.00914869274            0.000513160801           
       1.978966             0.00844349531            0.000497312944           
       1.981606             0.00770847368            0.000485084235           
       1.984247             0.00841463896            0.000503484384           
       1.986887             0.00923219392             0.00052105908           
       1.989527             0.00837338426            0.000490888173           
       1.992168             0.00820260077            0.000504117096           
       1.994808             0.00764873148            0.000484713043           
       1.997449             0.00792200126            0.000483165256           
       2.000089             0.00839521264             0.00049541464           
       2.002729             0.00904734523            0.000514604834           
       2.005370             0.00870114984            0.000499233141           
       2.008010             0.00932678874            0.000539427721           
       2.010650             0.00797349419            0.000502481568           
       2.013291             0.00804907114            0.000484382676           
       2.015931             0.00803375193            0.000480500722           
       2.018572             0.00857077964             0.00053084067           
       2.021212             0.00750257407             0.00048773663           
       2.023852             0.00763764241            0.000465756464           
       2.026493             0.00792778417            0.000495721269           
       2.029133             0.00802343146            0.000488666787           
       2.031774             0.00777485957            0.000504838273           
       2.034414             0.00818922475            0.000476739121           
       2.037054             0.00837714509            0.000494399655           
       2.039695             0.00785016824            0.000474981984           
       2.042335             0.00756544721            0.000484576399           
       2.044975             0.00869237841            0.000513115659           
       2.047616             0.00802052026            0.000491662482           
       2.050256             0.00736885399            0.000475725489           
       2.052897             0.00850178845            0.000520409429           
       2.055537             0.00725563373            0.000464635577           
       2.058177             0.00784131401            0.000473011285           
       2.060818             0.00839091841            0.000512587453           
       2.063458             0.00828571864            0.000530807966           
       2.066098             0.00747792053            0.000475695129           
       2.068739              0.0075789775             0.00048634262           
       2.071379              0.0073598249            0.000491758778           
       2.074020             0.00761016571             0.00048918478           
       2.076660             0.00772976914            0.000496999375           
       2.079300             0.00723965587             0.00049277011           
       2.081941             0.00792874138             0.00047217165           
       2.084581             0.00814509114            0.000505135638           
       2.087222             0.00708001795            0.000454188788           
       2.089862             0.00732067935            0.000503018142           
       2.092502             0.00766334604            0.000498885675           
       2.095143             0.00804303729            0.000527782301           
       2.097783             0.00767180939            0.000499050564           
       2.100423             0.00760033185            0.000478635749           
       2.103064             0.00807243673            0.000511841546           
       2.105704             0.00751603408            0.000491440634           
       2.108345             0.00726146108            0.000464078263           
       2.110985             0.00666529591            0.000474886272           
       2.113625             0.00761530151            0.000512031711           
       2.116266             0.00733338229            0.000509593388           
       2.118906             0.00716766615            0.000469515907           
       2.121546             0.00682803384             0.00044950762           
       2.124187              0.0078856874            0.000507073066           
       2.126827             0.00726422384            0.000492113834           
       2.129468             0.00748102624            0.000500679112           
       2.132108             0.00688863221            0.000467438259           
       2.134748              0.0075821335            0.000488500738           
       2.137389             0.00805732282            0.000525354695           
       2.140029             0.00819970269            0.000474466955           
       2.142670             0.00838184173            0.000512673903           
       2.145310              0.0078744365             0.00048365529           
       2.147950             0.00792979084            0.000499559751           
       2.150591             0.00639044784            0.000443926311           
       2.153231               0.007851566            0.000506505472           
       2.155871             0.00783399455            0.000488770128           
       2.158512             0.00752436422            0.000499816821           
       2.161152             0.00713975675            0.000471617713           
       2.163793             0.00774829455            0.000489093508           
       2.166433             0.00680909559            0.000470824924           
       2.169073             0.00870067597            0.000520371018           
       2.171714             0.00640704509            0.000443207131           
       2.174354              0.0071588953            0.000489529372           
       2.176995             0.00704078136            0.000483431468           
       2.179635             0.00802382788            0.000545347386           
       2.182275             0.00736304867            0.000493237694           
       2.184916             0.00740794518            0.000477853787           
       2.187556             0.00707262066            0.000462233594           
       2.190196             0.00775825399            0.000505899223           
       2.192837             0.00780183215            0.000504557827           
       2.195477             0.00810469922             0.00049028397           
       2.198118             0.00704576351             0.00046884712           
       2.200758             0.00838064864            0.000524599298           
       2.203398              0.0073136209            0.000493201737           
       2.206039             0.00860602094             0.00050633896           
       2.208679             0.00767282402            0.000489225614           
       2.211319             0.00731246551            0.000480352914           
       2.213960             0.00646089044            0.000457567202           
       2.216600             0.00719068175            0.000499361281           
       2.219241             0.00776407774             0.00049591802           
       2.221881             0.00760920487            0.000491956394           
       2.224521             0.00743461847            0.000492238694           
       2.227162             0.00673606855            0.000459161889           
       2.229802             0.00736627355            0.000495191518           
       2.232443             0.00803767969            0.000509108022           
       2.235083             0.00738446797            0.000502376593           
       2.237723             0.00768817989            0.000491917471           
       2.240364             0.00757360326             0.00050026631           
       2.243004             0.00728983249            0.000486886896           
       2.245644             0.00766828593            0.000504363779           
       2.248285             0.00813051034            0.000508938275           
       2.250925             0.00748857721            0.000491401017           
       2.253566             0.00817509481            0.000548897937           
       2.256206             0.00765607459            0.000520566884           
       2.258846             0.00749766297            0.000490053209           
       2.261487             0.00724461254            0.000505601892           
       2.264127             0.00692624681            0.000477452503           
       2.266767             0.00759320575            0.000513231279           
       2.269408             0.00708054958            0.000497632609           
       2.272048             0.00690686146            0.000488557398           
       2.274689             0.00741148375            0.000512758462           
       2.277329             0.00739387928            0.000482221405           
       2.279969             0.00745972014            0.000515577403           
       2.282610             0.00629206625            0.000460340497           
       2.285250             0.00734590863            0.000476078864           
       2.287891             0.00676200501            0.000489722248           
       2.290531              0.0064093244            0.000483189414           
       2.293171             0.00782022796            0.000519900536           
       2.295812             0.00709804319            0.000493322181           
       2.298452             0.00783513329            0.000542008194           
       2.301092             0.00776983455            0.000501489328           
       2.303733             0.00718012767            0.000501534815           
       2.306373             0.00705223282            0.000504875754           
       2.309014             0.00841291189            0.000540677794           
       2.311654              0.0075370415            0.000534045206           
       2.314294             0.00755719466            0.000492675178           
       2.316935             0.00729849766            0.000486169458           
       2.319575             0.00669479569            0.000487870948           
       2.322215             0.00768826297            0.000544864461           
       2.324856             0.00728291377             0.00048756183           
       2.327496             0.00711770006            0.000512517258           
       2.330137             0.00709221814             0.00048956198           
       2.332777             0.00718715056            0.000508157786           
       2.335417             0.00760972715            0.000507274964           
       2.338058             0.00757097496            0.000521096457           
       2.340698             0.00728137732            0.000507017138           
       2.343339              0.0077111408            0.000533247226           
       2.345979             0.00717052242            0.000486488229           
       2.348619             0.00709712631            0.000501683665           
       2.351260             0.00756790394            0.000515037432           
       2.353900             0.00645153538            0.000474028651           
       2.356540             0.00771360437            0.000517588717           
       2.359181             0.00732157982            0.000497195109           
       2.361821              0.0072446879             0.00047774861           
       2.364462             0.00727928056            0.000500856775           
       2.367102             0.00684645697            0.000499173707           
       2.369742             0.00682029296            0.000524409895           
       2.372383             0.00712204103            0.000485242544           
       2.375023             0.00774911121            0.000532077422           
       2.377663             0.00734842354            0.000495416612           
       2.380304             0.00771381056            0.000516047397           
       2.382944             0.00736420999            0.000480251513           
       2.385585             0.00651106755            0.000481614594           
       2.388225             0.00805281698            0.000533091689           
       2.390865             0.00834237555            0.000537017726           
       2.393506             0.00640764088            0.000461765078           
       2.396146             0.00720859153            0.000529567559           
       2.398787             0.00732696851            0.000492028476           
       2.401427             0.00701203218            0.000464602007           
       2.404067             0.00734181511            0.000486005956           
       2.406708             0.00709970804            0.000472194299           
       2.409348             0.00692192286            0.000494543672           
       2.411988             0.00695676522            0.000485761371           
       2.414629             0.00800262829            0.000537223345           
       2.417269             0.00709132403              0.0005116151           
       2.419910             0.00780260286            0.000537905559           
       2.422550             0.00716265442            0.000493078946           
       2.425190             0.00743147343            0.000529420265           
       2.427831             0.00753643606            0.000530148939           
       2.430471             0.00681152612            0.000480164612           
       2.433112             0.00616310182            0.000444754414           
       2.435752              0.0067969704            0.000494301685           
       2.438392             0.00619599374            0.000455521789           
       2.441033              0.0071014938            0.000516835136           
       2.443673             0.00680649998            0.000506375688           
       2.446313              0.0068298194            0.000507689613           
       2.448954               0.007274977            0.000498896197           
       2.451594             0.00651745375            0.000507733965           
       2.454235              0.0070640097            0.000495956876           
       2.456875             0.00666194695            0.000503963785           
       2.459515             0.00802935164            0.000567595121           
       2.462156             0.00801318211            0.000535348985           
       2.464796              0.0072537555            0.000502778107           
       2.467436             0.00737283831            0.000524182023           
       2.470077             0.00735816266              0.0004963347           
       2.472717             0.00766671416            0.000508828925           
       2.475358             0.00778505421              0.0005180873           
       2.477998             0.00769756808            0.000506483022           
       2.480638             0.00755143661             0.00051056632           
       2.483279             0.00754841818            0.000533516536           
       2.485919             0.00681904397            0.000488693336           
       2.488560             0.00682027202            0.000487371731           
       2.491200             0.00620048507            0.000478517801           
       2.493840              0.0070190268            0.000538720046           
       2.496481             0.00660107702            0.000513888892           
       2.499121             0.00667898978            0.000502780176           
       2.501761             0.00830928526            0.000568225853           
       2.504402               0.007089425            0.000517193237           
       2.507042             0.00725086276             0.00051917405           
       2.509683              0.0080044007            0.000537147748           
       2.512323             0.00806990247            0.000566442115           
       2.514963             0.00615829115            0.000488711552           
       2.517604             0.00789033821            0.000574014393           
       2.520244             0.00697481838            0.000505956929           
       2.522884             0.00739518301            0.000528431124           
       2.525525             0.00783886243            0.000550227144           
       2.528165             0.00747939218            0.000529085279           
       2.530806             0.00813099217            0.000561266261           
       2.533446              0.0117817592            0.000661198944           
       2.536086              0.0101152077            0.000607169407           
       2.538727             0.00711256322            0.000488440562           
       2.541367             0.00778521638            0.000516049154           
       2.544008             0.00835004307            0.000551947495           
       2.546648              0.0066368423            0.000500518701           
       2.549288             0.00804796917            0.000562396846           
       2.551929             0.00810718982            0.000555464623           
       2.554569             0.00701997469             0.00049796979           
       2.557209             0.00853138933            0.000554007143           
       2.559850             0.00749107724            0.000520798828           
       2.562490             0.00699578756            0.000520174683           
       2.565131             0.00652247852            0.000520776145           
       2.567771             0.00763475591            0.000543234073           
       2.570411             0.00741747144            0.000529654603           
       2.573052             0.00678360115            0.000512896981           
       2.575692             0.00698068912            0.000517143744           
       2.578332             0.00769009967            0.000545029899           
       2.580973             0.00663613403            0.000501487329           
       2.583613             0.00617115288            0.000472084215           
       2.586254             0.00669653291            0.000491085764           
       2.588894             0.00671880391            0.000510816437           
       2.591534             0.00673521915            0.000529436436           
       2.594175             0.00669200353            0.000517776524           
       2.596815             0.00737540956            0.000546777373           
       2.599456             0.00660464098            0.000490665693           
       2.602096             0.00691716604            0.000505961876           
       2.604736             0.00725642941            0.000530509365           
       2.607377             0.00691074723            0.000504075376           
       2.610017             0.00649257118            0.000480036273           
       2.612657             0.00658210681             0.00051409955           
       2.615298             0.00669006049            0.000506022191           
       2.617938             0.00682772581            0.000546855538           
       2.620579              0.0076223806            0.000554685158           
       2.623219             0.00736777228            0.000544565107           
       2.625859             0.00748810634              0.0005337763           
       2.628500             0.00659959731              0.0004978242           
       2.631140             0.00758927454            0.000542073437           
       2.633780             0.00637640092             0.00049644152           
       2.636421               0.007829489            0.000563634959           
       2.639061             0.00837344809            0.000548719862           
       2.641702             0.00643140238            0.000492029255           
       2.644342             0.00663588882            0.000501919676           
       2.646982             0.00781207512            0.000536446298           
       2.649623             0.00663449628            0.000518073845           
       2.652263             0.00728519623            0.000537437758           
       2.654904               0.008553264            0.000582921643           
       2.657544             0.00639785151              0.0004748587           
       2.660184             0.00820947407            0.000569259352           
       2.662825             0.00697498189            0.000536889006           
       2.665465             0.00679959877            0.000512690244           
       2.668105             0.00756061715            0.000569834107           
       2.670746             0.00739140831            0.000520481313           
       2.673386              0.0125963543            0.000700238136           
       2.676027              0.0134199908            0.000711168938           
       2.678667              0.0090554476            0.000570020136           
       2.681307              0.0119158261            0.000642473197           
       2.683948              0.0140797331            0.000717550357           
       2.686588              0.0108667925            0.000619930937           
       2.689229             0.00926273079             0.00055927734           
       2.691869               0.010216363            0.000620783249           
       2.694509             0.00994035104            0.000612676562           
       2.697150             0.00720085335            0.000513001472           
       2.699790             0.00726672434            0.000540262592           
       2.702430             0.00667119181             0.00049481237           
       2.705071             0.00661122858            0.000508992155           
       2.707711             0.00686907055            0.000503556335           
       2.710352             0.00605149885            0.000499403407           
       2.712992             0.00581141503             0.00049844558           
       2.715632              0.0069215265            0.000504699489           
       2.718273             0.00658629517             0.00051022934           
       2.720913              0.0063974899             0.00050143214           
       2.723553             0.00689925403            0.000524218813           
       2.726194             0.00808993661            0.000593386075           
       2.728834              0.0078476941             0.00058470867           
       2.731475             0.00733874638            0.000521843023           
       2.734115             0.00712174529            0.000530024262           
       2.736755             0.00778140418            0.000558587843           
       2.739396             0.00704380658            0.000528375474           
       2.742036              0.0065612207            0.000533699559           
       2.744677             0.00751784818            0.000554301987           
       2.747317             0.00680395842            0.000523567346           
       2.749957             0.00745458071            0.000551874716           
       2.752598             0.00771621391            0.000567569211           
       2.755238             0.00764274086            0.000575057586           
       2.757878             0.00786498839            0.000578258432           
       2.760519             0.00832004605            0.000588445551           
       2.763159             0.00961212331            0.000626168542           
       2.765800             0.00711561084            0.000513420806           
       2.768440             0.00755161906            0.000532813327           
       2.771080             0.00816251921            0.000558569483           
       2.773721              0.0057443155            0.000480668133           
       2.776361             0.00749717484            0.000556705583           
       2.779001             0.00721031746            0.000565387948           
       2.781642             0.00645567155            0.000531040542           
       2.784282             0.00711133824            0.000566521067           
       2.786923             0.00734441841            0.000580799504           
       2.789563             0.00645227933            0.000524304234           
       2.792203             0.00667504362            0.000509432974           
       2.794844             0.00651978368            0.000551798699           
       2.797484             0.00801669209             0.00057745935           
       2.800125             0.00712371892            0.000572382867           
       2.802765             0.00696268046             0.00055614127           
       2.805405             0.00773519903            0.000588166215           
       2.808046             0.00666590456            0.000555599994           
       2.810686              0.0066139391            0.000508537912           
       2.813326             0.00624673308             0.00051335747           
       2.815967             0.00830132163             0.00060861547           
       2.818607             0.00661988077            0.000518641907           
       2.821248             0.00707658255            0.000525101234           
       2.823888             0.00704363966            0.000543798209           
       2.826528             0.00731186164            0.000536575277           
       2.829169             0.00647231992            0.000528782966           
       2.831809             0.00638339041            0.000532280685           
       2.834449             0.00583021387            0.000511909541           
       2.837090              0.0068247642             0.00053493452           
       2.839730             0.00713756931            0.000544385262           
       2.842371             0.00619421327            0.000507867719           
       2.845011             0.00715005526            0.000549996928           
       2.847651             0.00714261023            0.000550385638           
       2.850292             0.00686489495            0.000544875161           
       2.852932             0.00680600575            0.000554356683           
       2.855573              0.0072542783            0.000555168218           
       2.858213             0.00717564342            0.000579825582           
       2.860853             0.00770371428            0.000558865435           
       2.863494             0.00677297706             0.00054254848           
       2.866134             0.00680081888            0.000565069747           
       2.868774             0.00757727782            0.000586193509           
       2.871415             0.00678299678            0.000563258597           
       2.874055             0.00709799801            0.000550765033           
       2.876696             0.00636234466             0.00053554752           
       2.879336             0.00734529501            0.000554605851           
       2.881976             0.00748411724            0.000577418005           
       2.884617             0.00625808768            0.000520253818           
       2.887257             0.00763938409            0.000577776002           
       2.889897             0.00611139321            0.000506138031           
       2.892538             0.00644076054            0.000569221455           
       2.895178             0.00747562228            0.000554028985           
       2.897819             0.00700414142            0.000547050127           
       2.900459             0.00711002189            0.000540447463           
       2.903099             0.00611044943            0.000495890955           
       2.905740             0.00711110116            0.000548796465           
       2.908380             0.00780225205            0.000581379392           
       2.911021             0.00653209696             0.00054060505           
       2.913661             0.00800341103            0.000598220397           
       2.916301             0.00685070637            0.000553994299           
       2.918942              0.0060593257            0.000498363133           
       2.921582             0.00650215993            0.000540149361           
       2.924222              0.0075363502            0.000563382236           
       2.926863             0.00736363585            0.000580064339           
       2.929503              0.0080015729            0.000611832766           
       2.932144             0.00564386711            0.000493261255           
       2.934784             0.00701271106            0.000540818292           
       2.937424             0.00672602929            0.000535086335           
       2.940065              0.0065446865            0.000503493964           
       2.942705             0.00653187341            0.000502369797           
       2.945346             0.00683433986            0.000545345698           
       2.947986             0.00682565714            0.000555710549           
       2.950626              0.0075646397            0.000581725883           
       2.953267             0.00804922019            0.000590373458           
       2.955907             0.00889815182            0.000643917753           
       2.958547              0.0073927563            0.000554088689           
       2.961188             0.00728591279            0.000573876746           
       2.963828             0.00843874118            0.000604138361           
       2.966469             0.00733634927            0.000552592586           
       2.969109             0.00706425896             0.00055028274           
       2.971749             0.00740690057            0.000559954938           
       2.974390             0.00797088126             0.00057082296           
       2.977030             0.00697016341             0.00054571839           
       2.979670             0.00973548142            0.000627337737           
       2.982311             0.00715859233            0.000557551174           
       2.984951             0.00720330726            0.000531933793           
       2.987592             0.00732595792             0.00054718781           
       2.990232             0.00782602753            0.000588171167           
       2.992872             0.00803038601            0.000561210907           
       2.995513             0.00792227449            0.000545340598           
       2.998153              0.0110505943            0.000654895167           
       3.000794              0.0127807872            0.000682187032           
       3.003434              0.0121498128            0.000666138733           
       3.006074              0.0580582976             0.00143576031           
       3.008715               0.135856433             0.00212010959           
       3.011355               0.163512969             0.00224293582           
       3.013995              0.0803199802             0.00157627702           
       3.016636              0.0557379132             0.00128583098           
       3.019276               0.126750844             0.00190602455           
       3.021917               0.515829253             0.00369723651           
       3.024557                1.79893689             0.00678831819           
       3.027197                 1.0813305             0.00513114897           
       3.029838               0.501463098             0.00354382188           
       3.032478               0.256831475             0.00253873795           
       3.035118              0.0753126343             0.00139320639           
       3.037759               0.105311082             0.00164534842           
       3.040399                0.15654764             0.00206930192           
       3.043040               0.577520121             0.00402323224           
       3.045680                 0.3686131             0.00302413435           
       3.048320              0.0732680139              0.0013775903           
       3.050961               0.114284556             0.00175082352           
       3.053601              0.0834166516             0.00144064155           
       3.056242               0.056877345             0.00126479248           
       3.058882              0.0503770355             0.00127686635           
       3.061522              0.0375990168             0.00108227883           
       3.064163               0.046953877             0.00119421663           
       3.066803               0.108926758             0.00191493584           
       3.069443               0.107905117             0.00199409567           
       3.072084              0.0510550967             0.00133562474           
       3.074724              0.0392771697               0.001308276           
       3.077365              0.0851505197             0.00199405217           
       3.080005               0.016698366            0.000888042666           
       3.082645               0.010304155            0.000732839303           
       3.085286              0.0138515517            0.000856376542           
       3.087926             0.00985573343            0.000716803111           
       3.090566              0.0104910828            0.000724612966           
       3.093207             0.00973739105             0.00072644464           
       3.095847             0.00905676433            0.000671510676           
       3.098488             0.00880165252            0.000734028654           
       3.101128             0.00892142956            0.000743758891           
       3.103768               0.010032849            0.000773888916           
       3.106409             0.00757450026            0.000715640465           
       3.109049             0.00915016865            0.000754823704           
       3.111690             0.00827725776             0.00070559259           
       3.114330             0.00908513956            0.000754950623           
       3.116970             0.00865292475             0.00074243017           
       3.119611              0.0143747461             0.00101857496           
       3.122251              0.0207178422             0.00127911852           
       3.124891              0.0349233511             0.00167618938           
       3.127532              0.0214049043             0.00128377784           
       3.130172              0.0134113594             0.00103373655           
       3.132813              0.0090816217            0.000837443824           
       3.135453             0.00810358467            0.000784549563           
       3.138093             0.00728679168            0.000806107705           
       3.140734             0.00705816998            0.000731936777           
       3.143374             0.00755202483            0.000800677366           
       3.146014             0.00461246811              0.0006736355           
       3.148655             0.00729792967            0.000787681728           
       3.151295             0.00625435998            0.000777068909           
       3.153936             0.00603727958            0.000737483501           
       3.156576             0.00718799239            0.000793757122           
       3.159216             0.00655285342            0.000761668327           
       3.161857             0.00680759507            0.000773172569           
       3.164497             0.00871958133            0.000919413824           
       3.167138             0.00743611751            0.000877282067           
       3.169778             0.00720265571            0.000849162196           
       3.172418             0.00705881759            0.000832089813           
       3.175059             0.00575890438            0.000666305867           
       3.177699             0.00612704784            0.000727780626           
       3.180339             0.00515551556            0.000715272702           
       3.182980             0.00498227259            0.000726987929           
       3.185620             0.00583772114            0.000801419423           
       3.188261             0.00500626023            0.000755399526           
       3.190901             0.00586973514            0.000752280926           
       3.193541             0.00711029704            0.000869996928           
       3.196182             0.00531896175            0.000784178235           
       3.198822              0.0058853658            0.000825151363           
       3.201463             0.00679365327            0.000871266653           
       3.204103             0.00686186603            0.000870302337           
       3.206743             0.00542355083            0.000773659967           
       3.209384             0.00501200591            0.000803534459           
       3.212024             0.00546127615            0.000782001926           
       3.214664             0.00565938977            0.000905233129           
       3.217305             0.00651400716            0.000923173715           
       3.219945             0.00511340722            0.000841857922           
       3.222586             0.00601311528            0.000869542447           
       3.225226             0.00619296851             0.00097894161           
       3.227866             0.00566875519            0.000856037175           
       3.230507              0.0045705751            0.000796799881           
       3.233147             0.00877074632             0.00111269182           
       3.235787             0.00499560927            0.000859380856           
       3.238428             0.00395689618            0.000825355687           
       3.241068             0.00613738165            0.000961147577           
       3.243709              0.0028695107            0.000678999652           
       3.246349             0.00560499147            0.000865075872           
       3.248989             0.00559698118              0.0010207318           
       3.251630             0.00621051067             0.00103541002           
       3.254270             0.00536240933            0.000859873295           
       3.256911             0.00574123454            0.000970791687           
       3.259551             0.00533736394             0.00100771292           
       3.262191             0.00590837834             0.00108299064           
       3.264832             0.00409858657            0.000942457192           
       3.267472             0.00859261432             0.00128014703           
       3.270112             0.00466137243             0.00104199697           
       3.272753             0.00585186317             0.00106863999           
       3.275393             0.00772711643             0.00125297251           
       3.278034             0.00748809754             0.00123413595           
       3.280674             0.00550352066             0.00114810833           
       3.283314             0.00497978301            0.000976736441           
       3.285955             0.00551850949             0.00106089002           
       3.288595             0.00578700536             0.00120865136           
       3.291235             0.00530519773             0.00118963681           
       3.293876             0.00740712831             0.00142588631           
       3.296516              0.0060677407             0.00123895306           
       3.299157             0.00517900553             0.00113024602           
       3.301797             0.00512465142              0.0012824712           
       3.304437             0.00554175409              0.0011554415           
       3.307078             0.00375791641             0.00104810956           
       3.309718             0.00685256813             0.00146088189           
       3.312359             0.00217180412            0.000822625001           
       3.314999             0.00330147072            0.000998612796           
       3.317639             0.00554116966             0.00123729512           
       3.320280             0.00591802745             0.00135949819           
       3.322920              0.0064521317             0.00144341271           
       3.325560             0.00802428878             0.00161078337           
       3.328201             0.00313249675             0.00090640234           
       3.330841             0.00465753736             0.00134513776           
       3.333482              0.0073143684             0.00159336146           
       3.336122             0.00485266726             0.00129842162           
       3.338762             0.00460138809             0.00146052882           
       3.341403             0.00506057293              0.0014635731           
       3.344043             0.00467700842              0.0013508502           
       3.346683             0.00488884818             0.00140999462           
       3.349324             0.00460989932             0.00153940652           
       3.351964             0.00398187396             0.00151292157           
       3.354605             0.00375759539              0.0016808226           
       3.357245             0.00726039335             0.00210768015           
       3.359885             0.00433165732              0.0013029785           
       3.362526             0.00546026627              0.0018294281           
       3.365166             0.00494620421             0.00164227276           
       3.367807             0.00442989334             0.00198905552           
       3.370447              0.0085865174             0.00229711333           
       3.373087              0.0083147127             0.00241726785           
       3.375728             0.00535553744             0.00218948468           
       3.378368              0.0018557418             0.00191279776           
       3.381008             0.00987413005             0.00328956019           
       3.383649             0.00419619578             0.00172028636           
       3.386289             0.00294635518             0.00170606654           
       3.388930               0.004912581             0.00348458926           
       3.391570             0.00121490563             0.00122583069           
       3.394210             0.00594645626             0.00343208711           
       3.396851             0.00492566004             0.00349409896           
       3.399491             0.00982769188             0.00493686033           
       3.402131           -2.65203678e-05                         0           
       3.404772           -2.65331678e-05                         0           
       3.407412                       nan                       nan           
       3.410053           -2.65985191e-05                         0           
       3.412693                       nan                       nan           
       3.415333           -2.66493484e-05                         0           
