################################################################################
# EDF_DataBlockID                     0.Image.Psd
# EDF_BinarySize                      2105344
# EDF_HeaderSize                      2560
# ByteOrder                           LowByteFirst
# DataType                            FloatValue
# Dim_1                               512
# Dim_2                               1028
# Image                               0
# HeaderID                            EH:000000:000000:000000
# Size                                2105344
# Center_1                            304.9000
# Center_2                            588.7000
# Comment                             Xenocs_Cell_Window - 20251028_20perc_iodine_1.23mg
# DDummy                              0.6
# Date                                2025-11-01T20:14:53
# Delta                               21.910000
# Dummy                               -1.5
# ExposureTime                        360
# Gamma                               15.360000
# Intensity1                          8.77206e-10
# PSize_1                             7.5e-05
# PSize_2                             7.5e-05
# Pressure                            0.0326891
# SampleDistance                      0.115750
# SampleEnvKind                       large
# SampleEnvPN                         ElectroChemical cell
# SampleEnvSN                         1141
# Thickness                           0
# Wavelength                          1.541891e-10
# Wavelength                          1.54189e-10
# aux                                 0
# aux_dial                            0.002375
# beamx                               588.434
# beamx_dial                          588.434
# beamz                               657.808
# beamz_dial                          657.808
# det0x                               0
# det0x_dial                          6.36945
# det0xvd                             0
# det0xvd_dial                        0
# det0y                               450.002
# det0y_dial                          481.635
# det0z                               0
# det0z_dial                          1.23302
# det0zvd                             0
# det0zvd_dial                        0
# mag                                 1.818
# mag_dial                            1.818
# om                                  0.2499
# om_dial                             -0.610199
# phi                                 -0.0120535
# phi_dial                            0
# ry                                  0.599993
# ry_dial                             0.599993
# s1bot                               0.8
# s1bot_dial                          -1.66094
# s1hl                                0.8
# s1hl_dial                           -0.608437
# s1hr                                0.8
# s1hr_dial                           0.970938
# s1top                               0.8
# s1top_dial                          -0.461562
# s2bot                               0.45
# s2bot_dial                          1.36109
# s2hl                                0.45
# s2hl_dial                           -0.83375
# s2hr                                0.45
# s2hr_dial                           -0.118594
# s2top                               0.45
# s2top_dial                          1.44734
# w2theta                             32
# w2theta_dial                        32
# waxsch                              19.2605
# waxsch_dial                         -32.7355
# waxsh                               137.085
# waxsh_dial                          -43.5338
# waxsth                              26.0607
# waxsth_dial                         -19.4086
# waxsz                               67.0407
# waxsz_dial                          -23.7954
# wind                                65.9854
# wind_dial                           66.0041
# wpsi                                124
# wpsi_dial                           124
# wstod                               115
# wstod_dial                          115
# x                                   0
# x_dial                              1.00969
# z                                   0
# z_dial                              13.3172
# CountCutoff                         6807993
# DetectorModel                       Dectris EIGER2 Si 500K, S/N E-01-0554
# ThresholdSetting                    4023.88989258
# Saturation                          0
# FlatField                           Corrected
# BackgroundReductionExtra            0.02
# BackgroundCorrectionConstant        0.0026712
# Detector                            0
# Monitor                             0
# Pil_Roi0                            0
# SumForIntensity1                    3.15794e+08
# TransmittedFlux                     877206
# det                                 0
# mon                                 0
# pilai0                              3.15794e+08
# pilai1                              793020
# pilct0                              5.4519e+08
# pilct1                              793020
# pilroi0                             0
# pilroi1                             0
# sec                                 1
# title                               20251028_20perc_iodine_1.23mg_1_00926.edf
# usaxs0                              0
# Operation                           Azimuthal average I(q)
# Error_model                         ErrorModel.poisson
# Geometrical_correction              True
# Transmission_correction             True
# Thickness_correction                False
# Binning mode                        Uniform
# Binning factor                      1.0
# Psi                                 0.0
# Omega                               0.2499
# MaskInvalidPixels                   True
# DetectorEdge                        3
# MaskFiles                           ['WAXS_corrected.edf']
################################################################################
    q(A⁻¹)                Intensity(a.u.)            Sigma_I(a.u.)            
       0.693100           -2.31453077e-05                         0           
       0.695741              0.0109867296             0.00562995871           
       0.698381             0.00825305035             0.00597710789           
       0.701021            -2.3108858e-05                         0           
       0.703662             0.00824317521             0.00487441791           
       0.706302             0.00515399923             0.00298404127           
       0.708942             0.00555864567             0.00399979931           
       0.711583             0.00639917319             0.00371622012           
       0.714223             0.00280759014             0.00284188351           
       0.716864             0.00243735869             0.00173248676           
       0.719504             0.00712784234             0.00319710648           
       0.722144             0.00121173456             0.00122075531           
       0.724785             0.00692300679             0.00232757486           
       0.727425           -2.29535743e-05                         0           
       0.730065             0.00785600814             0.00237267638           
       0.732706             0.00896314276             0.00212821963           
       0.735346             0.00594182286             0.00225876084           
       0.737987              0.0072685699             0.00176535461           
       0.740627             0.00753757235             0.00268231452           
       0.743267             0.00805413388             0.00185714382           
       0.745908              0.0045382499             0.00151247791           
       0.748548             0.00987664022             0.00205666657           
       0.751189             0.00856297833             0.00258040707           
       0.753829             0.00460857974             0.00174014108           
       0.756469             0.00508023447             0.00147324892           
       0.759110             0.00666490064             0.00177828608           
       0.761750             0.00628850494             0.00152735206           
       0.764390             0.00854029463             0.00186297636           
       0.767031              0.0088488052             0.00164214838           
       0.769671              0.0076044963             0.00189897805           
       0.772312             0.00489123004             0.00115943155           
       0.774952             0.00701402839              0.0018749062           
       0.777592             0.00900065977             0.00154699941           
       0.780233             0.00613111776             0.00154044635           
       0.782873             0.00704448726             0.00157922522           
       0.785513             0.00361711805             0.00120977469           
       0.788154             0.00622593356             0.00132772846           
       0.790794             0.00604880421             0.00156459098           
       0.793435             0.00783521422             0.00159971167           
       0.796075             0.00756142086             0.00151385453           
       0.798715             0.00758978058             0.00179229624           
       0.801356             0.00682749804             0.00146305917           
       0.803996             0.00649052683             0.00145433277           
       0.806637             0.00844986583             0.00132056852           
       0.809277              0.0060515947             0.00120962926           
       0.811917             0.00825950454             0.00132108881           
       0.814558             0.00570897938             0.00114152154           
       0.817198             0.00723028192             0.00122047118           
       0.819838             0.00822907275             0.00131776381           
       0.822479              0.0055410821              0.0012697801           
       0.825119             0.00777577377             0.00128025581           
       0.827760              0.0080290872             0.00131780415           
       0.830400             0.00895065182             0.00130954468           
       0.833040             0.00819011794             0.00131241664           
       0.835681             0.00599311951             0.00127628659           
       0.838321             0.00901427038             0.00131377425           
       0.840961             0.00838782205             0.00138078497           
       0.843602             0.00816928449               0.001249632           
       0.846242             0.00814515506             0.00124759902           
       0.848883             0.00800411777              0.0012656361           
       0.851523             0.00700941778             0.00116967327           
       0.854163             0.00749683891             0.00128641724           
       0.856804             0.00874691102             0.00124938433           
       0.859444             0.00701170365             0.00109602616           
       0.862085             0.00594757254             0.00105208554           
       0.864725             0.00723263837             0.00118733591           
       0.867365              0.0065548292             0.00104814608           
       0.870006             0.00820356803             0.00111737873           
       0.872646             0.00601361693             0.00100321183           
       0.875286             0.00756831528             0.00108274797           
       0.877927             0.00733239246             0.00102838789           
       0.880567             0.00714442627              0.0010516859           
       0.883208             0.00682238866              0.0010180281           
       0.885848               0.006699919             0.00104748918           
       0.888488             0.00602654918            0.000931801453           
       0.891129             0.00774212666             0.00108442957           
       0.893769             0.00666737269             0.00096310208           
       0.896410             0.00601015674            0.000852544424           
       0.899050             0.00657805272            0.000980862494           
       0.901690             0.00676405984             0.00108344512           
       0.904331              0.0069658373            0.000974755227           
       0.906971             0.00773099738             0.00109244872           
       0.909611             0.00729281507            0.000965884094           
       0.912252             0.00748482815             0.00101070519           
       0.914892             0.00866372674             0.00118828716           
       0.917533             0.00613122627            0.000945653779           
       0.920173             0.00764270202            0.000979575495           
       0.922813             0.00674241882            0.000965513022           
       0.925454             0.00683167133            0.000875153398           
       0.928094             0.00675374523            0.000928956171           
       0.930734             0.00591669761            0.000936097793           
       0.933375             0.00739064181             0.00103593403           
       0.936015             0.00933589922             0.00105744365           
       0.938656             0.00607835557            0.000915327013           
       0.941296             0.00724411474            0.000905599266           
       0.943936             0.00761965137            0.000910808763           
       0.946577             0.00815258293            0.000935893731           
       0.949217             0.00708644705            0.000802394174           
       0.951858             0.00696889264            0.000832950647           
       0.954498             0.00841550285             0.00105947763           
       0.957138             0.00754664782            0.000950485023           
       0.959779             0.00813300192            0.000972702541           
       0.962419             0.00778302087            0.000945214285           
       0.965059              0.0067241981             0.00092402589           
       0.967700             0.00491086173            0.000808773388           
       0.970340              0.0082282721            0.000926396751           
       0.972981             0.00705639137             0.00078162447           
       0.975621             0.00765642726            0.000866146164           
       0.978261             0.00750497419            0.000814810651           
       0.980902             0.00651802856             0.00090852069           
       0.983542             0.00784901517            0.000882886353           
       0.986182             0.00815733632            0.000883673263           
       0.988823              0.0074824135            0.000821785337           
       0.991463             0.00708251908            0.000853008508           
       0.994104             0.00593561463            0.000761774558           
       0.996744             0.00722425759            0.000857209537           
       0.999384             0.00813906041            0.000813724725           
       1.002025             0.00779681364            0.000888923847           
       1.004665             0.00729213908            0.000785635055           
       1.007306             0.00903879896            0.000870202001           
       1.009946             0.00811242378            0.000840776622           
       1.012586             0.00611317905            0.000710839524           
       1.015227             0.00838280799            0.000894259633           
       1.017867             0.00750429051            0.000813164341           
       1.020507             0.00718440265            0.000770689423           
       1.023148             0.00701862382             0.00082194451           
       1.025788             0.00914844368            0.000860443016           
       1.028429             0.00772854777            0.000828551799           
       1.031069             0.00693196529            0.000738424795           
       1.033709             0.00984687348            0.000935538212           
       1.036350             0.00751844563            0.000734207524           
       1.038990             0.00750433595             0.00074699768           
       1.041630             0.00687307005            0.000745636261           
       1.044271             0.00864795166            0.000786593383           
       1.046911             0.00830943591            0.000811038213           
       1.049552             0.00786711687            0.000829109428           
       1.052192             0.00934123613            0.000824968373           
       1.054832             0.00816004658             0.00077806216           
       1.057473             0.00685677508            0.000703091487           
       1.060113              0.0076838328            0.000725882893           
       1.062754             0.00736603289            0.000725625736           
       1.065394             0.00878181325            0.000837662619           
       1.068034             0.00820334195            0.000736628285           
       1.070675             0.00922139301            0.000814679358           
       1.073315              0.0093390055             0.00083160982           
       1.075955             0.00950731531            0.000792130137           
       1.078596             0.00783606243             0.00076430858           
       1.081236              0.0092895975            0.000796868433           
       1.083877              0.0080488997            0.000735094134           
       1.086517             0.00932700875            0.000848514404           
       1.089157             0.00855358175            0.000843134832           
       1.091798             0.00808904093            0.000718837481           
       1.094438             0.00901960666            0.000756609894           
       1.097078              0.0093387714            0.000738395791           
       1.099719             0.00906666386             0.00078696608           
       1.102359             0.00924269522            0.000744123295           
       1.105000             0.00883755432            0.000813634082           
       1.107640             0.00987561944            0.000822388472           
       1.110280             0.00837369141              0.0006909552           
       1.112921             0.00868464017            0.000755890758           
       1.115561             0.00756199284            0.000670370842           
       1.118202             0.00822574796            0.000699831867           
       1.120842             0.00933961665            0.000783747073           
       1.123482             0.00970904331            0.000795607077           
       1.126123             0.00951542311            0.000755472999           
       1.128763              0.0099648052            0.000778407122           
       1.131403             0.00977196901            0.000742768979           
       1.134044              0.0086128502            0.000717550658           
       1.136684              0.0102625152            0.000835091122           
       1.139325             0.00893493008            0.000717804107           
       1.141965             0.00765006372            0.000668581734           
       1.144605             0.00806555849            0.000654577764           
       1.147246              0.0091224742             0.00071244524           
       1.149886              0.0078568415            0.000658832021           
       1.152527              0.0088594512            0.000709780632           
       1.155167             0.00920637233            0.000688200634           
       1.157807             0.00856147239            0.000711560759           
       1.160448             0.00813261662            0.000677230554           
       1.163088             0.00845640688            0.000658712202           
       1.165728             0.00994926163            0.000733583842           
       1.168369              0.0101764841            0.000748767623           
       1.171009             0.00855529168            0.000666268052           
       1.173650             0.00949630204             0.00072037248           
       1.176290             0.00840250817            0.000662183865           
       1.178930              0.0087274576            0.000661430805           
       1.181571             0.00974282423            0.000712706819           
       1.184211             0.00965292578            0.000711926347           
       1.186851             0.00933317438            0.000684414946           
       1.189492             0.00951906429            0.000686547086           
       1.192132              0.0107802351            0.000722415375           
       1.194773             0.00932360195            0.000674773685           
       1.197413             0.00933815368            0.000647033059           
       1.200053              0.0105239796            0.000704340828           
       1.202694              0.0103632425            0.000664653168           
       1.205334             0.00969083724              0.0006926607           
       1.207975             0.00927143517            0.000646698935           
       1.210615             0.00871816285            0.000691804779           
       1.213255              0.0101079492            0.000667047899           
       1.215896              0.0103096457            0.000685876471           
       1.218536             0.00926371413            0.000625151424           
       1.221176              0.0108784975            0.000736526911           
       1.223817             0.00987527525            0.000658739089           
       1.226457              0.0103247484            0.000687133337           
       1.229098             0.00854968439            0.000625252107           
       1.231738              0.0111743639            0.000718329538           
       1.234378               0.010171048            0.000643963759           
       1.237019             0.00968992889            0.000647713393           
       1.239659              0.0101186265            0.000656120561           
       1.242299             0.00972518859            0.000635065851           
       1.244940              0.0104297461            0.000639623216           
       1.247580             0.00987105351            0.000641285707           
       1.250221                 0.0106975            0.000663472458           
       1.252861              0.0102912659            0.000619519943           
       1.255501              0.0104672852            0.000678408538           
       1.258142              0.0105025085            0.000638558232           
       1.260782             0.00935043955            0.000615554801           
       1.263423               0.010167807             0.00061678901           
       1.266063              0.0109875353            0.000657180764           
       1.268703              0.0104594965            0.000635874275           
       1.271344              0.0107477002            0.000666420392           
       1.273984             0.00965573919            0.000610058801           
       1.276624             0.00967885644            0.000599314048           
       1.279265              0.0103554945            0.000630203432           
       1.281905              0.0105420727              0.0006386774           
       1.284546              0.0112691389             0.00063827306           
       1.287186              0.0102679419            0.000597748965           
       1.289826              0.0111424749            0.000656258339           
       1.292467              0.0110163869             0.00063816206           
       1.295107              0.0109033718             0.00062857358           
       1.297747               0.010125997            0.000579654024           
       1.300388              0.0109102374            0.000655909396           
       1.303028              0.0107892159            0.000622687902           
       1.305669             0.00892060619            0.000579685486           
       1.308309              0.0111807043            0.000642586868           
       1.310949             0.00975800034            0.000599709609           
       1.313590             0.00980594423            0.000582388834           
       1.316230              0.0100966147            0.000630633673           
       1.318871              0.0113182595            0.000653926724           
       1.321511              0.0111416672            0.000636779459           
       1.324151             0.00940592624             0.00056773386           
       1.326792              0.0108850288             0.00061451929           
       1.329432             0.00979132906            0.000578716622           
       1.332072              0.0120671601            0.000632887679           
       1.334713              0.0104143866            0.000606823526           
       1.337353              0.0108885163             0.00059505561           
       1.339994              0.0121167379            0.000658729749           
       1.342634              0.0116786554            0.000620156083           
       1.345274              0.0107335291            0.000615285625           
       1.347915              0.0117308888            0.000625474007           
       1.350555              0.0114253392            0.000628085381           
       1.353195              0.0105319986            0.000605992632           
       1.355836              0.0107086238            0.000601524635           
       1.358476              0.0114409794            0.000603816978           
       1.361117              0.0118188314            0.000614549258           
       1.363757              0.0107693449             0.00060454221           
       1.366397              0.0110618039            0.000594154968           
       1.369038              0.0106134212            0.000587783561           
       1.371678              0.0118510037            0.000615632533           
       1.374319              0.0117450729            0.000607597546           
       1.376959              0.0102185037            0.000561037894           
       1.379599              0.0107443138            0.000616538175           
       1.382240              0.0113803586            0.000596358065           
       1.384880              0.0102351868            0.000599054235           
       1.387520              0.0117132387             0.00060863553           
       1.390161               0.010876416            0.000557026018           
       1.392801              0.0118481455            0.000605738367           
       1.395442              0.0115238558            0.000605550168           
       1.398082              0.0111814416            0.000558582975           
       1.400722               0.011378652            0.000590240104           
       1.403363               0.011666531            0.000629109744           
       1.406003              0.0103324715             0.00055407834           
       1.408644              0.0116638426            0.000616695644           
       1.411284              0.0103262057            0.000549451964           
       1.413924              0.0118249211            0.000585794694           
       1.416565              0.0111682115            0.000567059727           
       1.419205              0.0109877653            0.000586735579           
       1.421845              0.0118257774             0.00060834158           
       1.424486              0.0121390187            0.000592449989           
       1.427126              0.0126355252            0.000627901126           
       1.429767              0.0115001979            0.000563612721           
       1.432407              0.0120012167             0.00060254529           
       1.435047              0.0116942342            0.000558605624           
       1.437688              0.0117135697            0.000567426272           
       1.440328              0.0105894809            0.000550633869           
       1.442968              0.0106720053            0.000565160507           
       1.445609              0.0105854932            0.000545009532           
       1.448249              0.0116241226            0.000585582089           
       1.450890              0.0116459479            0.000582305912           
       1.453530              0.0102791753            0.000572345272           
       1.456170               0.011540594            0.000588571301           
       1.458811               0.011616172            0.000564644256           
       1.461451              0.0114054957            0.000560968209           
       1.464092              0.0105010369            0.000541785476           
       1.466732              0.0102782069            0.000531400323           
       1.469372              0.0112329137             0.00054253118           
       1.472013              0.0102982609            0.000560258731           
       1.474653              0.0116201193            0.000585949552           
       1.477293              0.0113363551            0.000590949002           
       1.479934               0.011166211            0.000559641181           
       1.482574               0.010856331            0.000533800679           
       1.485215              0.0106734386            0.000539143274           
       1.487855              0.0119251769            0.000577399002           
       1.490495              0.0105284779            0.000540535209           
       1.493136              0.0103331705             0.00052815816           
       1.495776              0.0109062584            0.000540135953           
       1.498416              0.0109505863            0.000558940104           
       1.501057              0.0108753082            0.000544739822           
       1.503697              0.0109495002            0.000534383588           
       1.506338              0.0111605674            0.000549368234           
       1.508978               0.011496902            0.000552101211           
       1.511618              0.0106298145            0.000565377794           
       1.514259              0.0102564934            0.000536175003           
       1.516899              0.0110129799            0.000540966855           
       1.519540              0.0110891679            0.000551588455           
       1.522180              0.0104856191            0.000541079552           
       1.524820              0.0111139845            0.000553930808           
       1.527461               0.010430293            0.000539276465           
       1.530101              0.0113723223            0.000557471304           
       1.532741             0.00999399909            0.000519564984           
       1.535382               0.010960134            0.000552858613           
       1.538022              0.0104583379            0.000508759805           
       1.540663               0.010618365            0.000551373173           
       1.543303             0.00999149176            0.000496616922           
       1.545943              0.0110219618            0.000552072817           
       1.548584              0.0115178762              0.0005744865           
       1.551224               0.011204086            0.000523881605           
       1.553864              0.0103466249            0.000531974227           
       1.556505             0.00926012508            0.000486170308           
       1.559145              0.0106051702            0.000526655435           
       1.561786              0.0114096014            0.000546685219           
       1.564426               0.011876177            0.000540402725           
       1.567066              0.0108646996             0.00054158892           
       1.569707              0.0105015189            0.000522895321           
       1.572347              0.0112265575            0.000558540089           
       1.574988              0.0103927245             0.00051151245           
       1.577628              0.0104170086            0.000534004161           
       1.580268              0.0108333158            0.000527630476           
       1.582909             0.00960686815            0.000526659179           
       1.585549             0.00903297052            0.000495859883           
       1.588189              0.0105982863            0.000525385269           
       1.590830              0.0093212215            0.000492097379           
       1.593470              0.0105546341            0.000544378271           
       1.596111             0.00917141857            0.000495433622           
       1.598751              0.0104044775            0.000511312148           
       1.601391             0.00963155471            0.000502807486           
       1.604032               0.009459547            0.000508714489           
       1.606672             0.00988879061            0.000505354073           
       1.609312              0.0100751337            0.000532477712           
       1.611953             0.00945728235            0.000504832957           
       1.614593             0.00899708004            0.000483002367           
       1.617234             0.00888284853            0.000497384505           
       1.619874              0.0097913839            0.000520138728           
       1.622514             0.00907499057             0.00049391822           
       1.625155              0.0095071568            0.000508528536           
       1.627795              0.0101610832            0.000512845417           
       1.630436             0.00852110038            0.000467186875           
       1.633076              0.0091956169             0.00049169087           
       1.635716              0.0092782875            0.000486211526           
       1.638357             0.00993904353            0.000504553078           
       1.640997             0.00924606692            0.000501387405           
       1.643637             0.00944537123            0.000493136974           
       1.646278             0.00951295701            0.000510447883           
       1.648918             0.00901032169            0.000498134824           
       1.651559             0.00877848624             0.00049550076           
       1.654199             0.00990663386            0.000511948647           
       1.656839             0.00907861457            0.000490258017           
       1.659480             0.00866046124            0.000496815622           
       1.662120              0.0092251247            0.000482931797           
       1.664761              0.0098310048            0.000517852737           
       1.667401             0.00926720949            0.000480554252           
       1.670041              0.0101749822            0.000511218776           
       1.672682              0.0095204941            0.000492471392           
       1.675322             0.00885866574            0.000471990959           
       1.677962             0.00996361926            0.000495040395           
       1.680603             0.00873643104            0.000464979155           
       1.683243             0.00908132021              0.0004946019           
       1.685884             0.00911830679            0.000499267976           
       1.688524             0.00910128663            0.000489159886           
       1.691164             0.00828157067            0.000466717792           
       1.693805             0.00922975755            0.000498124646           
       1.696445             0.00918931456            0.000499915247           
       1.699085             0.00774329164            0.000443522691           
       1.701726             0.00836840929            0.000444168257           
       1.704366             0.00911190772            0.000488263158           
       1.707007              0.0086572454            0.000465316809           
       1.709647             0.00928210647            0.000487258235           
       1.712287             0.00827840792            0.000464165839           
       1.714928             0.00902198832            0.000488470559           
       1.717568             0.00946180561            0.000471223571           
       1.720209             0.00870371586             0.00047338841           
       1.722849             0.00934010215            0.000487868266           
       1.725489             0.00873703091            0.000472251356           
       1.728130             0.00798251433            0.000479711237           
       1.730770             0.00882944989            0.000479156724           
       1.733410             0.00846398119            0.000461760944           
       1.736051              0.0091436205            0.000483282828           
       1.738691             0.00907641357            0.000471742755           
       1.741332             0.00849680075            0.000469778082           
       1.743972             0.00887105013            0.000495694425           
       1.746612             0.00896908924            0.000478616027           
       1.749253             0.00800917179            0.000461211254           
       1.751893              0.0084630964            0.000470620867           
       1.754533             0.00828401033            0.000465180051           
       1.757174             0.00860605982            0.000469695975           
       1.759814             0.00879963616            0.000467749736           
       1.762455             0.00857728059             0.00047028187           
       1.765095             0.00839525075            0.000445082417           
       1.767735             0.00860468071            0.000464500782           
       1.770376             0.00820930411            0.000454899704           
       1.773016             0.00915232308            0.000477099922           
       1.775657             0.00815819129            0.000443962531           
       1.778297             0.00825823869            0.000442830214           
       1.780937             0.00822431017            0.000466445984           
       1.783578             0.00954077967            0.000489831014           
       1.786218             0.00905853802            0.000498105557           
       1.788858             0.00973177141             0.00049034479           
       1.791499             0.00856594933            0.000454870991           
       1.794139              0.0080711246            0.000437955146           
       1.796780              0.0086600545             0.00045146508           
       1.799420              0.0090842825            0.000459830175           
       1.802060             0.00983389495            0.000482290568           
       1.804701             0.00873579989            0.000436222596           
       1.807341             0.00860417571            0.000454908742           
       1.809981              0.0088403788            0.000462647938           
       1.812622             0.00889825495            0.000455803516           
       1.815262             0.00903745724             0.00046911268           
       1.817903             0.00903103531            0.000461997664           
       1.820543             0.00878628179             0.00046279502           
       1.823183             0.00929805392            0.000475820693           
       1.825824             0.00848104274            0.000434148939           
       1.828464             0.00837403378             0.00044975453           
       1.831105             0.00872952152            0.000446505676           
       1.833745             0.00940598831             0.00047338178           
       1.836385             0.00812335753            0.000452478173           
       1.839026             0.00757906394            0.000435675695           
       1.841666             0.00814991865            0.000450183392           
       1.844306              0.0075843819            0.000422433473           
       1.846947             0.00791069108             0.00043520689           
       1.849587             0.00761313747            0.000471449101           
       1.852228             0.00813339815             0.00044063243           
       1.854868             0.00835724153            0.000471824642           
       1.857508             0.00817528765             0.00046208314           
       1.860149             0.00866026017            0.000484232304           
       1.862789             0.00807408133             0.00045130093           
       1.865429             0.00916272423            0.000501844101           
       1.868070             0.00852671167            0.000477661239           
       1.870710             0.00826350978            0.000459390261           
       1.873351             0.00770032763            0.000448941827           
       1.875991             0.00884042077            0.000488880254           
       1.878631             0.00812899767            0.000459818189           
       1.881272             0.00784709172            0.000448747791           
       1.883912             0.00794999795            0.000470068165           
       1.886553             0.00763750082            0.000455585824           
       1.889193             0.00757608052            0.000452974923           
       1.891833             0.00778332553            0.000476823087           
       1.894474             0.00797391951            0.000478422689           
       1.897114             0.00755351573            0.000450590246           
       1.899754             0.00742023938            0.000448465984           
       1.902395             0.00856570198            0.000472418558           
       1.905035             0.00793494352            0.000481595121           
       1.907676             0.00804074809            0.000456920983           
       1.910316             0.00784380257            0.000463273043           
       1.912956              0.0080565216            0.000459183519           
       1.915597             0.00784850219            0.000455749657           
       1.918237             0.00787410528            0.000471445594           
       1.920878             0.00763692411            0.000462390298           
       1.923518             0.00697265019            0.000442010559           
       1.926158             0.00775528068            0.000460108193           
       1.928799             0.00777782098            0.000455442733           
       1.931439             0.00799120614            0.000473756571           
       1.934079              0.0080247426            0.000494914809           
       1.936720             0.00814384261            0.000461943244           
       1.939360             0.00747839623            0.000472265073           
       1.942001             0.00793095587            0.000445760011           
       1.944641             0.00804747846            0.000457867391           
       1.947281             0.00768934897             0.00044343801           
       1.949922             0.00779919265            0.000461292174           
       1.952562             0.00721909959            0.000457716964           
       1.955202             0.00775022635            0.000473677737           
       1.957843             0.00794083927            0.000467033321           
       1.960483             0.00799533106            0.000489955197           
       1.963124              0.0081202007            0.000483636564           
       1.965764             0.00865525058            0.000470869068           
       1.968404             0.00767904573            0.000439330217           
       1.971045             0.00781895255            0.000451982236           
       1.973685             0.00762202788            0.000468087372           
       1.976326             0.00766371528            0.000462914854           
       1.978966             0.00867999427            0.000496976475           
       1.981606             0.00770839375            0.000478104015           
       1.984247             0.00757408548             0.00047080476           
       1.986887             0.00745031014            0.000461348558           
       1.989527             0.00883588656            0.000497009404           
       1.992168             0.00727046642            0.000467782809           
       1.994808             0.00730532982            0.000466893035           
       1.997449             0.00729223172            0.000456894527           
       2.000089              0.0075251195            0.000462292842           
       2.002729             0.00770003878            0.000467915271           
       2.005370             0.00759058644            0.000459579059           
       2.008010              0.0076586627            0.000481782637           
       2.010650             0.00697763254            0.000463294691           
       2.013291             0.00781248975            0.000470346516           
       2.015931             0.00795251751            0.000471188448           
       2.018572             0.00682220708            0.000466792592           
       2.021212             0.00769266326            0.000486772539           
       2.023852             0.00791657406            0.000467364103           
       2.026493              0.0080056392            0.000490983766           
       2.029133             0.00718354043            0.000455731976           
       2.031774             0.00764250731            0.000493323052           
       2.034414              0.0080465781            0.000465771052           
       2.037054             0.00719836183            0.000451704544           
       2.039695             0.00725088978            0.000449925688           
       2.042335             0.00783677215            0.000486094881           
       2.044975             0.00832940199            0.000495062864           
       2.047616             0.00740346171            0.000465576122           
       2.050256             0.00630994448            0.000433887059           
       2.052897             0.00776143217            0.000490081631           
       2.055537             0.00837200411            0.000491922835           
       2.058177             0.00745510112            0.000454581054           
       2.060818             0.00637540219            0.000440376868           
       2.063458             0.00775449209            0.000506123498           
       2.066098             0.00778700694            0.000478443925           
       2.068739             0.00691289935            0.000457798768           
       2.071379             0.00675891847             0.00046447727           
       2.074020             0.00849489444            0.000509404005           
       2.076660             0.00684866314            0.000461087094           
       2.079300              0.0072592003            0.000486336951           
       2.081941             0.00704392495            0.000438644435           
       2.084581             0.00754029462            0.000479028856           
       2.087222             0.00732974393            0.000455481889           
       2.089862             0.00832098665            0.000528570415           
       2.092502             0.00602944966            0.000436152267           
       2.095143             0.00709456936            0.000488557048           
       2.097783             0.00794198809            0.000500458127           
       2.100423             0.00757686562            0.000471021933           
       2.103064             0.00885195701            0.000528275342           
       2.105704              0.0086421465            0.000519391677           
       2.108345             0.00743683715             0.00046289324           
       2.110985             0.00786316898             0.00050837734           
       2.113625             0.00773650969            0.000508666722           
       2.116266             0.00812617196             0.00052871558           
       2.118906              0.0080698705            0.000491023402           
       2.121546              0.0075986739            0.000467375143           
       2.124187             0.00722062277            0.000478239644           
       2.126827             0.00832857611            0.000519354413           
       2.129468             0.00792028343            0.000507757945           
       2.132108             0.00703316693            0.000465522527           
       2.134748             0.00759594272            0.000481912103           
       2.137389             0.00711796241            0.000486678951           
       2.140029             0.00705059262            0.000433637878           
       2.142670             0.00679061737            0.000454813759           
       2.145310             0.00775796713            0.000473159593           
       2.147950             0.00792880203            0.000492343086           
       2.150591             0.00659454061            0.000444472601           
       2.153231             0.00738077359            0.000484021243           
       2.155871             0.00801464873            0.000487262233           
       2.158512             0.00791344444            0.000505203352           
       2.161152             0.00765906762            0.000481441845           
       2.163793             0.00786180564            0.000485576288           
       2.166433             0.00699392333            0.000470308302           
       2.169073             0.00756401524            0.000478211794           
       2.171714             0.00765292713            0.000477418365           
       2.174354             0.00781422371            0.000504087759           
       2.176995             0.00755278149            0.000493498037           
       2.179635             0.00671472484            0.000491704323           
       2.182275             0.00717076511            0.000479752949           
       2.184916             0.00755305281            0.000475570487           
       2.187556             0.00754189299            0.000470455975           
       2.190196             0.00779194676            0.000499703609           
       2.192837             0.00773667747            0.000495219087           
       2.195477             0.00707928025            0.000451628435           
       2.198118             0.00861115088            0.000510864005           
       2.200758             0.00855910424            0.000522529157           
       2.203398             0.00700509525            0.000475743517           
       2.206039             0.00737749495            0.000462063952           
       2.208679             0.00806285982            0.000494292026           
       2.211319             0.00677158445            0.000455597305           
       2.213960             0.00706034476            0.000471442938           
       2.216600             0.00654639593            0.000469611202           
       2.219241             0.00718907152            0.000470336666           
       2.221881             0.00769744352            0.000487683103           
       2.224521             0.00747355126            0.000486426692           
       2.227162             0.00745104532            0.000475969002           
       2.229802             0.00792580803            0.000506265733           
       2.232443             0.00762153275            0.000488622245           
       2.235083             0.00757430391            0.000501474248           
       2.237723             0.00731018285            0.000472772363           
       2.240364             0.00726242757            0.000482834585           
       2.243004              0.0077059842            0.000493390577           
       2.245644               0.006904208            0.000471692702           
       2.248285             0.00750204269            0.000481840674           
       2.250925             0.00686239381            0.000463640852           
       2.253566             0.00762452819            0.000522467366           
       2.256206             0.00734085366            0.000502405315           
       2.258846             0.00674304874             0.00045805319           
       2.261487             0.00697288989            0.000488894323           
       2.264127             0.00797126657            0.000504838353           
       2.266767             0.00721643041            0.000493138862           
       2.269408             0.00738405068            0.000500875932           
       2.272048             0.00637512523            0.000462622833           
       2.274689             0.00720721367            0.000498369478           
       2.277329             0.00743356417            0.000476558627           
       2.279969             0.00727354916            0.000501779921           
       2.282610             0.00702680293            0.000479478246           
       2.285250              0.0077061711            0.000480599092           
       2.287891             0.00759124035            0.000511417922           
       2.290531             0.00743816035            0.000513040363           
       2.293171             0.00763155807            0.000506202921           
       2.295812             0.00673857808            0.000473754053           
       2.298452             0.00780190553            0.000533077661           
       2.301092             0.00670848972             0.00045927803           
       2.303733             0.00679880143            0.000481015049           
       2.306373             0.00688180623            0.000491563804           
       2.309014             0.00660896594            0.000472323552           
       2.311654             0.00721428205            0.000514969619           
       2.314294             0.00681629892            0.000461171195           
       2.316935             0.00758612754            0.000488526905           
       2.319575             0.00624737752            0.000464507414           
       2.322215             0.00689995266            0.000508750566           
       2.324856             0.00717102211            0.000476842688           
       2.327496             0.00745944394            0.000517129558           
       2.330137             0.00672401311            0.000469827462           
       2.332777             0.00786238585            0.000523847495           
       2.335417             0.00613347089            0.000448868906           
       2.338058             0.00697121475            0.000492837707           
       2.340698             0.00644244621            0.000470055084           
       2.343339             0.00658942246            0.000485848031           
       2.345979             0.00750985755            0.000490704759           
       2.348619             0.00744319879            0.000506379348           
       2.351260              0.0073082998            0.000498846176           
       2.353900             0.00721590218            0.000494112511           
       2.356540             0.00739069038             0.00049935121           
       2.359181             0.00718229718             0.00048535959           
       2.361821             0.00719485398             0.00046925409           
       2.364462             0.00619418389            0.000455374653           
       2.367102              0.0066004191            0.000483072148           
       2.369742             0.00638731946            0.000500191335           
       2.372383             0.00719837943            0.000480818849           
       2.375023             0.00770850247            0.000523047793           
       2.377663             0.00720430293            0.000483478249           
       2.380304               0.007726308            0.000509036117           
       2.382944              0.0069024411            0.000458262686           
       2.385585             0.00639685228            0.000470504933           
       2.388225             0.00720305261            0.000496928349           
       2.390865             0.00742962045            0.000499498915           
       2.393506             0.00753210292              0.0004934437           
       2.396146             0.00752745728            0.000533369031           
       2.398787             0.00706731226            0.000476280387           
       2.401427             0.00691507625            0.000454742034           
       2.404067             0.00647149479            0.000449727718           
       2.406708             0.00693035379            0.000459817694           
       2.409348             0.00644620154            0.000470381999           
       2.411988             0.00747144574            0.000496168407           
       2.414629             0.00680572741            0.000488296163           
       2.417269             0.00782282534            0.000529625623           
       2.419910             0.00670151508            0.000491337897           
       2.422550             0.00706064306            0.000482513058           
       2.425190              0.0072992128            0.000517140548           
       2.427831             0.00761479518            0.000525232369           
       2.430471             0.00740758661            0.000493530262           
       2.433112             0.00729916951            0.000477050991           
       2.435752             0.00746947145             0.00051072465           
       2.438392             0.00688923751            0.000473420142           
       2.441033             0.00748647951            0.000523026239           
       2.443673             0.00782697121            0.000535198975           
       2.446313             0.00748266398            0.000523756314           
       2.448954             0.00717418675            0.000488301661           
       2.451594             0.00690579323            0.000515123669           
       2.454235              0.0076759245             0.00050955504           
       2.456875              0.0070185378            0.000509834884           
       2.459515             0.00689276208            0.000518325459           
       2.462156             0.00767583121            0.000516421919           
       2.464796              0.0080313152            0.000521429646           
       2.467436             0.00806947987            0.000540499157           
       2.470077              0.0074186338            0.000491201174           
       2.472717             0.00662455844            0.000466179429           
       2.475358             0.00780703207            0.000511355097           
       2.477998              0.0077209273            0.000499954333           
       2.480638             0.00797952026            0.000517289002           
       2.483279             0.00626283631            0.000478975083           
       2.485919             0.00693008038            0.000485569377           
       2.488560             0.00638894543            0.000464923564           
       2.491200             0.00695608703            0.000499545731           
       2.493840             0.00786420653            0.000562030162           
       2.496481             0.00703127212             0.00052274064           
       2.499121             0.00686924668            0.000502556384           
       2.501761             0.00687450563            0.000509409891           
       2.504402             0.00696568105            0.000505285232           
       2.507042             0.00686077442            0.000497751052           
       2.509683             0.00745754108            0.000511016188           
       2.512323             0.00714259921             0.00052523906           
       2.514963             0.00658808296            0.000498206636           
       2.517604             0.00673716974            0.000522782691           
       2.520244              0.0072819552            0.000509540348           
       2.522884             0.00839322721             0.00055486317           
       2.525525             0.00990161919            0.000609503329           
       2.528165             0.00774159275            0.000530536378           
       2.530806             0.00827259647             0.00055798891           
       2.533446             0.00684081837            0.000496579278           
       2.536086             0.00785723038             0.00052742985           
       2.538727             0.00690694192            0.000474404759           
       2.541367             0.00692151791            0.000479583113           
       2.544008             0.00636751837            0.000475057298           
       2.546648             0.00676539371            0.000498073665           
       2.549288             0.00744370784            0.000533091633           
       2.551929             0.00631921697            0.000483348471           
       2.554569             0.00706752125            0.000492466018           
       2.557209             0.00768955409            0.000518398271           
       2.559850             0.00646540382             0.00047687348           
       2.562490             0.00725349271            0.000522049851           
       2.565131             0.00710936417            0.000535880084           
       2.567771             0.00773430459            0.000538899203           
       2.570411             0.00701001333            0.000507494936           
       2.573052             0.00704417134            0.000515136624           
       2.575692             0.00662607818            0.000496589905           
       2.578332             0.00683191383            0.000506329248           
       2.580973             0.00700493418            0.000507822455           
       2.583613             0.00758174247            0.000515737039           
       2.586254              0.0067501538            0.000485955673           
       2.588894             0.00643511072            0.000492724746           
       2.591534              0.0067925069            0.000524035233           
       2.594175             0.00656688598             0.00050553531           
       2.596815             0.00682251602            0.000518319117           
       2.599456             0.00673062456            0.000488198287           
       2.602096             0.00641972741             0.00048041822           
       2.604736             0.00678041228            0.000505437081           
       2.607377             0.00687947016            0.000495698901           
       2.610017             0.00810576418            0.000528652342           
       2.612657             0.00718049783            0.000529236174           
       2.615298             0.00736131179            0.000523166141           
       2.617938             0.00757558295            0.000567740779           
       2.620579             0.00641239447            0.000501439831           
       2.623219             0.00715825204             0.00052904509           
       2.625859             0.00739493193            0.000522814782           
       2.628500             0.00699859839            0.000505277902           
       2.631140             0.00718586304            0.000519882195           
       2.633780             0.00762654341            0.000535120569           
       2.636421             0.00641652095            0.000502907953           
       2.639061             0.00690892968            0.000491259976           
       2.641702             0.00668491389            0.000494417092           
       2.644342             0.00649253878             0.00048932728           
       2.646982             0.00665281529            0.000487925215           
       2.649623             0.00738988891            0.000538907375           
       2.652263              0.0075078518            0.000537740659           
       2.654904             0.00787800178            0.000551391112           
       2.657544             0.00717998026            0.000495811309           
       2.660184             0.00771382435            0.000543869697           
       2.662825             0.00677983601            0.000521711062           
       2.665465             0.00777515642            0.000540350378           
       2.668105             0.00704827903            0.000542274076           
       2.670746             0.00740662128            0.000513522049           
       2.673386             0.00917108689            0.000588899535           
       2.676027             0.00867332463            0.000563503935           
       2.678667              0.0109584314             0.00061804047           
       2.681307              0.0116747953            0.000626794324           
       2.683948              0.0154366546             0.00074052419           
       2.686588               0.011358862            0.000624694262           
       2.689229              0.0101171451            0.000576095089           
       2.691869             0.00955593454            0.000591746772           
       2.694509             0.00858119636            0.000561063231           
       2.697150             0.00782113072            0.000526949361           
       2.699790             0.00803120032            0.000559800479           
       2.702430             0.00805353477            0.000535845497           
       2.705071             0.00637947431            0.000492799128           
       2.707711             0.00667310031            0.000489181906           
       2.710352             0.00731390093            0.000541130537           
       2.712992             0.00680481956            0.000531609327           
       2.715632             0.00671896786            0.000490106752           
       2.718273             0.00760400234            0.000540347861           
       2.720913             0.00709346233            0.000520408017           
       2.723553             0.00739794498            0.000535025603           
       2.726194             0.00680321711            0.000536326725           
       2.728834             0.00686225787            0.000538901634           
       2.731475             0.00727112183            0.000511961302           
       2.734115             0.00696067914            0.000516458966           
       2.736755             0.00716513925            0.000528302046           
       2.739396             0.00768532971            0.000543973413           
       2.742036             0.00721186231            0.000551487554           
       2.744677              0.0068604231            0.000521894346           
       2.747317             0.00739206529            0.000537875925           
       2.749957             0.00679160285            0.000519185446           
       2.752598             0.00750045242            0.000551528439           
       2.755238             0.00670682389            0.000530948873           
       2.757878             0.00755881239            0.000558736698           
       2.760519             0.00800015634            0.000568722144           
       2.763159             0.00941757848            0.000610883907           
       2.765800             0.00770837972            0.000526691613           
       2.768440             0.00784997528            0.000535422563           
       2.771080             0.00920175574            0.000584531512           
       2.773721             0.00663375738            0.000509112151           
       2.776361             0.00895976719            0.000599836104           
       2.779001             0.00690954188            0.000545508425           
       2.781642             0.00746705929            0.000562910367           
       2.784282             0.00665284324            0.000540071829           
       2.786923             0.00659991438            0.000542655444           
       2.789563             0.00719571038            0.000545721551           
       2.792203             0.00702260518            0.000515011119           
       2.794844             0.00680522723            0.000555639199           
       2.797484             0.00697455312            0.000530871598           
       2.800125             0.00687855599            0.000554356774           
       2.802765             0.00658663991            0.000533133945           
       2.805405             0.00706128813            0.000553877568           
       2.808046              0.0065603566            0.000543255201           
       2.810686             0.00679972484            0.000508213727           
       2.813326             0.00708460909            0.000538838775           
       2.815967             0.00657456111            0.000533838918           
       2.818607              0.0067363286            0.000515657853           
       2.821248             0.00752361944            0.000533644629           
       2.823888             0.00732830831            0.000546699349           
       2.826528             0.00633250743            0.000492166458           
       2.829169             0.00739510737            0.000557092348           
       2.831809             0.00712275712             0.00055417452           
       2.834449             0.00728398218            0.000563952987           
       2.837090               0.007744246            0.000561634595           
       2.839730             0.00617454395            0.000499046616           
       2.842371             0.00630664213            0.000505084578           
       2.845011              0.0064404307            0.000514482376           
       2.847651             0.00747604041            0.000554985861           
       2.850292             0.00701625372            0.000542925435           
       2.852932             0.00692080389            0.000550971183           
       2.855573             0.00598258265            0.000496911818           
       2.858213             0.00792025119            0.000600404458           
       2.860853             0.00660677318            0.000510104726           
       2.863494             0.00683917866            0.000537351178           
       2.866134             0.00656257712            0.000547099281           
       2.868774             0.00700770917            0.000555622618           
       2.871415             0.00576156778            0.000511652197           
       2.874055             0.00626595769            0.000510034595           
       2.876696             0.00688192297            0.000548974033           
       2.879336             0.00729625591            0.000544800298           
       2.881976             0.00752970909             0.00057084291           
       2.884617              0.0079764566            0.000578904519           
       2.887257             0.00674314321            0.000535018747           
       2.889897             0.00634376048            0.000508252739           
       2.892538             0.00761081368            0.000609867812           
       2.895178             0.00734503164            0.000541268969           
       2.897819             0.00659612008            0.000523240592           
       2.900459             0.00614692566            0.000495284203           
       2.903099             0.00668489155            0.000511215808           
       2.905740             0.00707424513            0.000539498711           
       2.908380             0.00653127594            0.000524271373           
       2.911021             0.00735013473            0.000565208806           
       2.913661             0.00628798896            0.000522621201           
       2.916301             0.00726583441            0.000562325593           
       2.918942             0.00696564283            0.000526649701           
       2.921582              0.0066183396            0.000537114713           
       2.924222             0.00748232609            0.000553284382           
       2.926863              0.0075118276            0.000577444572           
       2.929503             0.00787344181            0.000598184068           
       2.932144             0.00719478061            0.000548914716           
       2.934784             0.00620942063            0.000501581398           
       2.937424             0.00785895498            0.000570078111           
       2.940065             0.00708827094            0.000516449049           
       2.942705             0.00743346145             0.00052821128           
       2.945346             0.00711008895            0.000548237331           
       2.947986             0.00672577416            0.000543694611           
       2.950626              0.0069130566            0.000548108835           
       2.953267             0.00652547787            0.000523918293           
       2.955907             0.00733224977            0.000576111575           
       2.958547             0.00750072237            0.000550091732           
       2.961188             0.00724993445            0.000564223493           
       2.963828             0.00815774633            0.000585450471           
       2.966469             0.00798267853            0.000568128866           
       2.969109             0.00658507946            0.000523649361           
       2.971749             0.00690926039            0.000533037894           
       2.974390             0.00819358199            0.000570417247           
       2.977030             0.00668817974            0.000526876173           
       2.979670             0.00824251533            0.000568931605           
       2.982311             0.00918741215            0.000622551095           
       2.984951             0.00802479588            0.000553370611           
       2.987592              0.0054052342            0.000463253751           
       2.990232             0.00575313284            0.000497041588           
       2.992872             0.00709062549            0.000519765738           
       2.995513             0.00799980154            0.000540119648           
       2.998153               0.011572473            0.000660540633           
       3.000794              0.0124001538            0.000662286152           
       3.003434              0.0118255451            0.000647735889           
       3.006074              0.0464246579             0.00126541108           
       3.008715               0.115257286             0.00192468598           
       3.011355               0.183887146              0.0023443579           
       3.013995              0.0915892881             0.00165901599           
       3.016636              0.0600098261             0.00131500437           
       3.019276               0.123559523             0.00185480669           
       3.021917               0.457089974             0.00343030376           
       3.024557                1.62132057             0.00635179036           
       3.027197                  1.189362             0.00530395594           
       3.029838               0.505615932              0.0035072785           
       3.032478                0.27334528             0.00258141022           
       3.035118              0.0714429018             0.00133742231           
       3.037759              0.0956787033             0.00154573829           
       3.040399               0.128666893             0.00184901948           
       3.043040                0.50885517             0.00372216928           
       3.045680               0.413387267             0.00315647046           
       3.048320              0.0831075326             0.00144607408           
       3.050961               0.106022687             0.00166209363           
       3.053601               0.086383346             0.00144494745           
       3.056242              0.0549948503             0.00122579575           
       3.058882              0.0460563041             0.00120332007           
       3.061522              0.0360572916             0.00104461186           
       3.064163              0.0429039961             0.00112513268           
       3.066803              0.0988289027             0.00179777943           
       3.069443               0.102684424             0.00191727646           
       3.072084              0.0584340103             0.00140833259           
       3.074724              0.0385153171             0.00127689005           
       3.077365              0.0839350369             0.00195129077           
       3.080005              0.0197513821            0.000951925744           
       3.082645             0.00996340718            0.000710254483           
       3.085286              0.0113376606            0.000763633122           
       3.087926             0.00882113688            0.000668382653           
       3.090566              0.0115052094            0.000747912321           
       3.093207              0.0106819561            0.000749918547           
       3.095847              0.0105440401            0.000714130194           
       3.098488             0.00863408154            0.000716549932           
       3.101128             0.00957796185            0.000759554566           
       3.103768              0.0100724325            0.000764260041           
       3.106409             0.00846109445            0.000745484556           
       3.109049             0.00865228967            0.000723442449           
       3.111690             0.00874449777            0.000714801885           
       3.114330             0.00783797143            0.000691133695           
       3.116970             0.00867288575            0.000732594145           
       3.119611              0.0142380078            0.000999136899           
       3.122251              0.0198316032             0.00123345958           
       3.124891              0.0375035107             0.00171201898           
       3.127532              0.0224957716             0.00129715286           
       3.130172              0.0143406277             0.00105357398           
       3.132813              0.0101876523            0.000874215538           
       3.135453             0.00861688033            0.000797378113           
       3.138093             0.00629368799            0.000738388599           
       3.140734             0.00692929361             0.00071479166           
       3.143374             0.00725062798            0.000773252158           
       3.146014             0.00582347718            0.000746031129           
       3.148655             0.00742207124            0.000782926469           
       3.151295             0.00694168521              0.0008068783           
       3.153936             0.00586866343            0.000716652712           
       3.156576             0.00595755141            0.000712238117           
       3.159216             0.00609495414            0.000724008013           
       3.161857             0.00494099454            0.000649223526           
       3.164497             0.00686236396            0.000803910256           
       3.167138             0.00854792326            0.000927051625           
       3.169778             0.00561764257            0.000739143662           
       3.172418             0.00542681329            0.000719091488           
       3.175059             0.00629692858            0.000686713475           
       3.177699             0.00679445037            0.000755369599           
       3.180339             0.00509785591            0.000701030414           
       3.182980             0.00473053963            0.000698194273           
       3.185620              0.0048060773            0.000716706015           
       3.188261             0.00596634184            0.000812795978           
       3.190901             0.00626783528            0.000766191038           
       3.193541             0.00556732409            0.000758760267           
       3.196182             0.00595055048            0.000817499329           
       3.198822             0.00481097308            0.000735310616           
       3.201463             0.00606793162            0.000811572316           
       3.204103             0.00634050349            0.000824552643           
       3.206743             0.00526000252             0.00075094603           
       3.209384             0.00611129008            0.000874525848           
       3.212024             0.00585011085            0.000797719639           
       3.214664             0.00716787834             0.00100410339           
       3.217305              0.0044208566            0.000749583488           
       3.219945             0.00740678238            0.000998632941           
       3.222586             0.00598704379            0.000855174459           
       3.225226             0.00798894708             0.00109587144           
       3.227866             0.00625297556            0.000886134452           
       3.230507             0.00606510397            0.000904670531           
       3.233147               0.006875887            0.000971020652           
       3.235787             0.00529535007            0.000872059794           
       3.238428             0.00650759418             0.00104323352           
       3.241068             0.00741808671             0.00104148242           
       3.243709             0.00733087287              0.0010696728           
       3.246349             0.00479991407            0.000789025311           
       3.248989             0.00580605327             0.00102466691           
       3.251630             0.00503500468            0.000918874352           
       3.254270             0.00550057487            0.000858353145           
       3.256911             0.00669599381              0.0010333285           
       3.259551             0.00537193723            0.000996429013           
       3.262191             0.00596797638             0.00107278226           
       3.264832             0.00504027693             0.00103009969           
       3.267472             0.00516739763             0.00097845446           
       3.270112             0.00585598134             0.00115111014           
       3.272753             0.00418144205            0.000890337903           
       3.275393             0.00472515158            0.000965713204           
       3.278034             0.00451242209            0.000944255659           
       3.280674             0.00744133073             0.00131581658           
       3.283314             0.00743849092             0.00117658168           
       3.285955             0.00512959201             0.00100811102           
       3.288595             0.00491185216             0.00109749924           
       3.291235             0.00616839451             0.00126432044           
       3.293876              0.0063915644             0.00130548243           
       3.296516             0.00391760283            0.000981203368           
       3.299157             0.00598937779             0.00119797605           
       3.301797             0.00685503457             0.00146193399           
       3.304437             0.00583418058             0.00116848126           
       3.307078             0.00537268439             0.00123519712           
       3.309718              0.0033062982             0.00100015409           
       3.312359             0.00484200929             0.00121063122           
       3.314999             0.00351376732             0.00101540052           
       3.317639             0.00646334388             0.00131706949           
       3.320280             0.00545577857             0.00128654801           
       3.322920             0.00628444478              0.0014040412           
       3.325560             0.00655722916             0.00143516398           
       3.328201             0.00684918636             0.00132099957           
       3.330841             0.00222115795             0.00091555786           
       3.333482             0.00436142314             0.00121268355           
       3.336122              0.0043581302              0.0012127829           
       3.338762             0.00353883208             0.00126241794           
       3.341403             0.00535262098             0.00148356064           
       3.344043              0.0026429232             0.00100085893           
       3.346683              0.0066963848              0.0016264543           
       3.349324             0.00148906224             0.00086232606           
       3.351964             0.00723412642             0.00200989417           
       3.354605             0.00731263981              0.0023110612           
       3.357245             0.00708260365             0.00205176956           
       3.359885             0.00382440072             0.00120670019           
       3.362526             0.00653065591             0.00197194283           
       3.365166             0.00845542004             0.00211633466           
       3.367807              0.0052119109             0.00212645524           
       3.370447             0.00475342459             0.00168455301           
       3.373087             0.00817329334             0.00236214839           
       3.375728             0.00260222931             0.00150425216           
       3.378368              0.0037491554             0.00267968955           
       3.381008             0.00318179855             0.00184048481           
       3.383649             0.00475258289             0.00180445147           
       3.386289             0.00482794944             0.00215249551           
       3.388930             0.00485738081             0.00341511466           
       3.391570             0.00597742466             0.00267993189           
       3.394210             0.00192533095             0.00192481664           
       3.396851             0.00474673064             0.00338070877           
       3.399491             0.00698864467                0.00410326           
       3.402131             0.00469139308             0.00475641738           
       3.404772           -2.57753201e-05                         0           
       3.407412                       nan                       nan           
       3.410053             0.00902894322             0.00934547677           
       3.412693                       nan                       nan           
       3.415333             0.00877166026             0.00922016028           
