################################################################################
# EDF_DataBlockID                     0.Image.Psd
# EDF_BinarySize                      4366944
# EDF_HeaderSize                      2560
# ByteOrder                           LowByteFirst
# DataType                            FloatValue
# Dim_1                               1028
# Dim_2                               1062
# Image                               0
# HeaderID                            EH:000000:000000:000000
# Size                                4366944
# Center_1                            607.5200
# Center_2                            651.5500
# Comment                             Xenocs_Cell_Window - 20251028_20perc_iodine_1.23mg
# DDummy                              0.6
# Date                                2025-10-31T09:21:08
# Delta                               0
# Dummy                               -1.5
# ExposureTime                        360
# Gamma                               0
# Intensity1                          8.48953e-10
# PSize_1                             7.5e-05
# PSize_2                             7.5e-05
# Pressure                            0.032836
# SampleDistance                      0.450002
# SampleEnvKind                       large
# SampleEnvPN                         ElectroChemical cell
# SampleEnvSN                         1141
# Thickness                           0
# Wavelength                          1.541891e-10
# Wavelength                          1.54189e-10
# aux                                 0
# aux_dial                            0.002375
# beamx                               588.434
# beamx_dial                          588.434
# beamz                               657.808
# beamz_dial                          657.808
# det0x                               0
# det0x_dial                          6.36945
# det0xvd                             0
# det0xvd_dial                        0
# det0y                               450.002
# det0y_dial                          481.635
# det0z                               0
# det0z_dial                          1.23302
# det0zvd                             0
# det0zvd_dial                        0
# mag                                 1.818
# mag_dial                            1.818
# om                                  0.2499
# om_dial                             -0.610199
# phi                                 -0.0120535
# phi_dial                            0
# ry                                  0.599993
# ry_dial                             0.599993
# s1bot                               0.8
# s1bot_dial                          -1.66094
# s1hl                                0.8
# s1hl_dial                           -0.608437
# s1hr                                0.8
# s1hr_dial                           0.970938
# s1top                               0.8
# s1top_dial                          -0.461562
# s2bot                               0.45
# s2bot_dial                          1.36109
# s2hl                                0.45
# s2hl_dial                           -0.83375
# s2hr                                0.45
# s2hr_dial                           -0.118594
# s2top                               0.45
# s2top_dial                          1.44734
# w2theta                             32
# w2theta_dial                        32
# waxsch                              19.2605
# waxsch_dial                         -32.7355
# waxsh                               137.085
# waxsh_dial                          -43.5338
# waxsth                              26.0607
# waxsth_dial                         -19.4086
# waxsz                               67.0407
# waxsz_dial                          -23.7954
# wind                                65.9854
# wind_dial                           66.0041
# wpsi                                124
# wpsi_dial                           124
# wstod                               115
# wstod_dial                          115
# x                                   0
# x_dial                              1.00969
# z                                   0
# z_dial                              13.3172
# CountCutoff                         15302352
# DetectorModel                       Dectris EIGER2 Si 1M, S/N E-02-0362
# ThresholdSetting                    4023.88989258
# Saturation                          0
# FlatField                           Corrected
# BackgroundReductionExtra            0.02
# BackgroundCorrectionConstant        0.0026712
# Detector                            0
# Monitor                             0
# Pil_Roi0                            0
# SumForIntensity1                    3.05623e+08
# TransmittedFlux                     848953
# det                                 0
# mon                                 0
# pilai0                              3.05623e+08
# pilai1                              781222
# pilct0                              5.29309e+08
# pilct1                              781222
# pilroi0                             0
# pilroi1                             0
# sec                                 1
# title                               20251028_20perc_iodine_1.23mg_0_00609.edf
# usaxs0                              0
# Operation                           Azimuthal average I(q)
# Error_model                         ErrorModel.poisson
# Geometrical_correction              True
# Transmission_correction             True
# Thickness_correction                False
# Binning mode                        Uniform
# Binning factor                      1.0
# Psi                                 0.0
# Omega                               0.2499
# MaskInvalidPixels                   True
# DetectorEdge                        3
# MaskFiles                           ['20251028_20perc_iodine_1.23mg_0_00012_mask.edf']
################################################################################
    q(A⁻¹)                Intensity(a.u.)            Sigma_I(a.u.)            
       0.000340                372165.803                120.883692           
       0.001019                359711.737                72.7767132           
       0.001698                350057.665                50.7656518           
       0.002377                330975.576                44.1512687           
       0.003056                307878.204                35.9890796           
       0.003735                253289.884                28.7884343           
       0.004415                204972.169                25.8974304           
       0.005094                153113.958                19.3841772           
       0.005773                101232.534                14.5924021           
       0.006452                59066.8097                10.6799141           
       0.007131                32411.2154                7.66393966           
       0.007810                16199.0802                5.37693143           
       0.008490                8110.80671                3.37251498           
       0.009169                3896.21939                2.31011831           
       0.009848                1204.34804                1.24177839           
       0.010527                468.404182               0.774423878           
       0.011206                118.159311               0.371223822           
       0.011885                54.7811729               0.234847312           
       0.012564                25.0231765               0.162956962           
       0.013244                17.0171145               0.125633261           
       0.013923                12.4221944               0.109071302           
       0.014602                9.34618118              0.0877431775           
       0.015281                7.41533721              0.0795592328           
       0.015960                6.05391271              0.0713705658           
       0.016639                4.93884785              0.0608735328           
       0.017319                4.10989682              0.0546668336           
       0.017998                3.43222388              0.0477933671           
       0.018677                  2.845782              0.0450739674           
       0.019356                2.52794616              0.0419766704           
       0.020035                2.16339549              0.0364321915           
       0.020714                 1.8623095              0.0341598142           
       0.021394                1.55210305               0.029506636           
       0.022073                1.42410348               0.029406244           
       0.022752                1.24634696              0.0263161157           
       0.023431                1.11453275              0.0241560556           
       0.024110               0.991671555              0.0237558317           
       0.024789               0.878770696                0.02076846           
       0.025469               0.799562837              0.0204147883           
       0.026148               0.740888867              0.0184641811           
       0.026827               0.634901585              0.0173660714           
       0.027506                0.65246547              0.0178585079           
       0.028185               0.533923281              0.0154060799           
       0.028864               0.544309296              0.0154679194           
       0.029544               0.453659748              0.0136936717           
       0.030223               0.426539177              0.0134684495           
       0.030902               0.404879681              0.0132421151           
       0.031581               0.381915377              0.0122258754           
       0.032260               0.339935766              0.0117309297           
       0.032939               0.316526319               0.010914758           
       0.033619                0.30204658              0.0108188829           
       0.034298               0.283300646              0.0101965775           
       0.034977               0.264040865             0.00965042484           
       0.035656               0.249150722             0.00962246805           
       0.036335               0.214902667              0.0086674616           
       0.037014               0.207677146             0.00854592137           
       0.037693                0.20472212             0.00816236572           
       0.038373               0.180689104               0.007743562           
       0.039052               0.172131118             0.00759011511           
       0.039731                0.15819192             0.00710673298           
       0.040410               0.150837118             0.00689303395           
       0.041089               0.140373209             0.00654548242           
       0.041768               0.135748639             0.00647038857           
       0.042448               0.133419924             0.00636487531           
       0.043127               0.132566206             0.00619463561           
       0.043806               0.127792205             0.00612742094           
       0.044485               0.109600414             0.00555797843           
       0.045164               0.110679429             0.00569535116           
       0.045843               0.112362461             0.00550390841           
       0.046523                0.10308637             0.00529003199           
       0.047202               0.104901148             0.00537368273           
       0.047881               0.105809799              0.0052928304           
       0.048560              0.0992043885             0.00517167273           
       0.049239              0.0966661572             0.00490180109           
       0.049918               0.091206644             0.00485444711           
       0.050598              0.0851454114              0.0046200002           
       0.051277               0.091821694             0.00478248626           
       0.051956              0.0752400747             0.00430199475           
       0.052635              0.0829153442             0.00442025053           
       0.053314              0.0743078022             0.00430687272           
       0.053993              0.0833384261             0.00443598032           
       0.054673              0.0683439575             0.00392765662           
       0.055352              0.0774930563             0.00424372859           
       0.056031              0.0718405214             0.00400017117           
       0.056710              0.0628164025             0.00383216697           
       0.057389              0.0649293067              0.0037570365           
       0.058068              0.0702811945             0.00394910367           
       0.058748              0.0705039255             0.00400469596           
       0.059427              0.0685529333             0.00388203966           
       0.060106              0.0626356261             0.00374583608           
       0.060785              0.0603945523             0.00356800566           
       0.061464              0.0633595326             0.00374262722           
       0.062143              0.0556306786             0.00347131123           
       0.062822              0.0569662787             0.00347151314           
       0.063502              0.0596010518             0.00354454291           
       0.064181              0.0598621725             0.00351478752           
       0.064860              0.0491278455             0.00323259712           
       0.065539              0.0478275098             0.00315834068           
       0.066218              0.0528131193              0.0032478127           
       0.066897              0.0461189951             0.00305843823           
       0.067577              0.0469800772             0.00311651415           
       0.068256               0.053605808             0.00341080967           
       0.068935              0.0464073696             0.00312223326           
       0.069614              0.0387885129             0.00288287209           
       0.070293              0.0443791525             0.00311207198           
       0.070972              0.0413241376             0.00298105845           
       0.071652              0.0357211409              0.0027766882           
       0.072331              0.0431543724             0.00299755321           
       0.073010              0.0425493845             0.00304447679           
       0.073689              0.0356013649             0.00276953119           
       0.074368              0.0434275711             0.00305326955           
       0.075047              0.0413954813             0.00294893763           
       0.075727              0.0452359607             0.00306365828           
       0.076406              0.0389230943             0.00289855778           
       0.077085              0.0347680609             0.00268828521           
       0.077764              0.0345311568              0.0026697231           
       0.078443              0.0359619869             0.00274134116           
       0.079122              0.0385484535              0.0028109456           
       0.079802              0.0333430237             0.00264200281           
       0.080481              0.0377547729             0.00271652937           
       0.081160              0.0379439437             0.00277920928           
       0.081839              0.0309877057              0.0024713576           
       0.082518              0.0377601829             0.00273038274           
       0.083197              0.0392479801             0.00274040126           
       0.083876               0.031489338             0.00241384937           
       0.084556              0.0314940612             0.00248116728           
       0.085235              0.0308475544             0.00240812607           
       0.085914              0.0308918938             0.00243326605           
       0.086593              0.0331413744             0.00250408119           
       0.087272              0.0359233519             0.00257021177           
       0.087951              0.0327670976              0.0025101552           
       0.088631              0.0299704944             0.00231888099           
       0.089310              0.0316060876             0.00243182142           
       0.089989              0.0305495607             0.00236287969           
       0.090668              0.0330396694             0.00248441725           
       0.091347              0.0292599377             0.00235108404           
       0.092026              0.0258826098             0.00211358587           
       0.092706              0.0261742529             0.00220260849           
       0.093385              0.0301798122             0.00232882863           
       0.094064              0.0316853149             0.00241397995           
       0.094743              0.0241354852             0.00207473891           
       0.095422              0.0278738055              0.0022047711           
       0.096101              0.0262050033             0.00218178044           
       0.096781              0.0312382551             0.00234800482           
       0.097460              0.0272841093             0.00213451373           
       0.098139              0.0277499909              0.0021360965           
       0.098818              0.0287348328             0.00214690243           
       0.099497              0.0312001338             0.00224169724           
       0.100176              0.0281530274             0.00207353243           
       0.100856              0.0261567389              0.0019973846           
       0.101535              0.0248495983             0.00194308221           
       0.102214              0.0277063947              0.0020517488           
       0.102893              0.0239735693             0.00188679128           
       0.103572               0.024879358             0.00189370993           
       0.104251              0.0276464604             0.00200361865           
       0.104931              0.0242135416              0.0018580291           
       0.105610              0.0261663671             0.00193974075           
       0.106289              0.0220042505             0.00174919042           
       0.106968               0.028145282             0.00198414581           
       0.107647              0.0251139112             0.00187537679           
       0.108326              0.0263675344             0.00189590675           
       0.109005              0.0229222773             0.00175658836           
       0.109685              0.0250075674             0.00181416943           
       0.110364              0.0221223961             0.00172569124           
       0.111043              0.0252276544             0.00183552403           
       0.111722              0.0224323896             0.00170969415           
       0.112401              0.0242384944              0.0017821305           
       0.113080              0.0252214572             0.00179707515           
       0.113760              0.0230410161             0.00174632851           
       0.114439              0.0226451566             0.00170655387           
       0.115118              0.0233368764             0.00171935916           
       0.115797              0.0243086426             0.00177104836           
       0.116476              0.0227809811             0.00168883421           
       0.117155              0.0235964074             0.00173265642           
       0.117835              0.0222390103             0.00164864291           
       0.118514              0.0200595286             0.00158562775           
       0.119193              0.0210667729             0.00162496127           
       0.119872              0.0227246001             0.00166658109           
       0.120551               0.023070447             0.00166802969           
       0.121230              0.0197369888             0.00152729749           
       0.121910              0.0202579387             0.00156227687           
       0.122589              0.0195747465             0.00153728978           
       0.123268              0.0190189424             0.00148595118           
       0.123947               0.020222829             0.00154216916           
       0.124626              0.0237725047             0.00165160333           
       0.125305              0.0222338017             0.00160509649           
       0.125985              0.0189231351             0.00146929089           
       0.126664               0.020150339             0.00150174352           
       0.127343              0.0233602894             0.00163568166           
       0.128022              0.0233421222             0.00162250471           
       0.128701              0.0218540902             0.00156175866           
       0.129380              0.0220826313             0.00155024124           
       0.130059              0.0171265454             0.00136840979           
       0.130739              0.0215908904             0.00154724809           
       0.131418               0.021836133             0.00155165414           
       0.132097              0.0199424428             0.00146382942           
       0.132776              0.0212578926             0.00150451408           
       0.133455              0.0209609691             0.00150557672           
       0.134134              0.0204935458             0.00148395428           
       0.134814              0.0196659541             0.00143870388           
       0.135493              0.0179138874               0.001378678           
       0.136172              0.0194021283             0.00142397265           
       0.136851              0.0205732313             0.00147484613           
       0.137530              0.0224368957             0.00150360644           
       0.138209              0.0202907523             0.00144667512           
       0.138889              0.0205869009             0.00146361751           
       0.139568              0.0185752702             0.00138967083           
       0.140247              0.0201853141             0.00144674708           
       0.140926              0.0181476725             0.00133255945           
       0.141605              0.0219918389             0.00150418982           
       0.142284              0.0206528242             0.00143352327           
       0.142964              0.0144805385             0.00120493964           
       0.143643                0.01705122             0.00130587526           
       0.144322              0.0180652635             0.00131601834           
       0.145001              0.0174251687             0.00131902317           
       0.145680              0.0197532489             0.00137114999           
       0.146359              0.0175793472             0.00129823348           
       0.147039              0.0170112998             0.00128760021           
       0.147718              0.0197331361             0.00136390513           
       0.148397               0.019762909             0.00138614384           
       0.149076              0.0188120125             0.00131043219           
       0.149755              0.0196326926              0.0013593816           
       0.150434              0.0176425874             0.00128916888           
       0.151114              0.0176412225             0.00128198877           
       0.151793               0.021833822             0.00142622744           
       0.152472              0.0188953369             0.00130335053           
       0.153151              0.0184678322             0.00130097935           
       0.153830              0.0182735224             0.00128468842           
       0.154509               0.019109429             0.00130826201           
       0.155188              0.0187161121             0.00129424991           
       0.155868              0.0181082008             0.00126399817           
       0.156547              0.0186124146             0.00128970665           
       0.157226              0.0175364176             0.00122129588           
       0.157905              0.0187729586             0.00127423482           
       0.158584              0.0193046706             0.00128980659           
       0.159263              0.0178211482             0.00124381638           
       0.159943              0.0159903101              0.0011790729           
       0.160622              0.0184122174             0.00124080081           
       0.161301              0.0190732899             0.00127977059           
       0.161980                0.01675717              0.0011791604           
       0.162659              0.0179550653             0.00123410811           
       0.163338              0.0132789111             0.00105265651           
       0.164018              0.0176566928             0.00120746543           
       0.164697              0.0147415917             0.00111746313           
       0.165376              0.0177446187             0.00119922413           
       0.166055              0.0184814494             0.00123194073           
       0.166734              0.0173310496             0.00118763893           
       0.167413              0.0164559715             0.00115807775           
       0.168093              0.0147766042             0.00110777637           
       0.168772               0.018858817             0.00121487523           
       0.169451              0.0165463987             0.00115889442           
       0.170130              0.0180818939             0.00119556948           
       0.170809              0.0164334789             0.00115337305           
       0.171488              0.0179546436             0.00119458267           
       0.172168              0.0176002183             0.00117137114           
       0.172847              0.0171146118             0.00117027184           
       0.173526              0.0183783932             0.00118957578           
       0.174205              0.0169185882             0.00114661063           
       0.174884              0.0170520355             0.00114512499           
       0.175563               0.017499823             0.00116501612           
       0.176243              0.0158803449             0.00112090744           
       0.176922              0.0165585703             0.00111476528           
       0.177601               0.015634165             0.00109510592           
       0.178280              0.0161076462             0.00109915685           
       0.178959              0.0150802982             0.00107208148           
       0.179638              0.0159599293              0.0010997295           
       0.180317              0.0157355171             0.00108401552           
       0.180997              0.0171867023             0.00113904833           
       0.181676              0.0176290616             0.00114129587           
       0.182355              0.0159108216             0.00109076322           
       0.183034              0.0177050389              0.0011321553           
       0.183713              0.0135407579             0.00100215787           
       0.184392              0.0161153078             0.00109295571           
       0.185072              0.0164752577             0.00109250003           
       0.185751              0.0167951007             0.00110612235           
       0.186430                0.01690954             0.00110211074           
       0.187109              0.0176422483             0.00113827239           
       0.187788              0.0164711441             0.00109713255           
       0.188467              0.0170973098             0.00110456419           
       0.189147              0.0168609354             0.00110801043           
       0.189826              0.0167502884             0.00108483953           
       0.190505              0.0149254038             0.00104089825           
       0.191184              0.0156653158             0.00105101784           
       0.191863              0.0161789474             0.00107035934           
       0.192542              0.0177104806             0.00113043594           
       0.193222              0.0157328304             0.00104157581           
       0.193901              0.0183349459             0.00113948787           
       0.194580              0.0152066321              0.0010195823           
       0.195259              0.0156302632             0.00104555838           
       0.195938               0.016112826             0.00106411001           
       0.196617              0.0135576566            0.000962472055           
       0.197297              0.0169061012             0.00107916342           
       0.197976               0.016257669             0.00104201008           
       0.198655              0.0172930343             0.00108641658           
       0.199334              0.0145611889            0.000988125938           
       0.200013              0.0161478706             0.00103999354           
       0.200692              0.0169009535             0.00107036787           
       0.201371              0.0149860543            0.000996557269           
       0.202051              0.0165409403             0.00105023662           
       0.202730              0.0153547244              0.0010017713           
       0.203409              0.0158965569             0.00102613549           
       0.204088              0.0163272694             0.00103879373           
       0.204767              0.0164978791             0.00103871879           
       0.205446              0.0155681717             0.00101099861           
       0.206126              0.0155824348            0.000997719767           
       0.206805              0.0159010014             0.00102634353           
       0.207484              0.0143811126            0.000958513354           
       0.208163              0.0133908028              0.0009304802           
       0.208842               0.015173372            0.000987794092           
       0.209521               0.015616267            0.000993778593           
       0.210201              0.0146953434            0.000974788595           
       0.210880              0.0153380186            0.000976333737           
       0.211559              0.0159165845             0.00100928233           
       0.212238              0.0157207635            0.000997950489           
       0.212917              0.0149757579            0.000970398217           
       0.213596              0.0167049203             0.00103095131           
       0.214276              0.0143193348            0.000934617499           
       0.214955              0.0155746228            0.000995220837           
       0.215634              0.0147255262            0.000960776417           
       0.216313              0.0152277651             0.00097497189           
       0.216992              0.0142910347            0.000944271912           
       0.217671              0.0145030173            0.000944806103           
       0.218351              0.0149753466            0.000969457505           
       0.219030              0.0134612728            0.000904635231           
       0.219709              0.0162868299             0.00100126567           
       0.220388              0.0132911441            0.000903345618           
       0.221067              0.0131969707            0.000900853276           
       0.221746              0.0148366241            0.000954199953           
       0.222426              0.0145008349            0.000929242097           
       0.223105              0.0149813973            0.000957381875           
       0.223784               0.016404035            0.000991870634           
       0.224463               0.015393921            0.000968499027           
       0.225142              0.0165562227            0.000988504442           
       0.225821              0.0152626598            0.000952925502           
       0.226500              0.0163029757            0.000991128433           
       0.227180               0.014567099            0.000922444187           
       0.227859              0.0145960233            0.000927501866           
       0.228538               0.012379532            0.000845603226           
       0.229217              0.0139396222            0.000904407483           
       0.229896              0.0146866707            0.000927878674           
       0.230575              0.0156833291             0.00094356087           
       0.231255              0.0151696089            0.000941872115           
       0.231934              0.0144968402             0.00091445883           
       0.232613              0.0158935433            0.000961030538           
       0.233292              0.0147691685            0.000917462572           
       0.233971              0.0161230472            0.000958144859           
       0.234650              0.0145519141             0.00092097154           
       0.235330              0.0129739616            0.000862012171           
       0.236009              0.0137690856            0.000886119927           
       0.236688              0.0154763791             0.00093609005           
       0.237367              0.0134769589            0.000874800898           
       0.238046              0.0154539975            0.000943368736           
       0.238725              0.0153007036              0.0009241965           
       0.239405              0.0151938655            0.000926675095           
       0.240084              0.0139023112            0.000880770164           
       0.240763              0.0146701014            0.000913428093           
       0.241442              0.0143718757            0.000891356841           
       0.242121              0.0139219349               0.000878949           
       0.242800              0.0135684207            0.000871825797           
       0.243480              0.0146168297            0.000900644479           
       0.244159              0.0147205071            0.000904270314           
       0.244838               0.014446715            0.000881080987           
       0.245517              0.0149896271            0.000910393886           
       0.246196              0.0131660019            0.000853631111           
       0.246875              0.0140864798            0.000870658706           
       0.247554              0.0135566559            0.000862808765           
       0.248234              0.0128355557             0.00082681796           
       0.248913              0.0141394676            0.000877533094           
       0.249592               0.015024178            0.000895974739           
       0.250271              0.0151265285            0.000896410921           
       0.250950              0.0137569133            0.000860101841           
       0.251629              0.0136791968            0.000850379259           
       0.252309              0.0135868078            0.000849222736           
       0.252988              0.0134178415            0.000829388731           
       0.253667               0.013323781            0.000836132992           
       0.254346              0.0129920512            0.000825488637           
       0.255025              0.0134008957            0.000836540103           
       0.255704              0.0140049857            0.000851270357           
       0.256384              0.0141486254            0.000852664612           
       0.257063              0.0130364602            0.000823133037           
       0.257742              0.0127890935            0.000809637192           
       0.258421              0.0122335533               0.000790333           
       0.259100              0.0144730607            0.000861133891           
       0.259779              0.0126747706            0.000805178624           
       0.260459              0.0128111068            0.000811087174           
       0.261138              0.0131018036            0.000804208374           
       0.261817              0.0137402769            0.000840194984           
       0.262496              0.0147216287            0.000861152506           
       0.263175              0.0131773868            0.000816485724           
       0.263854              0.0129935902            0.000807004826           
       0.264534              0.0147055832            0.000851191991           
       0.265213              0.0130765199            0.000815310621           
       0.265892              0.0118649607            0.000766672939           
       0.266571              0.0125473469            0.000786618558           
       0.267250              0.0130222603              0.0008027169           
       0.267929              0.0118052831            0.000763504984           
       0.268609              0.0125536462            0.000791644175           
       0.269288              0.0130876383            0.000794878094           
       0.269967               0.012646181            0.000789775694           
       0.270646               0.012325569             0.00077632955           
       0.271325              0.0122452168            0.000775087281           
       0.272004               0.011259687            0.000735833584           
       0.272683              0.0121135627            0.000764167705           
       0.273363              0.0115981672            0.000752503456           
       0.274042              0.0114967428            0.000744785679           
       0.274721              0.0117566781            0.000752711696           
       0.275400              0.0114121508            0.000736690489           
       0.276079              0.0106747613             0.00071653836           
       0.276758              0.0131676727            0.000805862972           
       0.277438              0.0104219118            0.000708888265           
       0.278117              0.0114670816            0.000757105961           
       0.278796              0.0120494935            0.000768216892           
       0.279475               0.011349505            0.000757885527           
       0.280154              0.0107697394            0.000727654753           
       0.280833              0.0103169056            0.000716523725           
       0.281513              0.0124809259            0.000800460407           
       0.282192               0.011451388            0.000753654644           
       0.282871             0.00955127153            0.000693103535           
       0.283550              0.0110704757            0.000750190935           
       0.284229              0.0116346401            0.000780364328           
       0.284908              0.0120451928            0.000802388386           
       0.285588              0.0119804482            0.000790858262           
       0.286267                0.01172793            0.000795008069           
       0.286946              0.0104084425            0.000744081076           
       0.287625              0.0107275239            0.000768262244           
       0.288304              0.0107041181            0.000757152031           
       0.288983               0.011078127            0.000780020528           
       0.289663             0.00927994834            0.000718092007           
       0.290342              0.0112711455            0.000787178734           
       0.291021             0.00955723409            0.000728767356           
       0.291700              0.0095073658            0.000717368127           
       0.292379               0.010361513            0.000766046378           
       0.293058               0.011463175            0.000802698332           
       0.293738              0.0115909357            0.000800381052           
       0.294417              0.0121029629            0.000827374602           
       0.295096              0.0113435198            0.000792190228           
       0.295775              0.0102765271            0.000765528101           
       0.296454             0.00945142244            0.000724657092           
       0.297133              0.0108308988            0.000779410063           
       0.297812             0.00974551757            0.000743034486           
       0.298492              0.0096812082            0.000742009704           
       0.299171             0.00930740798            0.000726167419           
       0.299850              0.0103987245            0.000762318796           
       0.300529             0.00989745003            0.000752095518           
       0.301208              0.0097704664            0.000749073625           
       0.301887             0.00980950857            0.000749676841           
       0.302567             0.00992670776             0.00075036492           
       0.303246             0.00943845043             0.00073645542           
       0.303925              0.0100497654             0.00076968818           
       0.304604             0.00959584452            0.000735864866           
       0.305283             0.00885424812            0.000717341758           
       0.305962             0.00913834616            0.000724356691           
       0.306642             0.00958183863            0.000751799022           
       0.307321             0.00890994872            0.000722646537           
       0.308000             0.00951472705            0.000737917719           
       0.308679             0.00915928434            0.000739682022           
       0.309358             0.00758451773            0.000663992899           
       0.310037             0.00802406886            0.000684484045           
       0.310717             0.00927833568            0.000735331219           
       0.311396             0.00768426423            0.000673677503           
       0.312075             0.00960602971            0.000762773492           
       0.312754             0.00839664075            0.000698875854           
       0.313433             0.00796182618            0.000686458611           
       0.314112             0.00837228772            0.000703769404           
       0.314792              0.0078896862            0.000688009229           
       0.315471             0.00962756573            0.000750617024           
       0.316150              0.0087139627            0.000720723824           
       0.316829             0.00811887598            0.000700273106           
       0.317508             0.00913062668            0.000734292223           
       0.318187             0.00816079964            0.000703358252           
       0.318866               0.008928824             0.00072580036           
       0.319546             0.00855302881            0.000721010612           
       0.320225             0.00914725761            0.000745651051           
       0.320904             0.00737913308            0.000659364106           
       0.321583             0.00958113503               0.000767886           
       0.322262             0.00939391081            0.000748822615           
       0.322941             0.00787674006            0.000694476702           
       0.323621             0.00898610893             0.00073724485           
       0.324300             0.00784912348            0.000689567437           
       0.324979             0.00812128675            0.000702688799           
       0.325658             0.00717492762            0.000661677763           
       0.326337             0.00829378012            0.000712328854           
       0.327016             0.00813287718            0.000700907036           
       0.327696             0.00639036707            0.000628209752           
       0.328375             0.00914008585             0.00074496629           
       0.329054              0.0077242209            0.000688553912           
       0.329733             0.00759740652            0.000685372112           
       0.330412             0.00782558649            0.000689888844           
       0.331091             0.00768577314            0.000696100145           
       0.331771             0.00641845179            0.000619457326           
       0.332450             0.00749365128            0.000682329425           
       0.333129             0.00715143971            0.000664847447           
       0.333808             0.00674039515            0.000646311038           
       0.334487             0.00742468488            0.000681541286           
       0.335166             0.00841951367             0.00071514427           
       0.335846             0.00771696416            0.000696689172           
       0.336525             0.00755569373            0.000682564775           
       0.337204             0.00673817043            0.000646271147           
       0.337883             0.00739289753            0.000677838777           
       0.338562             0.00532854778            0.000578664552           
       0.339241             0.00768540509            0.000696255865           
       0.339921             0.00662474993            0.000635587566           
       0.340600             0.00663545687            0.000648180836           
       0.341279             0.00630302598            0.000624970731           
       0.341958             0.00668146897            0.000652537441           
       0.342637             0.00728741327            0.000671857328           
       0.343316             0.00615391527            0.000619186792           
       0.343995             0.00662443682            0.000652941123           
       0.344675             0.00599476091             0.00060971921           
       0.345354             0.00607549873            0.000617860188           
       0.346033             0.00719193359            0.000670484113           
       0.346712             0.00612901514              0.0006229072           
       0.347391              0.0067304746            0.000656797693           
       0.348070             0.00664404063            0.000643299302           
       0.348750             0.00595946071            0.000618060299           
       0.349429             0.00586064358            0.000605002065           
       0.350108             0.00715675042            0.000676607813           
       0.350787             0.00718572695            0.000666458129           
       0.351466              0.0054314075            0.000590093918           
       0.352145             0.00640956646              0.0006415633           
       0.352825             0.00571850347            0.000603246429           
       0.353504             0.00673806914            0.000654658449           
       0.354183             0.00700665055            0.000659887155           
       0.354862             0.00643083121            0.000646880976           
       0.355541             0.00696969525            0.000664618489           
       0.356220              0.0055930799            0.000596500209           
       0.356900             0.00551751797            0.000598084589           
       0.357579              0.0068778082            0.000659564953           
       0.358258             0.00636244788            0.000643151733           
       0.358937             0.00574697535              0.0005997612           
       0.359616             0.00560161531            0.000600396295           
       0.360295             0.00611782702            0.000627973918           
       0.360975             0.00440390768            0.000530518773           
       0.361654             0.00567614677             0.00060539902           
       0.362333             0.00562249409            0.000599467289           
       0.363012             0.00569605233             0.00061113914           
       0.363691             0.00508392155            0.000565976824           
       0.364370             0.00490213238            0.000562660285           
       0.365050             0.00721151037            0.000678791971           
       0.365729             0.00449628894              0.0005410932           
       0.366408             0.00569140117            0.000610119802           
       0.367087             0.00669932343            0.000651326844           
       0.367766             0.00495198536            0.000571648548           
       0.368445             0.00585262449            0.000610428462           
       0.369124             0.00640666726            0.000643685741           
       0.369804             0.00588180179            0.000615768578           
       0.370483             0.00650739745            0.000650522114           
       0.371162             0.00546970811            0.000599861666           
       0.371841             0.00475377448            0.000549476817           
       0.372520             0.00504190685            0.000577227037           
       0.373199              0.0042529471            0.000523810653           
       0.373879             0.00554780422            0.000605186474           
       0.374558             0.00506843156            0.000570008558           
       0.375237             0.00496205058            0.000564919441           
       0.375916             0.00414994585            0.000526524261           
       0.376595             0.00513999013             0.00057452137           
       0.377274             0.00438348344            0.000539052933           
       0.377954             0.00449293301             0.00053716809           
       0.378633             0.00515258765            0.000582521329           
       0.379312             0.00466271435            0.000553998884           
       0.379991             0.00540554177            0.000593410788           
       0.380670             0.00439743503            0.000544683893           
       0.381349             0.00469892939            0.000554962108           
       0.382029             0.00500151537            0.000580755325           
       0.382708             0.00419436696            0.000520219561           
       0.383387             0.00372736965             0.00050151848           
       0.384066             0.00536723026            0.000596290096           
       0.384745             0.00501624771            0.000578729829           
       0.385424             0.00358682811            0.000491036992           
       0.386104             0.00460912921             0.00055048091           
       0.386783             0.00474174677            0.000570421106           
       0.387462             0.00424308762            0.000526170933           
       0.388141              0.0048032633            0.000568768657           
       0.388820             0.00525904594            0.000590840366           
       0.389499             0.00430675587            0.000537687346           
       0.390178             0.00299666445            0.000450297739           
       0.390858             0.00433566122             0.00053725431           
       0.391537             0.00416669733            0.000532059787           
       0.392216             0.00431296445            0.000534532933           
       0.392895             0.00374553093            0.000499808747           
       0.393574             0.00352217905            0.000483476116           
       0.394253             0.00367642667            0.000496171318           
       0.394933             0.00372308401            0.000505015565           
       0.395612             0.00452768328            0.000540741097           
       0.396291             0.00384114049            0.000508199601           
       0.396970             0.00462911312            0.000552952925           
       0.397649             0.00412418853            0.000523532435           
       0.398328             0.00396637142            0.000511161184           
       0.399008             0.00380934992            0.000499852352           
       0.399687              0.0049564392            0.000572383199           
       0.400366             0.00433931276            0.000533516912           
       0.401045             0.00443989968              0.0005386447           
       0.401724              0.0038033324            0.000499369797           
       0.402403             0.00473548046            0.000561557141           
       0.403083             0.00381243743            0.000496598424           
       0.403762             0.00386451193             0.00050244394           
       0.404441             0.00337764472            0.000472720605           
       0.405120             0.00315582357            0.000455436051           
       0.405799             0.00378484075            0.000496596934           
       0.406478             0.00390991364             0.00050474813           
       0.407158             0.00330821765            0.000463417402           
       0.407837             0.00495454758            0.000572128696           
       0.408516             0.00425376586            0.000525513502           
       0.409195             0.00363676004            0.000491420525           
       0.409874             0.00396776218            0.000520438688           
       0.410553              0.0040250529            0.000529820157           
       0.411233             0.00338571669            0.000483405749           
       0.411912             0.00329295032            0.000483492211           
       0.412591              0.0030475123            0.000468203269           
       0.413270             0.00302128564             0.00046396951           
       0.413949             0.00425903936            0.000556886951           
       0.414628             0.00300057678            0.000466587537           
       0.415307             0.00375563996            0.000527809195           
       0.415987             0.00318570774            0.000482107943           
       0.416666             0.00248846791            0.000423532256           
       0.417345             0.00332303481            0.000497600053           
       0.418024             0.00242971588            0.000425502173           
       0.418703             0.00287040183            0.000461632954           
       0.419382             0.00232620615            0.000413538659           
       0.420062             0.00299647698            0.000470665736           
       0.420741             0.00236580196            0.000420435888           
       0.421420             0.00275650089            0.000455547431           
       0.422099             0.00389673584            0.000541646952           
       0.422778              0.0029505472            0.000473873691           
       0.423457              0.0027463788            0.000459982849           
       0.424137              0.0028055662            0.000457336455           
       0.424816             0.00208490208            0.000402486471           
       0.425495             0.00371094119            0.000536462597           
       0.426174             0.00329838312            0.000505941149           
       0.426853              0.0022875592            0.000418783501           
       0.427532             0.00209503312            0.000404161776           
       0.428212             0.00283254452            0.000473048433           
       0.428891             0.00227581357            0.000423054822           
       0.429570             0.00290174759            0.000478029798           
       0.430249             0.00208846239              0.0004034389           
       0.430928              0.0020285229            0.000406301971           
       0.431607             0.00305994075            0.000490442861           
       0.432287             0.00199698306            0.000399106014           
       0.432966              0.0026763472            0.000466096316           
       0.433645             0.00106455093            0.000294266589           
       0.434324             0.00240825919            0.000439929952           
       0.435003             0.00177064664            0.000377867023           
       0.435682             0.00244964993            0.000448097419           
       0.436361             0.00203566409            0.000407935835           
       0.437041             0.00211013972            0.000414776782           
       0.437720             0.00188689965            0.000394115007           
       0.438399             0.00200414777            0.000408294775           
       0.439078             0.00196214932            0.000415709114           
       0.439757             0.00244231199            0.000460935717           
       0.440436             0.00250029158            0.000476885343           
       0.441116             0.00248223109             0.00048292967           
       0.441795             0.00258664775            0.000493576358           
       0.442474             0.00317713636            0.000548545867           
       0.443153             0.00236107728            0.000483911189           
       0.443832             0.00187015977            0.000431401192           
       0.444511              0.0017499849            0.000415430005           
       0.445191             0.00257252492            0.000515938001           
       0.445870             0.00215881242            0.000472647141           
       0.446549             0.00126684786            0.000365887445           
       0.447228             0.00207165021            0.000465245846           
       0.447907             0.00203006208            0.000466078619           
       0.448586             0.00191676266            0.000463782701           
       0.449266             0.00175999787            0.000440324876           
       0.449945             0.00208540704            0.000477350664           
       0.450624             0.00230672674            0.000510014778           
       0.451303             0.00279842327            0.000569029606           
       0.451982             0.00242353705            0.000526271552           
       0.452661             0.00406170864            0.000693994365           
       0.453341             0.00289604894            0.000588062933           
       0.454020             0.00159349885            0.000436875863           
       0.454699             0.00284208752            0.000588775065           
       0.455378             0.00174551452            0.000461663372           
       0.456057             0.00232670264             0.00054248779           
       0.456736             0.00193436921            0.000493097524           
       0.457416             0.00218355689            0.000523911249           
       0.458095             0.00161116483            0.000456547041           
       0.458774             0.00259217322            0.000586745114           
       0.459453             0.00208153652            0.000528438371           
       0.460132             0.00224314237             0.00053672143           
       0.460811             0.00174460293            0.000490995157           
       0.461490              0.0019657458            0.000515885115           
       0.462170            0.000787557767            0.000331631312           
       0.462849             0.00122455097            0.000416208027           
       0.463528             0.00246278636            0.000588880419           
       0.464207             0.00113469207            0.000407196277           
       0.464886             0.00154594256            0.000471592112           
       0.465565             0.00085632753            0.000354841638           
       0.466245             0.00100420763            0.000385453467           
       0.466924             0.00168043303            0.000510399632           
       0.467603            0.000570044819            0.000290966776           
       0.468282             0.00247957545            0.000621234879           
       0.468961              0.0012601242            0.000445776858           
       0.469640             0.00142457725            0.000475864099           
       0.470320             0.00110143397            0.000418715694           
       0.470999            0.000652013804            0.000325196185           
       0.471678             0.00232044438            0.000619379975           
       0.472357             0.00117637248            0.000442236662           
       0.473036            0.000845431823            0.000377271768           
       0.473715             0.00204429898             0.00059125036           
       0.474395            0.000901323346              0.0003980171           
       0.475074             0.00177968523            0.000559301094           
       0.475753             0.00106401079            0.000428729544           
       0.476432             0.00116775544            0.000465496314           
       0.477111               0.001099394            0.000446203637           
       0.477790             0.00205196755            0.000612852438           
       0.478470             0.00134216363            0.000502202667           
       0.479149            0.000807922474            0.000393667963           
       0.479828             0.00100709949            0.000438488137           
       0.480507            0.000628340505            0.000349145574           
       0.481186            0.000290632794            0.000242807793           
       0.481865            0.000265639121            0.000229258142           
       0.482545             0.00067028725            0.000368451944           
       0.483224            0.000289470532            0.000243786698           
       0.483903            0.000514842586             0.00033024224           
       0.484582           -0.000111353495                         0           
       0.485261           -0.000113419975                         0           
       0.485940            0.000125305859            0.000167887092           
       0.486619            0.000554596077             0.00034931415           
       0.487299             0.00033997513            0.000277856253           
       0.487978            0.000777097715            0.000415802372           
       0.488657            0.000635060217            0.000391397465           
       0.489336            0.000369979757            0.000293506401           
       0.490015            0.000128077624            0.000174046343           
       0.490694           -0.000321593347                         0           
       0.491374            -9.6515688e-05                         0           
       0.492053            0.000159503372            0.000202576302           
       0.492732           -0.000321651769                         0           
       0.493411           -0.000321671471                         0           
       0.494090            0.000198739704            0.000227608136           
       0.494769           -0.000321710752                         0           
       0.495449           -5.95765603e-05                         0           
       0.496128           -0.000321750258                         0           
       0.496807           -0.000321769824                         0           
       0.497486            -0.00032178957                         0           
       0.498165            0.000248833597            0.000266529063           
       0.498844            -0.00032182933                         0           
       0.499524             0.00024755113            0.000267126694           
       0.500203           -0.000321869288                         0           
       0.500882           -0.000321889028                         0           
       0.501561            -0.00032190883                         0           
       0.502240           -2.17443712e-05                         0           
       0.502919           -0.000321948874                         0           
       0.503599           -1.75212631e-05                         0           
       0.504278           -0.000321989271                         0           
       0.504957            4.62927129e-06            3.86796865e-05           
       0.505636            6.84021334e-06            4.73375119e-05           
       0.506315           -0.000322049643                         0           
       0.506994            -0.00032206958                         0           
       0.507673           -0.000322089477                         0           
       0.508353           -0.000322109793                         0           
       0.509032           -0.000322130023                         0           
       0.509711             2.5048817e-05            9.30372641e-05           
       0.510390           -0.000322170816                         0           
       0.511069           -0.000322191304                         0           
       0.511748           -0.000322211709                         0           
       0.512428            -0.00032223226                         0           
       0.513107            0.000442311289            0.000411579437           
       0.513786           -0.000322272793                         0           
       0.514465            6.10135639e-05             0.00015215007           
       0.515144           -0.000322314067                         0           
       0.515823           -0.000322334509                         0           
       0.516503           -0.000322355143                         0           
       0.517182           -0.000322375775                         0           
       0.517861           -0.000322396356                         0           
       0.518540           -0.000322417054                         0           
       0.519219           -0.000322437632                         0           
       0.519898            0.000144248328            0.000260298989           
       0.520578             0.00012406832            0.000235967419           
       0.521257             0.00068215891            0.000582171943           
       0.521936            0.000127125148            0.000242505193           
       0.522615           -0.000322541599                         0           
       0.523294           -0.000322562615                         0           
       0.523973           -0.000322583341                         0           
       0.524653           -0.000322603917                         0           
       0.525332           -0.000322624793                         0           
       0.526011           -0.000322646044                         0           
       0.526690           -0.000322667255                         0           
       0.527369            -0.00032268829                         0           
       0.528048            0.000186616566             0.00030842784           
       0.528728           -0.000322730636                         0           
       0.529407           -0.000322751698                         0           
       0.530086            0.000208375733            0.000332316039           
       0.530765           -0.000322793635                         0           
       0.531444           -0.000322814845                         0           
       0.532123             0.00026508583            0.000390590492           
       0.532802           -0.000322857839                         0           
       0.533482            0.000270095548            0.000398099755           
       0.534161           -0.000322900545                         0           
       0.534840           -0.000322921732                         0           
       0.535519           -0.000322943311                         0           
       0.536198           -0.000322964667                         0           
       0.536877            0.000318110485            0.000453530653           
       0.537557            0.000230583785            0.000366130218           
       0.538236            -0.00032302877                         0           
       0.538915            0.000893073902             0.00073487017           
       0.539594            0.000324052441            0.000461524925           
       0.540273           -0.000323093876                         0           
       0.540952             0.00232758355             0.00124377741           
       0.541632           -0.000323136826                         0           
       0.542311           -0.000323158299                         0           
       0.542990           -0.000323180011                         0           
       0.543669           -0.000323201905                         0           
       0.544348           -0.000323223773                         0           
       0.545027           -0.000323245595                         0           
       0.545707           -0.000323267481                         0           
       0.546386            -0.00032328943                         0           
       0.547065           -0.000323311115                         0           
       0.547744           -0.000323332898                         0           
       0.548423              0.0011200332            0.000898353646           
       0.549102           -0.000323376968                         0           
       0.549782           -0.000323398903                         0           
       0.550461           -0.000323421098                         0           
       0.551140           -0.000323443426                         0           
       0.551819           -0.000323465491                         0           
       0.552498           -0.000323487745                         0           
       0.553177           -0.000323509617                         0           
       0.553856           -0.000323531567                         0           
       0.554536           -0.000323553589                         0           
       0.555215           -0.000323575947                         0           
       0.555894           -0.000323598252                         0           
       0.556573            -0.00032362069                         0           
       0.557252           -0.000323643109                         0           
       0.557931           -0.000323665427                         0           
       0.558611           -0.000323688266                         0           
       0.559290           -0.000323710525                         0           
       0.559969           -0.000323732236                         0           
       0.560648           -0.000323754522                         0           
       0.561327             0.00203803833             0.00155623823           
       0.562006           -0.000323799983                         0           
       0.562686           -0.000323822673                         0           
       0.563365           -0.000323845447                         0           
       0.564044           -0.000323868106                         0           
       0.564723           -0.000323890715                         0           
       0.565402           -0.000323912903                         0           
       0.566081           -0.000323935238                         0           
       0.566761           -0.000323957814                         0           
       0.567440           -0.000323980848                         0           
       0.568119           -0.000324003701                         0           
       0.568798             0.00114183537             0.00129181406           
       0.569477           -0.000324049899                         0           
       0.570156           -0.000324073036                         0           
       0.570836           -0.000324096085                         0           
       0.571515           -0.000324118648                         0           
       0.572194           -0.000324141864                         0           
       0.572873           -0.000324164549                         0           
       0.573552             -0.0003241871                         0           
       0.574231            -0.00032421011                         0           
       0.574911           -0.000324233698                         0           
       0.575590           -0.000324256834                         0           
       0.576269           -0.000324279898                         0           
       0.576948           -0.000324303405                         0           
       0.577627           -0.000324326196                         0           
       0.578306           -0.000324349308                         0           
       0.578985           -0.000324372617                         0           
       0.579665           -0.000324395793                         0           
       0.580344           -0.000324419319                         0           
       0.581023           -0.000324442819                         0           
       0.581702           -0.000324466102                         0           
       0.582381           -0.000324489174                         0           
       0.583060           -0.000324512934                         0           
       0.583740           -0.000324536321                         0           
       0.584419           -0.000324559785                         0           
       0.585098           -0.000324583221                         0           
       0.585777            -0.00032460684                         0           
       0.586456           -0.000324630844                         0           
       0.587135           -0.000324654208                         0           
       0.587815           -0.000324677321                         0           
       0.588494           -0.000324701155                         0           
       0.589173           -0.000324725535                         0           
       0.589852            -0.00032474862                         0           
       0.590531           -0.000324772575                         0           
       0.591210           -0.000324795977                         0           
       0.591890           -0.000324819832                         0           
       0.592569           -0.000324842888                         0           
       0.593248           -0.000324868096                         0           
       0.593927           -0.000324892062                         0           
       0.594606           -0.000324916521                         0           
       0.595285           -0.000324939523                         0           
       0.595965           -0.000324960988                         0           
       0.596644           -0.000324983076                         0           
