################################################################################
# EDF_DataBlockID                     0.Image.Psd
# EDF_BinarySize                      2105344
# EDF_HeaderSize                      2560
# ByteOrder                           LowByteFirst
# DataType                            FloatValue
# Dim_1                               512
# Dim_2                               1028
# Image                               0
# HeaderID                            EH:000000:000000:000000
# Size                                2105344
# Center_1                            304.9000
# Center_2                            588.7000
# Comment                             Xenocs_Cell_Window - 20251028_20perc_iodine_1.23mg
# DDummy                              0.6
# Date                                2025-10-30T16:51:16
# Delta                               21.910000
# Dummy                               -1.5
# ExposureTime                        360
# Gamma                               15.360000
# Intensity1                          8.47298e-10
# PSize_1                             7.5e-05
# PSize_2                             7.5e-05
# Pressure                            0.0326872
# SampleDistance                      0.115750
# SampleEnvKind                       large
# SampleEnvPN                         ElectroChemical cell
# SampleEnvSN                         1141
# Thickness                           0
# Wavelength                          1.541891e-10
# Wavelength                          1.54189e-10
# aux                                 0
# aux_dial                            0.002375
# beamx                               588.434
# beamx_dial                          588.434
# beamz                               657.808
# beamz_dial                          657.808
# det0x                               0
# det0x_dial                          6.36945
# det0xvd                             0
# det0xvd_dial                        0
# det0y                               450.002
# det0y_dial                          481.635
# det0z                               0
# det0z_dial                          1.23302
# det0zvd                             0
# det0zvd_dial                        0
# mag                                 1.818
# mag_dial                            1.818
# om                                  0.2499
# om_dial                             -0.610199
# phi                                 -0.0120535
# phi_dial                            0
# ry                                  0.599993
# ry_dial                             0.599993
# s1bot                               0.8
# s1bot_dial                          -1.66094
# s1hl                                0.8
# s1hl_dial                           -0.608437
# s1hr                                0.8
# s1hr_dial                           0.970938
# s1top                               0.8
# s1top_dial                          -0.461562
# s2bot                               0.45
# s2bot_dial                          1.36109
# s2hl                                0.45
# s2hl_dial                           -0.83375
# s2hr                                0.45
# s2hr_dial                           -0.118594
# s2top                               0.45
# s2top_dial                          1.44734
# w2theta                             32
# w2theta_dial                        32
# waxsch                              19.2605
# waxsch_dial                         -32.7355
# waxsh                               137.085
# waxsh_dial                          -43.5338
# waxsth                              26.0607
# waxsth_dial                         -19.4086
# waxsz                               67.0407
# waxsz_dial                          -23.7954
# wind                                65.9854
# wind_dial                           66.0041
# wpsi                                124
# wpsi_dial                           124
# wstod                               115
# wstod_dial                          115
# x                                   0
# x_dial                              1.00969
# z                                   0
# z_dial                              13.3172
# CountCutoff                         6807993
# DetectorModel                       Dectris EIGER2 Si 500K, S/N E-01-0554
# ThresholdSetting                    4023.88989258
# Saturation                          0
# FlatField                           Corrected
# BackgroundReductionExtra            0.02
# BackgroundCorrectionConstant        0.0026712
# Detector                            0
# Monitor                             0
# Pil_Roi0                            0
# SumForIntensity1                    3.05027e+08
# TransmittedFlux                     847298
# det                                 0
# mon                                 0
# pilai0                              3.05027e+08
# pilai1                              778720
# pilct0                              5.27706e+08
# pilct1                              778720
# pilroi0                             0
# pilroi1                             0
# sec                                 1
# title                               20251028_20perc_iodine_1.23mg_1_00459.edf
# usaxs0                              0
# Operation                           Azimuthal average I(q)
# Error_model                         ErrorModel.poisson
# Geometrical_correction              True
# Transmission_correction             True
# Thickness_correction                False
# Binning mode                        Uniform
# Binning factor                      1.0
# Psi                                 0.0
# Omega                               0.2499
# MaskInvalidPixels                   True
# DetectorEdge                        3
# MaskFiles                           ['WAXS_corrected.edf']
################################################################################
    q(A⁻¹)                Intensity(a.u.)            Sigma_I(a.u.)            
       0.693100             0.00416389074             0.00432161068           
       0.695741             0.00567530278             0.00411716446           
       0.698381              0.0126784278             0.00753788062           
       0.701021           -2.39245565e-05                         0           
       0.703662             0.00571042123             0.00412802458           
       0.706302              0.0085904611             0.00391988742           
       0.708942           -2.38781401e-05                         0           
       0.711583              0.0154229672             0.00587024425           
       0.714223              0.0147545551             0.00662880409           
       0.716864              0.0139533045             0.00421775593           
       0.719504             0.00738396778             0.00331097316           
       0.722144             0.00633032023             0.00283903288           
       0.724785              0.0104637271              0.0029116032           
       0.727425             0.00443053696             0.00256305081           
       0.730065             0.00875900893             0.00254916375           
       0.732706             0.00831290397             0.00208542884           
       0.735346             0.00709324779             0.00251110962           
       0.737987             0.00661298568             0.00171332191           
       0.740627              0.0058941871             0.00241345174           
       0.743267              0.0087931541             0.00197442737           
       0.745908             0.00628004807             0.00181033534           
       0.748548             0.00932314202             0.00203316735           
       0.751189             0.00727037575             0.00241928445           
       0.753829             0.00340359102             0.00152160629           
       0.756469             0.00924681498             0.00202238131           
       0.759110             0.00788488035             0.00196804511           
       0.761750             0.00806339775             0.00175977523           
       0.764390             0.00588723473             0.00157383536           
       0.767031               0.007876369             0.00157639777           
       0.769671             0.00886723709             0.00208646731           
       0.772312             0.00652472071              0.0013625415           
       0.774952             0.00624100028              0.0017995155           
       0.777592              0.0071332685             0.00140129628           
       0.780233             0.00562374404             0.00150114356           
       0.782873             0.00991113486             0.00190595998           
       0.785513               0.010882207             0.00213508098           
       0.788154             0.00757353981             0.00149001001           
       0.790794             0.00706712101             0.00172075892           
       0.793435              0.0088036221             0.00172535981           
       0.796075             0.00753051422             0.00153718969           
       0.798715             0.00916098207              0.0020035441           
       0.801356             0.00710447701             0.00151855267           
       0.803996             0.00945751022             0.00178626106           
       0.806637             0.00638116571             0.00116766632           
       0.809277             0.00725190287             0.00134733646           
       0.811917             0.00657364505             0.00119919787           
       0.814558             0.00681311531             0.00126885049           
       0.817198             0.00599120065             0.00113041927           
       0.819838             0.00651876231             0.00119337629           
       0.822479             0.00755528334             0.00150865282           
       0.825119               0.010464158             0.00151115773           
       0.827760             0.00625761856             0.00118373648           
       0.830400             0.00671562387             0.00115416759           
       0.833040             0.00869349522             0.00137580399           
       0.835681             0.00874709277             0.00156886766           
       0.838321             0.00614189683             0.00110341636           
       0.840961             0.00776994891             0.00135220717           
       0.843602             0.00494119807             0.00098886946           
       0.846242             0.00529118682             0.00102313891           
       0.848883             0.00889514202             0.00135756699           
       0.851523             0.00645860751             0.00114241986           
       0.854163             0.00593447021             0.00116457228           
       0.856804             0.00739460409             0.00116885024           
       0.859444             0.00938987516             0.00129054086           
       0.862085             0.00633556205             0.00110485798           
       0.864725             0.00463800452            0.000967438837           
       0.867365             0.00588829222             0.00101080763           
       0.870006             0.00880881576             0.00117812258           
       0.872646             0.00727685775             0.00112286983           
       0.875286             0.00703420798             0.00106210653           
       0.877927             0.00802490919             0.00109467921           
       0.880567             0.00738713248             0.00108811056           
       0.883208              0.0073615571              0.0010759921           
       0.885848             0.00811877287              0.0011732557           
       0.888488             0.00921938657             0.00117266172           
       0.891129              0.0081625978             0.00113296924           
       0.893769             0.00691820925            0.000998215957           
       0.896410              0.0077225909             0.00098330521           
       0.899050             0.00696786529              0.0010271693           
       0.901690             0.00789578697             0.00119105993           
       0.904331              0.0103018326             0.00120614316           
       0.906971             0.00704266634              0.0010609247           
       0.909611             0.00702131869              0.0009643162           
       0.912252             0.00577205641            0.000903091113           
       0.914892             0.00809458149             0.00116868895           
       0.917533             0.00738314142             0.00105587326           
       0.920173             0.00947114951             0.00110955415           
       0.922813              0.0086975291             0.00111578604           
       0.925454             0.00766111514            0.000942973313           
       0.928094             0.00908426689              0.0010962271           
       0.930734             0.00627936123            0.000981232613           
       0.933375              0.0070471861             0.00102927541           
       0.936015             0.00829657195              0.0010142878           
       0.938656             0.00757433072             0.00103965218           
       0.941296             0.00903502142             0.00102906001           
       0.943936             0.00844664139            0.000975740618           
       0.946577             0.00955711684             0.00103103897           
       0.949217             0.00864883307             0.00090195518           
       0.951858             0.00587404438            0.000778105886           
       0.954498             0.00469646647             0.00080532295           
       0.957138             0.00941944293             0.00108047209           
       0.959779             0.00710569835            0.000925104305           
       0.962419             0.00770592754            0.000956976659           
       0.965059              0.0102339827             0.00115989569           
       0.967700             0.00840836531             0.00107680358           
       0.970340             0.00810170214            0.000935327155           
       0.972981              0.0077013775            0.000830852114           
       0.975621             0.00771332529            0.000884568838           
       0.978261             0.00878444458            0.000896957686           
       0.980902             0.00757767098            0.000996729406           
       0.983542             0.00729546157            0.000866076616           
       0.986182             0.00932331146            0.000961247743           
       0.988823             0.00756408107            0.000840714096           
       0.991463             0.00743369866            0.000889190202           
       0.994104             0.00778272396            0.000887548583           
       0.996744              0.0109953732             0.00107603916           
       0.999384             0.00791997481            0.000816742176           
       1.002025             0.00704150814            0.000859550762           
       1.004665             0.00779987902            0.000826742038           
       1.007306             0.00789205812             0.00082735626           
       1.009946             0.00703791234            0.000796819485           
       1.012586             0.00812359633            0.000833767348           
       1.015227              0.0077023132            0.000872192125           
       1.017867             0.00932120303            0.000922130096           
       1.020507             0.00882329916            0.000869025009           
       1.023148              0.0070704698            0.000839408491           
       1.025788             0.00896332207            0.000866594067           
       1.028429             0.00789703877            0.000852188282           
       1.031069             0.00814727319             0.00081454846           
       1.033709             0.00697799351            0.000801328038           
       1.036350             0.00815079428            0.000777834983           
       1.038990             0.00807764529            0.000788566302           
       1.041630              0.0076999524            0.000803023697           
       1.044271             0.00909330577            0.000820705353           
       1.046911             0.00573524414            0.000685589577           
       1.049552             0.00743878026            0.000820328167           
       1.052192             0.00913591883            0.000830125865           
       1.054832             0.00752134694            0.000760061077           
       1.057473             0.00947612714            0.000841007819           
       1.060113             0.00809291519            0.000757988837           
       1.062754             0.00843141359            0.000789912077           
       1.065394             0.00677289644            0.000748508886           
       1.068034             0.00829861623            0.000753856233           
       1.070675             0.00782698891            0.000763692476           
       1.073315             0.00766151404            0.000766406714           
       1.075955             0.00873942634            0.000772754881           
       1.078596             0.00940163422            0.000851832436           
       1.081236             0.00828023688            0.000765494828           
       1.083877             0.00785854307            0.000739057833           
       1.086517             0.00957210789            0.000874630315           
       1.089157             0.00756883233            0.000806993756           
       1.091798             0.00878052137            0.000762035239           
       1.094438             0.00912972489            0.000774532719           
       1.097078             0.00826997886            0.000707016006           
       1.099719             0.00926009157            0.000809231171           
       1.102359             0.00850276773            0.000726203685           
       1.105000             0.00931478133            0.000849927971           
       1.107640             0.00899640194            0.000798660071           
       1.110280             0.00936135188            0.000743350101           
       1.112921             0.00892600937            0.000779730453           
       1.115561             0.00906204783            0.000746694353           
       1.118202             0.00845681062            0.000722008024           
       1.120842             0.00803007453            0.000739441636           
       1.123482             0.00890205297            0.000775154391           
       1.126123             0.00793667458            0.000702031967           
       1.128763             0.00875305645            0.000742309408           
       1.131403              0.0101778446                 0.0007713           
       1.134044             0.00717358392            0.000666315502           
       1.136684             0.00921214025            0.000805044594           
       1.139325             0.00937476039            0.000748123254           
       1.141965             0.00997951352            0.000776979165           
       1.144605             0.00863026045            0.000688951553           
       1.147246             0.00930199981            0.000732008353           
       1.149886             0.00784984846            0.000670060544           
       1.152527             0.00947015522             0.00074667565           
       1.155167              0.0113676456             0.00077810601           
       1.157807             0.00947793165            0.000761775941           
       1.160448             0.00748177252            0.000660931345           
       1.163088             0.00758837798            0.000634906768           
       1.165728             0.00974277982            0.000738632616           
       1.168369              0.0116140716            0.000813903907           
       1.171009             0.00992540397            0.000730194203           
       1.173650             0.00994063238            0.000749927995           
       1.176290              0.0101963645             0.00074221462           
       1.178930              0.0107907058            0.000748338651           
       1.181571             0.00922047021            0.000705468653           
       1.184211             0.00836315307            0.000674253657           
       1.186851             0.00956308331            0.000704914544           
       1.189492             0.00945116541             0.00069606306           
       1.192132             0.00840096235            0.000648888517           
       1.194773             0.00830272413            0.000647901948           
       1.197413             0.00909629871            0.000649772049           
       1.200053              0.0101543334            0.000703965346           
       1.202694             0.00965894151            0.000652897074           
       1.205334             0.00989522883            0.000712173033           
       1.207975             0.00909422276             0.00065169466           
       1.210615             0.00917401146            0.000722076838           
       1.213255             0.00879417525            0.000633075869           
       1.215896              0.0112949465            0.000730464021           
       1.218536              0.0107574568            0.000685456919           
       1.221176              0.0102291174            0.000726701321           
       1.223817             0.00978101075            0.000667057704           
       1.226457             0.00992515351            0.000685492336           
       1.229098              0.0101618119            0.000693582941           
       1.231738              0.0107940441            0.000718351693           
       1.234378             0.00910471942            0.000619932728           
       1.237019              0.0108434582            0.000697170806           
       1.239659              0.0104207494            0.000677493366           
       1.242299              0.0112358722            0.000694553725           
       1.244940             0.00981601603            0.000631375444           
       1.247580              0.0105569758            0.000674795654           
       1.250221             0.00982946578            0.000647111943           
       1.252861             0.00995236148            0.000619892911           
       1.255501              0.0110699222            0.000709870725           
       1.258142              0.0109565985            0.000663627795           
       1.260782              0.0102787024            0.000656678143           
       1.263423             0.00991555773            0.000619746753           
       1.266063               0.010485903            0.000653236323           
       1.268703              0.0102624476            0.000640876059           
       1.271344              0.0110379796            0.000687176037           
       1.273984              0.0100541642            0.000633409577           
       1.276624               0.010118993            0.000623510524           
       1.279265              0.0101485605            0.000634790287           
       1.281905              0.0102399802            0.000640472975           
       1.284546              0.0105002103            0.000626892182           
       1.287186              0.0105805037            0.000617394858           
       1.289826              0.0116985659            0.000684199924           
       1.292467              0.0104408269            0.000632137483           
       1.295107              0.0104664064            0.000626624276           
       1.297747              0.0105214661            0.000601202524           
       1.300388              0.0105106247              0.0006550489           
       1.303028             0.00983625247            0.000604954938           
       1.305669              0.0112965665            0.000663744875           
       1.308309              0.0116097441            0.000666256247           
       1.310949              0.0109781254            0.000647228144           
       1.313590              0.0111995373            0.000633287736           
       1.316230              0.0114527387             0.00068340263           
       1.318871              0.0106218394             0.00064457259           
       1.321511              0.0115737448            0.000660364338           
       1.324151              0.0109172181            0.000622347159           
       1.326792              0.0109925532            0.000628351596           
       1.329432              0.0116197911            0.000641470958           
       1.332072              0.0102988295            0.000594909279           
       1.334713              0.0106680212            0.000624913926           
       1.337353              0.0119680595            0.000634772023           
       1.339994              0.0114806091            0.000652423494           
       1.342634              0.0108692914            0.000608748504           
       1.345274                0.01209593            0.000664596178           
       1.347915              0.0119138613            0.000641361346           
       1.350555                0.01128743            0.000635205682           
       1.353195              0.0114489822            0.000642877306           
       1.355836              0.0125194758            0.000661778062           
       1.358476              0.0123357886            0.000637954761           
       1.361117              0.0107489144            0.000596326954           
       1.363757              0.0110528779            0.000623164034           
       1.366397              0.0119162805            0.000627465453           
       1.369038              0.0123044317            0.000643951592           
       1.371678             0.00986240899              0.0005714368           
       1.374319              0.0109583782            0.000597164528           
       1.376959              0.0102949686            0.000572985673           
       1.379599              0.0116060817            0.000651997825           
       1.382240              0.0102872598            0.000576914804           
       1.384880              0.0119343652            0.000658189007           
       1.387520              0.0116565706            0.000617784359           
       1.390161              0.0113485763             0.00057894322           
       1.392801              0.0105339595            0.000581150239           
       1.395442              0.0112414837            0.000608549269           
       1.398082              0.0118651645            0.000585475037           
       1.400722              0.0112532315             0.00059724791           
       1.403363              0.0119305337            0.000647318747           
       1.406003               0.011401733            0.000592225638           
       1.408644              0.0120597909            0.000638046968           
       1.411284              0.0115038469            0.000590083669           
       1.413924              0.0105021973            0.000561718982           
       1.416565               0.010534234            0.000560365226           
       1.419205              0.0107558111             0.00059066607           
       1.421845              0.0103617128            0.000579403524           
       1.424486              0.0101615305            0.000551533855           
       1.427126              0.0111676128            0.000600630653           
       1.429767              0.0109956397             0.00056075233           
       1.432407              0.0103615237            0.000569667674           
       1.435047              0.0104354139            0.000536916752           
       1.437688              0.0115620684            0.000573608108           
       1.440328              0.0117248021            0.000589536978           
       1.442968              0.0107711776            0.000577714262           
       1.445609              0.0112322483            0.000571234727           
       1.448249              0.0106596363            0.000570573494           
       1.450890              0.0107593895            0.000569495503           
       1.453530              0.0103802273            0.000585214531           
       1.456170              0.0107999892            0.000579334467           
       1.458811              0.0110018717            0.000559125619           
       1.461451              0.0103302315            0.000543211433           
       1.464092               0.010476107            0.000550609797           
       1.466732                0.01039196            0.000543681526           
       1.469372                0.01022036             0.00052655567           
       1.472013              0.0106229501            0.000578977872           
       1.474653              0.0109893483            0.000579793853           
       1.477293              0.0102622544             0.00057209398           
       1.479934              0.0104173697            0.000550007351           
       1.482574              0.0106713871            0.000538493824           
       1.485215              0.0109057142            0.000554513054           
       1.487855              0.0108922228            0.000561480371           
       1.490495              0.0113442492            0.000570902282           
       1.493136              0.0112146464            0.000559851305           
       1.495776               0.011223057            0.000557511057           
       1.498416               0.010482221            0.000556424122           
       1.501057              0.0103281603            0.000540147697           
       1.503697               0.010926017            0.000543149778           
       1.506338              0.0102505104            0.000535705196           
       1.508978              0.0121270654            0.000576950894           
       1.511618              0.0092000441            0.000535184546           
       1.514259              0.0111721889            0.000569388839           
       1.516899              0.0096891141            0.000516289121           
       1.519540              0.0102004437            0.000538279605           
       1.522180             0.00964550719            0.000528030883           
       1.524820             0.00976458432            0.000528299517           
       1.527461             0.00977758262            0.000531265563           
       1.530101              0.0101604638            0.000536151358           
       1.532741             0.00939553186            0.000512582308           
       1.535382              0.0103944288             0.00054782162           
       1.538022              0.0106396706            0.000522129529           
       1.540663              0.0110120668            0.000571325925           
       1.543303              0.0113617243            0.000538841674           
       1.545943              0.0101398611            0.000538785157           
       1.548584               0.010818698            0.000566518152           
       1.551224             0.00922219242            0.000483609393           
       1.553864              0.0104371221            0.000543643659           
       1.556505              0.0096706222            0.000505521836           
       1.559145              0.0107260621            0.000538915417           
       1.561786              0.0104714209            0.000532890049           
       1.564426              0.0101000823            0.000507077527           
       1.567066              0.0106031382            0.000544390862           
       1.569707             0.00968723553            0.000511000509           
       1.572347              0.0100375972            0.000537376458           
       1.574988              0.0105783538              0.0005250894           
       1.577628             0.00930762858            0.000513600405           
       1.580268             0.00974914533            0.000509290001           
       1.582909              0.0104604495            0.000559173554           
       1.585549              0.0100310068            0.000531677946           
       1.588189             0.00953694112            0.000507104336           
       1.590830               0.010343792            0.000527457211           
       1.593470              0.0096723182            0.000530245735           
       1.596111              0.0101369309            0.000529972298           
       1.598751              0.0105282079             0.00052334238           
       1.601391              0.0100169498            0.000521739828           
       1.604032             0.00863038471            0.000494409403           
       1.606672              0.0103292578            0.000525522656           
       1.609312             0.00796771778            0.000481809882           
       1.611953             0.00967566512            0.000519562314           
       1.614593             0.00864278726            0.000481679412           
       1.617234             0.00969011513             0.00052858313           
       1.619874             0.00967941255            0.000526204258           
       1.622514             0.00986655793            0.000524019558           
       1.625155             0.00912348526            0.000506877593           
       1.627795             0.00928550702            0.000498829344           
       1.630436             0.00916793478            0.000493073039           
       1.633076             0.00933965696             0.00050419656           
       1.635716             0.00854927059            0.000474885134           
       1.638357             0.00915968247            0.000492841737           
       1.640997             0.00937968266            0.000513832633           
       1.643637             0.00904745487            0.000491081947           
       1.646278             0.00942918706            0.000517086824           
       1.648918             0.00860823775            0.000495412075           
       1.651559             0.00903112671            0.000511373458           
       1.654199             0.00943386238            0.000508324238           
       1.656839             0.00949540877            0.000510157709           
       1.659480             0.00826223902            0.000493749099           
       1.662120             0.00903186215            0.000486206807           
       1.664761             0.00884351923            0.000499749756           
       1.667401               0.008211607            0.000460272172           
       1.670041             0.00874018078            0.000482095281           
       1.672682             0.00896969879            0.000486376854           
       1.675322             0.00864515061            0.000474426031           
       1.677962             0.00962491352            0.000495066114           
       1.680603             0.00778168122            0.000446514823           
       1.683243             0.00875272404             0.00049406673           
       1.685884             0.00904839955            0.000506052064           
       1.688524             0.00928043971            0.000502592984           
       1.691164             0.00937105795            0.000505155423           
       1.693805             0.00939065376            0.000511238443           
       1.696445             0.00813727279            0.000478659814           
       1.699085             0.00960273686            0.000502554603           
       1.701726             0.00868506256            0.000460410525           
       1.704366             0.00866982447            0.000484604183           
       1.707007             0.00861889531            0.000472408155           
       1.709647             0.00815365514            0.000464670167           
       1.712287             0.00821309294            0.000470420066           
       1.714928             0.00887456262            0.000492939304           
       1.717568             0.00911001891            0.000470470439           
       1.720209             0.00836745295            0.000472274627           
       1.722849             0.00868521897            0.000478685034           
       1.725489             0.00884725777            0.000483535455           
       1.728130             0.00883484754            0.000513502159           
       1.730770             0.00779499838            0.000458090711           
       1.733410              0.0091485786            0.000488471658           
       1.736051             0.00846403024            0.000473111579           
       1.738691             0.00877512489            0.000471962464           
       1.741332             0.00808917879             0.00046639078           
       1.743972             0.00895634778            0.000506786104           
       1.746612             0.00859192109            0.000476640466           
       1.749253             0.00788038603            0.000465492346           
       1.751893             0.00839234416            0.000476849009           
       1.754533             0.00791258896            0.000462586309           
       1.757174             0.00792375652            0.000458577693           
       1.759814             0.00863853418            0.000471556708           
       1.762455             0.00899014505            0.000489891025           
       1.765095             0.00785236447            0.000437982272           
       1.767735             0.00924669227            0.000489942347           
       1.770376             0.00810930107            0.000460030791           
       1.773016             0.00943595272            0.000492911849           
       1.775657             0.00809552174            0.000449991701           
       1.778297             0.00914263139            0.000474091142           
       1.780937             0.00805227255            0.000469616726           
       1.783578             0.00824563964            0.000463339395           
       1.786218             0.00894740049            0.000503701769           
       1.788858             0.00903096804            0.000480624024           
       1.791499             0.00916124546            0.000478641616           
       1.794139             0.00818139605            0.000448651394           
       1.796780             0.00957409101            0.000482998001           
       1.799420             0.00820951907            0.000444778428           
       1.802060             0.00928008067            0.000476710336           
       1.804701             0.00912532127            0.000453642366           
       1.807341             0.00887886583            0.000470198349           
       1.809981              0.0102056487            0.000505787634           
       1.812622             0.00916353475            0.000470640687           
       1.815262              0.0087420801            0.000469455186           
       1.817903             0.00878600149            0.000463659702           
       1.820543             0.00902898765            0.000477351563           
       1.823183             0.00907137468            0.000478207688           
       1.825824             0.00937258714            0.000464383273           
       1.828464             0.00902296195              0.0004750239           
       1.831105             0.00833151957            0.000443840143           
       1.833745             0.00888189799            0.000468052875           
       1.836385              0.0086244521            0.000474382122           
       1.839026             0.00906897562            0.000484916956           
       1.841666             0.00891855065            0.000479173376           
       1.844306             0.00877072399            0.000462219917           
       1.846947             0.00832218302            0.000454192425           
       1.849587             0.00895464927            0.000520247464           
       1.852228              0.0094839757            0.000484137099           
       1.854868             0.00929364266            0.000506261421           
       1.857508             0.00963806465            0.000510500563           
       1.860149             0.00975411253            0.000522895465           
       1.862789             0.00936833228             0.00049463349           
       1.865429             0.00964548555            0.000523903463           
       1.868070             0.00914177729            0.000503242413           
       1.870710             0.00967311799            0.000505726208           
       1.873351             0.00884439517            0.000489555848           
       1.875991             0.00921389627            0.000507832386           
       1.878631             0.00838482355            0.000475168144           
       1.881272             0.00920339933            0.000494486909           
       1.883912              0.0087448623            0.000501633493           
       1.886553             0.00818676061             0.00047993599           
       1.889193             0.00858002255            0.000490488455           
       1.891833             0.00860959388            0.000510268451           
       1.894474             0.00870070078            0.000508493805           
       1.897114             0.00907085417            0.000502416641           
       1.899754             0.00874768273            0.000495449925           
       1.902395             0.00926818693            0.000500006405           
       1.905035             0.00897939195            0.000521274318           
       1.907676             0.00970004895            0.000510637309           
       1.910316             0.00883244317            0.000500203625           
       1.912956             0.00866893075            0.000484649732           
       1.915597              0.0082356441            0.000475022795           
       1.918237             0.00881477138            0.000507538749           
       1.920878             0.00886688678            0.000506953076           
       1.923518              0.0100138746             0.00053897359           
       1.926158             0.00830712124            0.000484528343           
       1.928799             0.00907516174            0.000500569862           
       1.931439             0.00844559467            0.000495560752           
       1.934079             0.00941592228            0.000545480252           
       1.936720             0.00948682134            0.000507302498           
       1.939360              0.0095336364            0.000542554775           
       1.942001             0.00896039019            0.000482097086           
       1.944641             0.00841597378            0.000476425168           
       1.947281             0.00849939212            0.000474367329           
       1.949922             0.00857480104            0.000492148306           
       1.952562             0.00856440262            0.000507267147           
       1.955202             0.00859253429            0.000507480223           
       1.957843             0.00846520824            0.000490643662           
       1.960483             0.00841321647            0.000511389588           
       1.963124             0.00834314173             0.00049880783           
       1.965764             0.00882214531            0.000483704523           
       1.968404             0.00813877158            0.000460203147           
       1.971045             0.00840977503            0.000476949033           
       1.973685             0.00785862571            0.000483612666           
       1.976326             0.00725916718             0.00045841365           
       1.978966             0.00907796502            0.000517133975           
       1.981606             0.00846631618            0.000509824138           
       1.984247             0.00902822482            0.000523009566           
       1.986887             0.00886737935            0.000512120713           
       1.989527             0.00835660951            0.000491798614           
       1.992168             0.00828788488            0.000508180133           
       1.994808             0.00784843341            0.000492404118           
       1.997449             0.00797275865            0.000486096776           
       2.000089             0.00767765552            0.000475124566           
       2.002729             0.00788210925            0.000481697835           
       2.005370             0.00783431875            0.000475068124           
       2.008010             0.00805804759            0.000502831288           
       2.010650             0.00846432604               0.000519197           
       2.013291             0.00791302304            0.000481645074           
       2.015931              0.0083098565            0.000490085424           
       2.018572             0.00739653452            0.000494547893           
       2.021212             0.00914993137            0.000540168598           
       2.023852             0.00778776828            0.000471656615           
       2.026493             0.00832042522            0.000509301075           
       2.029133             0.00855460191            0.000506026009           
       2.031774              0.0075928377            0.000500320436           
       2.034414             0.00790676605            0.000469784873           
       2.037054             0.00721365879             0.00046009565           
       2.039695             0.00780424461            0.000474944956           
       2.042335             0.00822653488            0.000506749835           
       2.044975             0.00814143605            0.000498008382           
       2.047616             0.00800939723            0.000492726482           
       2.050256             0.00795883511            0.000495816971           
       2.052897             0.00816479723            0.000511449666           
       2.055537             0.00699075082            0.000457379699           
       2.058177             0.00759591021            0.000466882052           
       2.060818             0.00845104422            0.000515891768           
       2.063458             0.00840606029            0.000536177739           
       2.066098             0.00754172193            0.000479086274           
       2.068739             0.00708521102            0.000471578074           
       2.071379              0.0078266238            0.000508564214           
       2.074020             0.00748925232            0.000486670811           
       2.076660              0.0071913365            0.000480748098           
       2.079300             0.00758474596            0.000505820124           
       2.081941             0.00797263393              0.0004748308           
       2.084581             0.00771274109            0.000492951963           
       2.087222              0.0077888443            0.000477744756           
       2.089862             0.00711391786            0.000497281804           
       2.092502             0.00715440651             0.00048341354           
       2.095143             0.00745861165            0.000509699217           
       2.097783             0.00793232555            0.000508904278           
       2.100423             0.00733605655             0.00047158543           
       2.103064             0.00707022218            0.000480385543           
       2.105704             0.00772415793            0.000499623035           
       2.108345             0.00784905241             0.00048386925           
       2.110985              0.0076775772            0.000511130954           
       2.113625             0.00834660885            0.000537586713           
       2.116266             0.00754522798            0.000518379709           
       2.118906             0.00801540238            0.000497925398           
       2.121546             0.00709878482            0.000459643814           
       2.124187             0.00790640403             0.00050919069           
       2.126827              0.0074800244            0.000500798086           
       2.129468              0.0078191464            0.000513332481           
       2.132108              0.0078128828            0.000499233362           
       2.134748             0.00739688322            0.000483875999           
       2.137389             0.00816689482            0.000530427345           
       2.140029             0.00805099038            0.000471489211           
       2.142670             0.00842146815            0.000515353911           
       2.145310             0.00795335055            0.000487462768           
       2.147950             0.00731458066            0.000481162175           
       2.150591             0.00817365818            0.000503493261           
       2.153231              0.0067798485            0.000472015415           
       2.155871             0.00720590127              0.0004701077           
       2.158512             0.00765125155            0.000505454877           
       2.161152             0.00821131296            0.000507218273           
       2.163793             0.00698772376            0.000465797217           
       2.166433             0.00727127235            0.000487932924           
       2.169073              0.0070795278            0.000470737653           
       2.171714             0.00771634933            0.000487779988           
       2.174354             0.00720933325            0.000492655673           
       2.176995             0.00811991568            0.000520643481           
       2.179635             0.00773625387            0.000537016931           
       2.182275             0.00743732052             0.00049713674           
       2.184916             0.00713735592            0.000470386683           
       2.187556             0.00743647424            0.000475329809           
       2.190196             0.00776236951            0.000507480501           
       2.192837             0.00711311346              0.0004831508           
       2.195477             0.00708963714            0.000459866141           
       2.198118             0.00797222356            0.000500146397           
       2.200758             0.00799813645             0.00051395309           
       2.203398             0.00722089349            0.000491466627           
       2.206039             0.00741961839            0.000471488516           
       2.208679              0.0076628006            0.000490304093           
       2.211319             0.00757310433            0.000490236533           
       2.213960             0.00817167043            0.000516064884           
       2.216600              0.0077463789            0.000519779788           
       2.219241             0.00739962944            0.000485523356           
       2.221881             0.00739434013            0.000486347705           
       2.224521              0.0078977238            0.000508788827           
       2.227162             0.00805438962            0.000503522741           
       2.229802             0.00699959477             0.00048408978           
       2.232443             0.00606433185            0.000443482268           
       2.235083             0.00811527556            0.000528155266           
       2.237723             0.00820524579            0.000509643471           
       2.240364              0.0073532695            0.000494345302           
       2.243004             0.00749365723            0.000495058375           
       2.245644              0.0073173308            0.000494095927           
       2.248285             0.00795500309            0.000504854899           
       2.250925             0.00700697479            0.000476696387           
       2.253566             0.00719129927            0.000516284479           
       2.256206             0.00676969097            0.000490905694           
       2.258846             0.00760905128            0.000495091789           
       2.261487             0.00685609455            0.000493264313           
       2.264127             0.00749032345            0.000497933868           
       2.266767             0.00666742148            0.000482302681           
       2.269408             0.00796051336            0.000529158861           
       2.272048             0.00691058966            0.000490086752           
       2.274689             0.00757088656            0.000519725246           
       2.277329             0.00717856624            0.000476507072           
       2.279969             0.00821172387            0.000542487786           
       2.282610             0.00674126738            0.000477852106           
       2.285250             0.00751609739            0.000482939277           
       2.287891             0.00735605242            0.000512241412           
       2.290531             0.00685118407            0.000500996037           
       2.293171             0.00699327905            0.000493050242           
       2.295812             0.00703094467            0.000492389012           
       2.298452             0.00792005775            0.000546496041           
       2.301092              0.0077522987            0.000502355599           
       2.303733              0.0070498636            0.000498385672           
       2.306373             0.00702710339            0.000505416661           
       2.309014              0.0082076275            0.000535567691           
       2.311654             0.00735954539            0.000529228532           
       2.314294             0.00665133922            0.000463527083           
       2.316935             0.00761954612            0.000498167825           
       2.319575             0.00661668851            0.000486403651           
       2.322215             0.00788686331            0.000553435117           
       2.324856             0.00758862837            0.000499113073           
       2.327496             0.00763081315            0.000532186987           
       2.330137             0.00840546435            0.000534487661           
       2.332777             0.00766700108            0.000526348226           
       2.335417             0.00625249685            0.000461132588           
       2.338058             0.00689119618            0.000498574096           
       2.340698             0.00734439817            0.000510662734           
       2.343339             0.00719126548            0.000516430802           
       2.345979             0.00578005996            0.000438029438           
       2.348619             0.00731452602            0.000510765996           
       2.351260             0.00657730368            0.000481520879           
       2.353900             0.00736303621            0.000507857308           
       2.356540             0.00673782659            0.000485127868           
       2.359181             0.00686263096            0.000482736301           
       2.361821             0.00824877218            0.000511239539           
       2.364462             0.00704508364            0.000494142933           
       2.367102             0.00578269342            0.000460070124           
       2.369742             0.00721234464            0.000540813827           
       2.372383             0.00749829606            0.000499319027           
       2.375023             0.00672836026            0.000497214391           
       2.377663             0.00677503073            0.000477055929           
       2.380304             0.00711284763            0.000496954981           
       2.382944             0.00689880274            0.000466157539           
       2.385585             0.00720671565            0.000508138872           
       2.388225             0.00767771024            0.000522016277           
       2.390865             0.00615028396            0.000462414587           
       2.393506             0.00792555507            0.000515023488           
       2.396146             0.00767150875            0.000547869022           
       2.398787             0.00640711143            0.000461423174           
       2.401427             0.00704933725            0.000467168405           
       2.404067               0.007387941            0.000488924463           
       2.406708             0.00764772874            0.000491481212           
       2.409348             0.00757871893            0.000518954593           
       2.411988             0.00712440809            0.000492985204           
       2.414629             0.00721953438            0.000511721114           
       2.417269             0.00739656913            0.000524004525           
       2.419910             0.00728045789            0.000521081694           
       2.422550             0.00727670753            0.000498410414           
       2.425190             0.00717731511            0.000521776231           
       2.427831             0.00682276501            0.000505865757           
       2.430471             0.00640370153            0.000466899776           
       2.433112             0.00657773434            0.000460785653           
       2.435752             0.00762703869            0.000525112752           
       2.438392             0.00811626308            0.000522843745           
       2.441033             0.00688545042            0.000510368122           
       2.443673              0.0075814309            0.000535952994           
       2.446313             0.00739477227            0.000529780853           
       2.448954             0.00721500406            0.000498256369           
       2.451594             0.00686950485            0.000522757345           
       2.454235             0.00752790559            0.000513446907           
       2.456875             0.00735104837            0.000530901036           
       2.459515             0.00706322492             0.00053387566           
       2.462156             0.00852261657            0.000553682938           
       2.464796             0.00799190835            0.000529249356           
       2.467436             0.00680523377            0.000505040819           
       2.470077             0.00773050903             0.00051019263           
       2.472717             0.00747663158            0.000503918536           
       2.475358             0.00774990495            0.000518394639           
       2.477998             0.00875217379            0.000541609505           
       2.480638             0.00613063763             0.00046134985           
       2.483279             0.00854271907            0.000569191177           
       2.485919             0.00799650286            0.000530719333           
       2.488560             0.00783283285            0.000523792294           
       2.491200              0.0071039052            0.000513657972           
       2.493840             0.00785682596            0.000571595025           
       2.496481             0.00630546881            0.000503686962           
       2.499121             0.00784745562            0.000546546828           
       2.501761             0.00667977535            0.000510928668           
       2.504402             0.00780838809             0.00054433745           
       2.507042             0.00695094528            0.000509777023           
       2.509683             0.00758063942            0.000524230708           
       2.512323             0.00736368901            0.000542636872           
       2.514963             0.00685701498            0.000517166319           
       2.517604              0.0075564906            0.000563346025           
       2.520244             0.00741932342            0.000523322534           
       2.522884             0.00800426827            0.000551334199           
       2.525525              0.0079579251            0.000555975433           
       2.528165             0.00698859251            0.000512893945           
       2.530806             0.00822519438             0.00056612253           
       2.533446             0.00815948457            0.000551821518           
       2.536086             0.00807735394            0.000544123176           
       2.538727              0.0068810772            0.000481800289           
       2.541367             0.00686173253            0.000485861859           
       2.544008               0.007072217            0.000509414598           
       2.546648             0.00737361618            0.000529078376           
       2.549288             0.00651561099            0.000507478312           
       2.551929             0.00726709409             0.00052740205           
       2.554569              0.0074196075            0.000513411838           
       2.557209             0.00748034219            0.000520243191           
       2.559850              0.0072393081            0.000513436311           
       2.562490             0.00785151114            0.000552646875           
       2.565131             0.00656132559            0.000523818384           
       2.567771             0.00734222379            0.000534248634           
       2.570411             0.00684790624            0.000510368545           
       2.573052             0.00635353895            0.000497792131           
       2.575692             0.00623831361            0.000490270674           
       2.578332             0.00664059949            0.000507923346           
       2.580973             0.00682605462            0.000510067271           
       2.583613             0.00634721231            0.000480140154           
       2.586254             0.00659720358            0.000488823945           
       2.588894             0.00679524975            0.000515183304           
       2.591534             0.00745549679            0.000558619952           
       2.594175             0.00721506638            0.000539168645           
       2.596815             0.00791015366             0.00056787155           
       2.599456              0.0071092849            0.000510521732           
       2.602096             0.00701454229            0.000510967821           
       2.604736             0.00757198968            0.000543471485           
       2.607377              0.0071652117            0.000514739717           
       2.610017             0.00696186073            0.000498503888           
       2.612657             0.00787784724            0.000564038472           
       2.615298             0.00776874912            0.000546852594           
       2.617938             0.00670006972            0.000543268379           
       2.620579              0.0068582889            0.000527654087           
       2.623219             0.00687236997            0.000527442556           
       2.625859             0.00611236596            0.000483635474           
       2.628500             0.00759980816            0.000535745818           
       2.631140             0.00692744024            0.000519379228           
       2.633780             0.00766335714            0.000545795575           
       2.636421             0.00702354828            0.000535364645           
       2.639061             0.00690168803            0.000499593023           
       2.641702             0.00787515322             0.00054601903           
       2.644342             0.00728562743            0.000527422117           
       2.646982             0.00763719759            0.000531924812           
       2.649623             0.00727615602            0.000544100193           
       2.652263             0.00701770304             0.00052898728           
       2.654904             0.00659684307            0.000513396031           
       2.657544              0.0077936776             0.00052560408           
       2.660184               0.006665739            0.000514418818           
       2.662825             0.00667963008            0.000526901413           
       2.665465             0.00724199561            0.000530618914           
       2.668105              0.0065220714            0.000530765614           
       2.670746             0.00721463642            0.000515690294           
       2.673386              0.0113748013            0.000667321971           
       2.676027              0.0115859122            0.000662677116           
       2.678667             0.00953593376            0.000586620232           
       2.681307              0.0112808175             0.00062690742           
       2.683948              0.0149059613            0.000740415254           
       2.686588               0.011067765            0.000627426382           
       2.689229              0.0110500908             0.00061260539           
       2.691869              0.0104869691            0.000630749643           
       2.694509             0.00914000848            0.000589174435           
       2.697150             0.00823913322            0.000550310221           
       2.699790              0.0078323053            0.000562497436           
       2.702430             0.00723454895            0.000516755077           
       2.705071              0.0070874582            0.000528512722           
       2.707711             0.00728594085            0.000520094289           
       2.710352             0.00628686166            0.000510478157           
       2.712992              0.0075639889            0.000570285636           
       2.715632             0.00637152271            0.000485616828           
       2.718273             0.00722888881            0.000536069124           
       2.720913             0.00615797192            0.000493362803           
       2.723553             0.00725637754            0.000539152544           
       2.726194             0.00722111746            0.000562221156           
       2.728834             0.00858869449            0.000613440248           
       2.731475             0.00797824311             0.00054566081           
       2.734115              0.0072867346            0.000537661817           
       2.736755             0.00717987573            0.000538097711           
       2.739396             0.00651769132            0.000509713366           
       2.742036             0.00642312406            0.000529563281           
       2.744677             0.00723183307            0.000545210291           
       2.747317             0.00801001201             0.00056970299           
       2.749957             0.00668475259            0.000524097085           
       2.752598             0.00591765096            0.000498461431           
       2.755238             0.00724338022            0.000561432565           
       2.757878             0.00838947042            0.000598935966           
       2.760519             0.00814904336            0.000584032374           
       2.763159             0.00783005645            0.000566766553           
       2.765800             0.00845494955            0.000561258678           
       2.768440             0.00739890682            0.000528906628           
       2.771080             0.00798249205            0.000553955058           
       2.773721               0.007719276            0.000558797766           
       2.776361             0.00736142131            0.000553219886           
       2.779001             0.00725553767            0.000568780034           
       2.781642             0.00720075424            0.000562452884           
       2.784282             0.00684013939            0.000557202506           
       2.786923             0.00735444939            0.000582858054           
       2.789563             0.00615544953            0.000513566705           
       2.792203             0.00753750583            0.000542892718           
       2.794844             0.00646819356            0.000551182945           
       2.797484             0.00639156072            0.000517091577           
       2.800125             0.00697597548            0.000568036051           
       2.802765             0.00700966373            0.000559610265           
       2.805405             0.00705921097            0.000563485308           
       2.808046             0.00776676299            0.000601440821           
       2.810686             0.00736314626            0.000538102663           
       2.813326             0.00585167518            0.000498280287           
       2.815967             0.00690293047            0.000556578344           
       2.818607             0.00682009183            0.000527931798           
       2.821248             0.00708803976            0.000527028998           
       2.823888              0.0068774081            0.000538879664           
       2.826528             0.00687182621              0.0005216665           
       2.829169             0.00729125302            0.000562844909           
       2.831809             0.00660393443            0.000542945913           
       2.834449             0.00772639919            0.000590989467           
       2.837090             0.00664658113            0.000529414879           
       2.839730             0.00654885068             0.00052294248           
       2.842371             0.00778675195            0.000571052307           
       2.845011              0.0072674241            0.000556078374           
       2.847651             0.00615506939            0.000512383673           
       2.850292             0.00733997251            0.000565024745           
       2.852932             0.00749767908            0.000583507904           
       2.855573             0.00537742264            0.000479352243           
       2.858213             0.00594269592            0.000529174479           
       2.860853             0.00810859941            0.000575003221           
       2.863494             0.00685613987            0.000547430224           
       2.866134             0.00745175018            0.000593185851           
       2.868774             0.00647532523            0.000543444729           
       2.871415             0.00732453501            0.000586985321           
       2.874055             0.00695742289            0.000546843196           
       2.876696             0.00698767998            0.000562854455           
       2.879336             0.00788342535            0.000576205625           
       2.881976             0.00734689815            0.000573736169           
       2.884617             0.00768030054            0.000577994559           
       2.887257             0.00724331038            0.000564207769           
       2.889897             0.00707575134            0.000546166837           
       2.892538             0.00727668213            0.000606763678           
       2.895178              0.0067825108            0.000529229747           
       2.897819             0.00699538506            0.000548271499           
       2.900459             0.00660404159            0.000522351808           
       2.903099              0.0063899367            0.000508555172           
       2.905740             0.00736876497            0.000560248133           
       2.908380             0.00832320348             0.00060219215           
       2.911021              0.0076162384            0.000585415532           
       2.913661             0.00624697578             0.00053002793           
       2.916301             0.00752196582            0.000582161506           
       2.918942             0.00668036802            0.000524776214           
       2.921582             0.00577080634            0.000510321049           
       2.924222             0.00686416409            0.000539208376           
       2.926863             0.00731384452            0.000579753081           
       2.929503             0.00700994577            0.000574304958           
       2.932144             0.00801742681            0.000589584835           
       2.934784             0.00700275806             0.00054197986           
       2.937424             0.00676352451            0.000538110176           
       2.940065             0.00690918159            0.000518804025           
       2.942705             0.00680873876            0.000514373003           
       2.945346             0.00762771614            0.000577778072           
       2.947986             0.00650967119            0.000544247097           
       2.950626             0.00752129257            0.000581715577           
       2.953267             0.00613706532            0.000516976118           
       2.955907              0.0075865554            0.000596270054           
       2.958547             0.00664361924            0.000526767103           
       2.961188             0.00604516821            0.000524228981           
       2.963828               0.006744331            0.000541635606           
       2.966469             0.00700063367            0.000541344736           
       2.969109             0.00702561605            0.000550344943           
       2.971749             0.00629282377            0.000517604204           
       2.974390             0.00778241796            0.000565647312           
       2.977030             0.00735622306            0.000562230941           
       2.979670             0.00811674088            0.000574451974           
       2.982311              0.0089012107            0.000623498838           
       2.984951             0.00739018424            0.000540330438           
       2.987592             0.00761492918            0.000559470674           
       2.990232             0.00836530871            0.000609837631           
       2.992872             0.00720849182            0.000533237011           
       2.995513             0.00906886577            0.000585139697           
       2.998153              0.0109964275            0.000655156364           
       3.000794              0.0124649144            0.000675630886           
       3.003434              0.0117395164            0.000656666991           
       3.006074              0.0494307805             0.00132858308           
       3.008715               0.127108162             0.00205657766           
       3.011355               0.184603917              0.0023900192           
       3.013995              0.0932395818             0.00170318214           
       3.016636               0.063125076             0.00137230194           
       3.019276               0.128801769             0.00192687774           
       3.021917                  0.507654             0.00367831014           
       3.024557                1.68975295             0.00659790446           
       3.027197                1.12412912             0.00524666922           
       3.029838               0.514197924             0.00359880026           
       3.032478               0.258649416             0.00255499287           
       3.035118              0.0713102349             0.00135955775           
       3.037759              0.0960527512             0.00157585384           
       3.040399                 0.1395706             0.00195946612           
       3.043040               0.556470502             0.00396052542           
       3.045680               0.378708935             0.00307403398           
       3.048320              0.0845986835             0.00148451591           
       3.050961               0.109912361             0.00172191638           
       3.053601              0.0873843082              0.0014787218           
       3.056242              0.0640865244             0.00134639709           
       3.058882              0.0591443167             0.00138747714           
       3.061522              0.0450859132             0.00118853381           
       3.064163              0.0557451847             0.00130494213           
       3.066803               0.115907154             0.00198098984           
       3.069443               0.113326944             0.00204942367           
       3.072084              0.0397693673             0.00118216863           
       3.074724              0.0413528806             0.00134623957           
       3.077365               0.079566346              0.0019330708           
       3.080005              0.0143766729             0.00082635418           
       3.082645               0.012386572            0.000805783399           
       3.085286              0.0137249798            0.000854892674           
       3.087926             0.00985497289            0.000718825231           
       3.090566              0.0109518272            0.000742470877           
       3.093207              0.0116595701            0.000797191528           
       3.095847             0.00956518771             0.00069207526           
       3.098488             0.00849237765            0.000723078989           
       3.101128              0.0105962899            0.000812890502           
       3.103768             0.00898876352            0.000734609694           
       3.106409             0.00875963091            0.000771793273           
       3.109049             0.00726270469            0.000674404348           
       3.111690             0.00816997164            0.000703009565           
       3.114330             0.00836659585             0.00072655305           
       3.116970             0.00877867441            0.000749943954           
       3.119611              0.0110125191            0.000894080101           
       3.122251              0.0212517171             0.00129919915           
       3.124891              0.0323378052             0.00161756071           
       3.127532               0.024533669             0.00137833463           
       3.130172              0.0115590601            0.000962442789           
       3.132813             0.00844032809              0.0008096435           
       3.135453             0.00754966585            0.000759426681           
       3.138093             0.00725899613            0.000806869624           
       3.140734             0.00641994458              0.0007000569           
       3.143374             0.00879726918            0.000866642486           
       3.146014             0.00640407356            0.000796024843           
       3.148655              0.0076904622             0.00081090008           
       3.151295             0.00601677715            0.000764346441           
       3.153936              0.0055961679            0.000712061034           
       3.156576             0.00661061281             0.00076338721           
       3.159216             0.00558534011            0.000705205466           
       3.161857             0.00597986534            0.000726717252           
       3.164497             0.00631114567            0.000784435977           
       3.167138              0.0094977237            0.000994296897           
       3.169778             0.00713288457            0.000847455905           
       3.172418             0.00561779536            0.000744436008           
       3.175059             0.00611378615            0.000688492183           
       3.177699             0.00686846993            0.000772760729           
       3.180339             0.00508395866            0.000712322715           
       3.182980             0.00670399447            0.000845708061           
       3.185620             0.00530024298            0.000765819233           
       3.188261               0.006993688            0.000895392213           
       3.190901              0.0077515005            0.000866969614           
       3.193541             0.00468817213            0.000708460774           
       3.196182             0.00616880335            0.000846919245           
       3.198822             0.00568301171             0.00081316065           
       3.201463              0.0057409546            0.000803214699           
       3.204103             0.00498755905            0.000744103327           
       3.206743             0.00622035724            0.000830914083           
       3.209384             0.00711123852            0.000959868037           
       3.212024             0.00730568618            0.000907050462           
       3.214664             0.00670778638            0.000988337871           
       3.217305             0.00575780724            0.000870418402           
       3.219945             0.00500856752             0.00083556563           
       3.222586             0.00568576345            0.000847960464           
       3.225226             0.00418823646            0.000807352394           
       3.227866             0.00557660441            0.000851478882           
       3.230507             0.00641754453            0.000946865886           
       3.233147             0.00569037947            0.000898809019           
       3.235787             0.00561071089            0.000913357033           
       3.238428             0.00777233694             0.00116005831           
       3.241068             0.00574596459            0.000932653172           
       3.243709             0.00631044108             0.00100980071           
       3.246349             0.00375351772            0.000709947354           
       3.248989             0.00503574209            0.000970971875           
       3.251630              0.0058947126             0.00101162654           
       3.254270             0.00471147423             0.00080830093           
       3.256911             0.00542199593            0.000946113384           
       3.259551             0.00690117979             0.00114914618           
       3.262191             0.00775995873             0.00124468784           
       3.264832             0.00500460784             0.00104440704           
       3.267472             0.00727497253             0.00118128057           
       3.270112             0.00560964307             0.00114635032           
       3.272753              0.0058704972             0.00107340094           
       3.275393             0.00509238496             0.00102007855           
       3.278034             0.00571992705             0.00108171459           
       3.280674              0.0048052968              0.0010758776           
       3.283314             0.00599508278             0.00107475621           
       3.285955             0.00800559236             0.00128143444           
       3.288595             0.00407631059             0.00101729738           
       3.291235             0.00801210129             0.00146614529           
       3.293876             0.00937913577             0.00160909456           
       3.296516             0.00766045209             0.00139607495           
       3.299157             0.00642711365             0.00126269359           
       3.301797             0.00871769733             0.00167747686           
       3.304437             0.00532166099             0.00113550259           
       3.307078             0.00584546976             0.00131094062           
       3.309718             0.00564172041             0.00132933485           
       3.312359             0.00534941538             0.00129474704           
       3.314999             0.00485402005             0.00121432342           
       3.317639             0.00529296348             0.00121272468           
       3.320280             0.00784510894             0.00156974759           
       3.322920             0.00679776917             0.00148580668           
       3.325560             0.00353151352             0.00107165375           
       3.328201             0.00733410561             0.00139087939           
       3.330841             0.00705052428              0.0016597378           
       3.333482             0.00455338137             0.00126076195           
       3.336122             0.00379554298             0.00115160258           
       3.338762             0.00371516718             0.00131611872           
       3.341403              0.0042115452             0.00133898433           
       3.344043             0.00624504296             0.00156542051           
       3.346683             0.00778278938             0.00178411157           
       3.349324             0.00465641121             0.00155157743           
       3.351964             0.00690213553             0.00199758188           
       3.354605             0.00302237594             0.00151175461           
       3.357245             0.00237457765              0.0012088099           
       3.359885             0.00395415689             0.00124846778           
       3.362526             0.00424845017             0.00161831809           
       3.365166             0.00658474236             0.00190028548           
       3.367807             0.00447031775             0.00200382438           
       3.370447             0.00245676534             0.00123224176           
       3.373087             0.00419492614             0.00172188245           
       3.375728             0.00268462175             0.00155461238           
       3.378368             0.00375922503             0.00273023248           
       3.381008             0.00658842228             0.00269475519           
       3.383649             0.00487986611             0.00186044577           
       3.386289             0.00297874679              0.0017203246           
       3.388930             0.00500927624              0.0035287786           
       3.391570             0.00493326549             0.00247723183           
       3.394210             0.00602932868             0.00346580286           
       3.396851           -2.66350033e-05                         0           
       3.399491              0.0124359674             0.00556935691           
       3.402131             0.00988734625             0.00702589449           
       3.404772           -2.66851397e-05                         0           
       3.407412                       nan                       nan           
       3.410053           -2.67508653e-05                         0           
       3.412693                       nan                       nan           
       3.415333              0.0181893674              0.0135094937           
