################################################################################
# EDF_DataBlockID                     0.Image.Psd
# EDF_BinarySize                      2105344
# EDF_HeaderSize                      2560
# ByteOrder                           LowByteFirst
# DataType                            FloatValue
# Dim_1                               512
# Dim_2                               1028
# Image                               0
# HeaderID                            EH:000000:000000:000000
# Size                                2105344
# Center_1                            304.9000
# Center_2                            588.7000
# Comment                             Xenocs_Cell_Window - 20251028_20perc_iodine_1.23mg
# DDummy                              0.6
# Date                                2025-10-28T17:29:26
# Delta                               21.910000
# Dummy                               -1.5
# ExposureTime                        360
# Gamma                               15.360000
# Intensity1                          8.49791e-10
# PSize_1                             7.5e-05
# PSize_2                             7.5e-05
# Pressure                            0.0361099
# SampleDistance                      0.115750
# SampleEnvKind                       large
# SampleEnvPN                         ElectroChemical cell
# SampleEnvSN                         1141
# Thickness                           0
# Wavelength                          1.541891e-10
# Wavelength                          1.54189e-10
# aux                                 0
# aux_dial                            0.002375
# beamx                               588.434
# beamx_dial                          588.434
# beamz                               657.808
# beamz_dial                          657.808
# det0x                               0
# det0x_dial                          6.36945
# det0xvd                             0
# det0xvd_dial                        0
# det0y                               450.002
# det0y_dial                          481.635
# det0z                               0
# det0z_dial                          1.23302
# det0zvd                             0
# det0zvd_dial                        0
# mag                                 1.818
# mag_dial                            1.818
# om                                  0.2499
# om_dial                             -0.610199
# phi                                 -0.0120535
# phi_dial                            0
# ry                                  0.599993
# ry_dial                             0.599993
# s1bot                               0.8
# s1bot_dial                          -1.66094
# s1hl                                0.8
# s1hl_dial                           -0.608437
# s1hr                                0.8
# s1hr_dial                           0.970938
# s1top                               0.8
# s1top_dial                          -0.461562
# s2bot                               0.45
# s2bot_dial                          1.36109
# s2hl                                0.45
# s2hl_dial                           -0.83375
# s2hr                                0.45
# s2hr_dial                           -0.118594
# s2top                               0.45
# s2top_dial                          1.44734
# w2theta                             32
# w2theta_dial                        32
# waxsch                              19.2605
# waxsch_dial                         -32.7355
# waxsh                               137.085
# waxsh_dial                          -43.5338
# waxsth                              26.0607
# waxsth_dial                         -19.4086
# waxsz                               67.0407
# waxsz_dial                          -23.7954
# wind                                65.9854
# wind_dial                           66.0041
# wpsi                                124
# wpsi_dial                           124
# wstod                               115
# wstod_dial                          115
# x                                   0
# x_dial                              1.00969
# z                                   0
# z_dial                              13.3172
# CountCutoff                         6807993
# DetectorModel                       Dectris EIGER2 Si 500K, S/N E-01-0554
# ThresholdSetting                    4023.88989258
# Saturation                          0
# FlatField                           Corrected
# BackgroundReductionExtra            0.02
# BackgroundCorrectionConstant        0.0026712
# Detector                            0
# Monitor                             0
# Pil_Roi0                            0
# SumForIntensity1                    3.05925e+08
# TransmittedFlux                     849791
# det                                 0
# mon                                 0
# pilai0                              3.05925e+08
# pilai1                              806024
# pilct0                              5.30078e+08
# pilct1                              806024
# pilroi0                             0
# pilroi1                             0
# sec                                 1
# title                               20251028_20perc_iodine_1.23mg_1_00028.edf
# usaxs0                              0
# Operation                           Azimuthal average I(q)
# Error_model                         ErrorModel.poisson
# Geometrical_correction              True
# Transmission_correction             True
# Thickness_correction                False
# Binning mode                        Uniform
# Binning factor                      1.0
# Psi                                 0.0
# Omega                               0.2499
# MaskInvalidPixels                   True
# DetectorEdge                        3
# MaskFiles                           ['WAXS_corrected.edf']
################################################################################
    q(A⁻¹)                Intensity(a.u.)            Sigma_I(a.u.)            
       0.693100             0.00832724224             0.00610251146           
       0.695741             0.00561914101             0.00409072881           
       0.698381             0.00851930096             0.00616993461           
       0.701021             0.00887025088             0.00890017851           
       0.703662             0.00862550417             0.00506596836           
       0.706302             0.00342337525             0.00247089697           
       0.708942              0.0115377092             0.00585474836           
       0.711583             0.00672120777              0.0038695271           
       0.714223              0.0118458942              0.0059308655           
       0.716864             0.00758189024             0.00310451442           
       0.719504             0.00594120867             0.00296558375           
       0.722144              0.0101830041             0.00359548571           
       0.724785             0.00398754584             0.00179474957           
       0.727425             0.00587669514             0.00294752597           
       0.730065             0.00589275793             0.00208781291           
       0.732706             0.00614031335             0.00178968372           
       0.735346               0.011463318             0.00318757421           
       0.737987             0.00793243179             0.00187372295           
       0.740627                0.00885823             0.00295435149           
       0.743267             0.00659040586             0.00170681687           
       0.745908             0.00572180695             0.00172546507           
       0.748548             0.00966575523             0.00206714957           
       0.751189             0.00888307878             0.00267025225           
       0.753829             0.00680901705              0.0021490071           
       0.756469             0.00876590359             0.00196619837           
       0.759110             0.00633376575             0.00176128858           
       0.761750             0.00613137151             0.00153228306           
       0.764390             0.00795652339             0.00182695278           
       0.767031              0.0087970473              0.0016635401           
       0.769671              0.0117867442             0.00240201868           
       0.772312             0.00510163743             0.00120305532           
       0.774952             0.00670411319              0.0018623495           
       0.777592             0.00932037317             0.00159942677           
       0.780233              0.0083764799             0.00182937296           
       0.782873              0.0105840874             0.00196671224           
       0.785513              0.0100585402              0.0020496767           
       0.788154              0.0108014138             0.00177681437           
       0.790794             0.00708863779             0.00172084671           
       0.793435             0.00737070041             0.00157639624           
       0.796075              0.0056168586             0.00132563487           
       0.798715             0.00566825603             0.00157367356           
       0.801356             0.00993508143             0.00179312905           
       0.803996             0.00669750738             0.00150098084           
       0.806637             0.00741743007             0.00125706431           
       0.809277             0.00673556071             0.00129657899           
       0.811917             0.00743400106              0.0012733889           
       0.814558             0.00680945641             0.00126664767           
       0.817198             0.00721300694             0.00123851942           
       0.819838             0.00759688169             0.00128639558           
       0.822479             0.00962258663             0.00170008984           
       0.825119             0.00694933334             0.00122967757           
       0.827760             0.00581986043             0.00113990538           
       0.830400             0.00706142582             0.00118177262           
       0.833040             0.00693013088             0.00122656933           
       0.835681              0.0125833197             0.00187894508           
       0.838321             0.00393990955            0.000882456516           
       0.840961             0.00655262707             0.00123994924           
       0.843602             0.00765665235             0.00122914841           
       0.846242             0.00746438599             0.00121343669           
       0.848883             0.00663032388             0.00117034586           
       0.851523             0.00602636212             0.00110190952           
       0.854163             0.00865775209             0.00140455927           
       0.856804             0.00733976924             0.00116279896           
       0.859444             0.00831624432             0.00121273942           
       0.862085             0.00845913877             0.00127479099           
       0.864725             0.00685606588             0.00117451198           
       0.867365             0.00727718746             0.00112206403           
       0.870006             0.00612038835            0.000980580456           
       0.872646             0.00570486459            0.000992755192           
       0.875286             0.00670026243             0.00103506688           
       0.877927             0.00874105536              0.0011408033           
       0.880567             0.00720035745             0.00107268976           
       0.883208             0.00594107416            0.000965203204           
       0.885848             0.00912177084             0.00124179264           
       0.888488             0.00563620875            0.000915539948           
       0.891129              0.0065680526             0.00101480888           
       0.893769             0.00687017678            0.000993284467           
       0.896410             0.00882770795             0.00104976679           
       0.899050             0.00769679659             0.00107797625           
       0.901690             0.00806154479             0.00120173045           
       0.904331             0.00732785503             0.00101576227           
       0.906971             0.00766124926             0.00110491235           
       0.909611             0.00723890753            0.000977706858           
       0.912252             0.00688156864            0.000984627668           
       0.914892             0.00891854645             0.00122492869           
       0.917533             0.00854468548             0.00113423035           
       0.920173             0.00647911589            0.000916361968           
       0.922813              0.0085595291             0.00110527397           
       0.925454             0.00798408377            0.000961231461           
       0.928094             0.00696050872            0.000958160165           
       0.930734             0.00840972098             0.00113387991           
       0.933375             0.00687839106             0.00101538136           
       0.936015             0.00814815832             0.00100369929           
       0.938656             0.00770570113             0.00104709007           
       0.941296             0.00760207753            0.000942549749           
       0.943936             0.00650333255            0.000854913873           
       0.946577             0.00874954368            0.000985068339           
       0.949217             0.00694277012            0.000806927692           
       0.951858             0.00718162133            0.000859099304           
       0.954498             0.00659630719            0.000953008833           
       0.957138             0.00691911235            0.000924672967           
       0.959779             0.00889395684             0.00103346757           
       0.962419             0.00519287127            0.000784430896           
       0.965059             0.00821740281             0.00103782926           
       0.967700             0.00576511456            0.000890321177           
       0.970340             0.00720452909            0.000880724816           
       0.972981             0.00595402384             0.00072946899           
       0.975621             0.00850751937             0.00092762899           
       0.978261             0.00702303415            0.000800827945           
       0.980902             0.00730831527            0.000977417393           
       0.983542             0.00819908636            0.000916800167           
       0.986182             0.00712376039            0.000839009572           
       0.988823             0.00717899512            0.000817831997           
       0.991463             0.00783718859            0.000911663081           
       0.994104             0.00875721212            0.000940094005           
       0.996744             0.00640847165            0.000820280428           
       0.999384              0.0067038162            0.000750319371           
       1.002025             0.00838384245            0.000936531238           
       1.004665             0.00725923896             0.00079640442           
       1.007306             0.00725433368            0.000792060236           
       1.009946             0.00666342783            0.000774192385           
       1.012586             0.00647849179              0.0007434807           
       1.015227             0.00855346467            0.000917771641           
       1.017867               0.007932035            0.000849396663           
       1.020507             0.00700441258            0.000773151601           
       1.023148             0.00774720627            0.000877372078           
       1.025788             0.00851662651            0.000843484368           
       1.028429              0.0089912671              0.0009079792           
       1.031069             0.00780858373            0.000796267426           
       1.033709             0.00796539012            0.000854890736           
       1.036350             0.00918484493            0.000824490103           
       1.038990             0.00876041707            0.000820012067           
       1.041630              0.0091973316            0.000876349394           
       1.044271             0.00908967134            0.000819336846           
       1.046911              0.0070410739            0.000758524704           
       1.049552             0.00768061591            0.000832332417           
       1.052192             0.00761659918            0.000756851032           
       1.054832             0.00818528343              0.0007917345           
       1.057473             0.00783727864            0.000763711384           
       1.060113             0.00598803493            0.000651050241           
       1.062754             0.00901115738            0.000815419084           
       1.065394             0.00790364202            0.000807393782           
       1.068034             0.00772476985            0.000726257267           
       1.070675             0.00795077102            0.000768577741           
       1.073315              0.0084747461            0.000804873029           
       1.075955             0.00885909032            0.000776885267           
       1.078596             0.00745761249            0.000757555457           
       1.081236             0.00923381135            0.000807185601           
       1.083877             0.00992633948             0.00082939993           
       1.086517             0.00858100675            0.000826897887           
       1.089157             0.00668698549             0.00075741334           
       1.091798             0.00927790772             0.00078217144           
       1.094438             0.00889875645            0.000763550227           
       1.097078             0.00820008496            0.000702988547           
       1.099719             0.00796595135            0.000749455436           
       1.102359             0.00798018656            0.000702500827           
       1.105000             0.00803194202            0.000788075996           
       1.107640             0.00826233311            0.000764259638           
       1.110280             0.00875510154             0.00071782196           
       1.112921              0.0077351932            0.000724792076           
       1.115561             0.00785988232            0.000694384056           
       1.118202             0.00818624698            0.000709321575           
       1.120842             0.00745917436            0.000711625528           
       1.123482              0.0101609926            0.000826938512           
       1.126123             0.00945723779            0.000765212019           
       1.128763             0.00854185947            0.000732222952           
       1.131403             0.00901653008            0.000724898445           
       1.134044             0.00957852924            0.000768817513           
       1.136684              0.0097331836            0.000826283636           
       1.139325              0.0107014321            0.000798134423           
       1.141965             0.00904269394             0.00073852573           
       1.144605               0.007998193            0.000662269415           
       1.147246             0.00899716416            0.000718857359           
       1.149886             0.00976140619            0.000746107883           
       1.152527             0.00948924396            0.000746330643           
       1.155167             0.00876746141            0.000682342568           
       1.157807             0.00971417256            0.000770079212           
       1.160448             0.00908809438            0.000727365237           
       1.163088             0.00968547285            0.000716238926           
       1.165728             0.00848162344            0.000688158625           
       1.168369             0.00765798545            0.000659933507           
       1.171009             0.00887880867            0.000689610175           
       1.173650             0.00837807129              0.0006874587           
       1.176290             0.00981362581            0.000727082352           
       1.178930              0.0100784117            0.000722156499           
       1.181571             0.00942163543            0.000712076021           
       1.184211              0.0101828025            0.000742906187           
       1.186851             0.00827995957            0.000654958279           
       1.189492              0.0100312528            0.000716053576           
       1.192132               0.009685359            0.000695705534           
       1.194773             0.00989088676             0.00070612018           
       1.197413             0.00893857157            0.000643168486           
       1.200053             0.00938700848            0.000675851377           
       1.202694             0.00968472443            0.000652808222           
       1.205334             0.00912919989             0.00068304763           
       1.207975              0.0102276144            0.000690097683           
       1.210615              0.0102394881            0.000761736778           
       1.213255              0.0100874495            0.000677034681           
       1.215896             0.00960660615            0.000672672635           
       1.218536              0.0109057717              0.0006891529           
       1.221176              0.0108104484            0.000745968945           
       1.223817             0.00924398072            0.000647534749           
       1.226457             0.00941814713            0.000666774142           
       1.229098             0.00962288517            0.000673949735           
       1.231738             0.00971234516            0.000680407524           
       1.234378              0.0103651466            0.000660482072           
       1.237019              0.0101386177            0.000673142001           
       1.239659             0.00973664141            0.000653916334           
       1.242299              0.0107247763            0.000677576912           
       1.244940              0.0104406983            0.000650199838           
       1.247580             0.00967327658            0.000644987567           
       1.250221             0.00975619911            0.000643749363           
       1.252861              0.0106907331            0.000641533543           
       1.255501              0.0112051633            0.000713145429           
       1.258142              0.0103316367            0.000643477381           
       1.260782             0.00940781374             0.00062732096           
       1.263423             0.00980840558            0.000615484217           
       1.266063              0.0120433209            0.000699040862           
       1.268703              0.0101998709            0.000637981281           
       1.271344              0.0110913117               0.000687823           
       1.273984              0.0105385354             0.00064753582           
       1.276624              0.0118289728            0.000673148192           
       1.279265             0.00997042563            0.000628270873           
       1.281905              0.0107327203            0.000654738958           
       1.284546              0.0111547738            0.000645187978           
       1.287186              0.0111542637            0.000632983394           
       1.289826              0.0102125042            0.000638329419           
       1.292467              0.0109571596            0.000646628908           
       1.295107             0.00982803096            0.000606322527           
       1.297747              0.0108286223            0.000609019633           
       1.300388              0.0108496173            0.000664551578           
       1.303028              0.0106787473            0.000629405269           
       1.305669              0.0113918004            0.000665558385           
       1.308309              0.0111079156             0.00065074117           
       1.310949             0.00968130175            0.000606907081           
       1.313590             0.00930375503            0.000576357829           
       1.316230              0.0100613137            0.000639604254           
       1.318871              0.0114404574            0.000667968047           
       1.321511              0.0108544091            0.000638574809           
       1.324151              0.0114047242            0.000635157075           
       1.326792              0.0110982786            0.000630439292           
       1.329432              0.0116971702            0.000642658523           
       1.332072              0.0107179983            0.000606004261           
       1.334713              0.0108941092            0.000630574144           
       1.337353              0.0115029323            0.000621401386           
       1.339994              0.0113990322            0.000649147134           
       1.342634              0.0107718799            0.000605124963           
       1.345274              0.0102122424            0.000609762611           
       1.347915               0.011065588            0.000617199816           
       1.350555              0.0114226069            0.000638059944           
       1.353195              0.0103403104            0.000610061292           
       1.355836              0.0110216775            0.000620019245           
       1.358476              0.0113708646            0.000611596789           
       1.361117              0.0104818114            0.000588006782           
       1.363757              0.0122819565            0.000655934536           
       1.366397              0.0115662459            0.000617273595           
       1.369038              0.0118217022            0.000630266866           
       1.371678              0.0122660696            0.000636343249           
       1.374319              0.0117731106            0.000618056957           
       1.376959              0.0103961055            0.000574948063           
       1.379599              0.0116398326            0.000651986691           
       1.382240              0.0119996034            0.000622167473           
       1.384880              0.0110668732            0.000632885954           
       1.387520              0.0108015488             0.00059382237           
       1.390161              0.0106984123            0.000561289574           
       1.392801              0.0116050452            0.000609085197           
       1.395442              0.0093675406             0.00055470074           
       1.398082              0.0115332498            0.000576380629           
       1.400722              0.0119410681            0.000614327035           
       1.403363              0.0110142552            0.000621051827           
       1.406003              0.0107010796            0.000572898383           
       1.408644              0.0115918753            0.000624628273           
       1.411284              0.0116769645            0.000593634395           
       1.413924              0.0111974436            0.000579162566           
       1.416565              0.0114008245             0.00058210302           
       1.419205               0.011357021            0.000606058692           
       1.421845              0.0114878712            0.000609182142           
       1.424486              0.0113630875            0.000582375123           
       1.427126              0.0124502004            0.000633253379           
       1.429767              0.0117658891            0.000579208918           
       1.432407              0.0115132337            0.000599612187           
       1.435047              0.0117284466            0.000568374245           
       1.437688              0.0100793526            0.000534780866           
       1.440328               0.010459882            0.000556011418           
       1.442968              0.0111195386            0.000586120493           
       1.445609               0.012244344            0.000595540145           
       1.448249              0.0100388878            0.000552898265           
       1.450890               0.010089792            0.000550680399           
       1.453530              0.0106820325            0.000592789693           
       1.456170              0.0110729387            0.000585748496           
       1.458811               0.011138976            0.000561772874           
       1.461451              0.0112329218            0.000565616758           
       1.464092               0.010586505            0.000552690887           
       1.466732              0.0116652372            0.000575181167           
       1.469372              0.0102244243            0.000525887269           
       1.472013                0.01237258            0.000623923806           
       1.474653              0.0107045862            0.000571392593           
       1.477293               0.010525472            0.000578533894           
       1.479934              0.0108458548            0.000560380965           
       1.482574              0.0111290261            0.000549111953           
       1.485215              0.0109562054            0.000554979356           
       1.487855              0.0118053069            0.000583682924           
       1.490495              0.0111302462            0.000564661676           
       1.493136               0.012172983            0.000582425575           
       1.495776              0.0111703147            0.000555383063           
       1.498416              0.0108887562               0.000566279           
       1.501057              0.0103847528            0.000540830469           
       1.503697              0.0109318152            0.000542496371           
       1.506338              0.0112946645            0.000561502647           
       1.508978              0.0113863894            0.000558233678           
       1.511618              0.0117898173            0.000604956536           
       1.514259              0.0102967452            0.000545822992           
       1.516899             0.00957713303            0.000512543495           
       1.519540              0.0112946141            0.000565582703           
       1.522180              0.0106574917            0.000554225263           
       1.524820              0.0107592486            0.000553740555           
       1.527461              0.0107623613            0.000556559667           
       1.530101                0.01054458            0.000545390178           
       1.532741              0.0101317381            0.000531504482           
       1.535382               0.010017809            0.000537016038           
       1.538022               0.011251142            0.000536135411           
       1.540663              0.0112544952            0.000576732665           
       1.543303              0.0108415251            0.000525589003           
       1.545943              0.0097661295            0.000527986582           
       1.548584              0.0104621224            0.000556286161           
       1.551224              0.0107709836            0.000521876027           
       1.553864              0.0104808599            0.000543981875           
       1.556505              0.0105604197            0.000527491331           
       1.559145              0.0112152253            0.000550258149           
       1.561786              0.0105443993            0.000533958801           
       1.564426              0.0112729863             0.00053492565           
       1.567066              0.0100066287            0.000528079775           
       1.569707              0.0104695602            0.000530453903           
       1.572347              0.0102959245            0.000543448578           
       1.574988             0.00979370639            0.000504498379           
       1.577628             0.00860382098            0.000493075638           
       1.580268              0.0101483974            0.000518850976           
       1.582909              0.0098853488            0.000542787047           
       1.585549              0.0102272038            0.000536064276           
       1.588189              0.0102374302            0.000524626564           
       1.590830             0.00928856311            0.000499095483           
       1.593470             0.00998917988            0.000538070076           
       1.596111             0.00971668819            0.000518108939           
       1.598751              0.0102410998            0.000515399515           
       1.601391             0.00957432511            0.000509333633           
       1.604032             0.00930619192            0.000512648479           
       1.606672             0.00833573643            0.000471401435           
       1.609312             0.00925222808            0.000518434535           
       1.611953              0.0100138011            0.000527787058           
       1.614593             0.00977594931            0.000511531839           
       1.617234             0.00977970293            0.000530241467           
       1.619874             0.00998506145              0.0005336632           
       1.622514               0.008673869            0.000490606297           
       1.625155             0.00937534227            0.000513071982           
       1.627795              0.0101103539            0.000519749867           
       1.630436             0.00996140007             0.00051321308           
       1.633076             0.00970475461            0.000513202451           
       1.635716             0.00965668276            0.000503964624           
       1.638357             0.00891546022            0.000485513354           
       1.640997             0.00902695278            0.000503338583           
       1.643637             0.00913421796              0.0004927067           
       1.646278             0.00897263944             0.00050367278           
       1.648918              0.0092063147            0.000511580988           
       1.651559             0.00931913943            0.000518701073           
       1.654199             0.00888145195               0.000492493           
       1.656839              0.0089056417            0.000493335374           
       1.659480             0.00906773368            0.000516498237           
       1.662120             0.00882206267            0.000479821253           
       1.664761             0.00895790832            0.000502233135           
       1.667401             0.00922753955            0.000487198144           
       1.670041             0.00885193628            0.000484455442           
       1.672682             0.00943959511            0.000498221747           
       1.675322             0.00859258921            0.000472287314           
       1.677962             0.00889380489            0.000475193629           
       1.680603             0.00945537737            0.000491474086           
       1.683243             0.00956310233             0.00051567422           
       1.685884             0.00896700205            0.000503031264           
       1.688524             0.00945053721            0.000506433494           
       1.691164             0.00893737013            0.000492603629           
       1.693805             0.00858309762            0.000488044747           
       1.696445             0.00930615197            0.000511133831           
       1.699085             0.00866100666            0.000476575766           
       1.701726             0.00861787408            0.000457952956           
       1.704366             0.00952050811            0.000507077215           
       1.707007             0.00910751067            0.000484901419           
       1.709647              0.0081275422            0.000463244492           
       1.712287             0.00891610917            0.000489420533           
       1.714928              0.0086882967            0.000487022827           
       1.717568             0.00798959416            0.000439943685           
       1.720209             0.00892722986            0.000487100259           
       1.722849             0.00925673019            0.000493458112           
       1.725489             0.00887574575            0.000483602388           
       1.728130             0.00947617874            0.000531032857           
       1.730770             0.00853442567            0.000478621989           
       1.733410             0.00839493317            0.000467232676           
       1.736051             0.00914872882            0.000491153653           
       1.738691             0.00854959589            0.000465174209           
       1.741332             0.00897647273            0.000490583146           
       1.743972             0.00912232149            0.000510709502           
       1.746612             0.00890858089            0.000484631972           
       1.749253             0.00841387766            0.000480284888           
       1.751893             0.00832227684            0.000474157198           
       1.754533             0.00822219095            0.000470857268           
       1.757174             0.00802582945            0.000460844443           
       1.759814             0.00820568627            0.000458916191           
       1.762455             0.00853226003            0.000476551896           
       1.765095             0.00879314948            0.000462797029           
       1.767735             0.00862109897            0.000472383933           
       1.770376             0.00909397244            0.000486445323           
       1.773016             0.00954868361            0.000495119646           
       1.775657             0.00854886723            0.000461740954           
       1.778297             0.00877104242              0.0004636752           
       1.780937              0.0087339403            0.000488372791           
       1.783578             0.00851048387            0.000470030679           
       1.786218             0.00908841646            0.000506910368           
       1.788858             0.00828446709            0.000459655687           
       1.791499             0.00828497773            0.000454507335           
       1.794139             0.00858101738             0.00045880351           
       1.796780             0.00829709729            0.000448974501           
       1.799420             0.00905005601            0.000466307626           
       1.802060             0.00860678006            0.000458417377           
       1.804701             0.00865785421             0.00044122152           
       1.807341             0.00961240029            0.000488517701           
       1.809981             0.00895147562            0.000472995756           
       1.812622             0.00906400799            0.000467390759           
       1.815262             0.00881683978            0.000470766176           
       1.817903             0.00948601017            0.000481069181           
       1.820543             0.00892072143            0.000473784486           
       1.823183             0.00879489784            0.000470172721           
       1.825824             0.00932672901            0.000462565811           
       1.828464             0.00941079217            0.000484413253           
       1.831105             0.00852237073            0.000448235974           
       1.833745             0.00843402257            0.000455429789           
       1.836385             0.00857034876            0.000472197661           
       1.839026             0.00834140081            0.000464376009           
       1.841666             0.00838647588            0.000463977923           
       1.844306             0.00757477083            0.000428921395           
       1.846947             0.00884314912            0.000467505534           
       1.849587             0.00849657055            0.000506022168           
       1.852228             0.00853544282            0.000458614945           
       1.854868             0.00791883677            0.000466632058           
       1.857508             0.00872401534            0.000484977449           
       1.860149             0.00881238354            0.000496283364           
       1.862789             0.00858887257            0.000472914338           
       1.865429             0.00895430843            0.000504042635           
       1.868070             0.00880816503            0.000493249515           
       1.870710             0.00863959293            0.000477244448           
       1.873351             0.00768431444            0.000455651458           
       1.875991             0.00842364957            0.000484853916           
       1.878631             0.00846911405            0.000476849543           
       1.881272             0.00722532108            0.000437493161           
       1.883912             0.00823351871            0.000486031932           
       1.886553             0.00813459898            0.000477702346           
       1.889193             0.00857493968             0.00048962337           
       1.891833             0.00753501179            0.000476662931           
       1.894474             0.00845470669            0.000500518172           
       1.897114             0.00738458685            0.000452652634           
       1.899754             0.00810856866            0.000476307458           
       1.902395             0.00802662629             0.00046462944           
       1.905035             0.00786910957            0.000487267772           
       1.907676             0.00733716416            0.000443457215           
       1.910316             0.00762480775            0.000464069349           
       1.912956             0.00777737334            0.000458377942           
       1.915597             0.00852224067            0.000482508079           
       1.918237             0.00824216911            0.000490056852           
       1.920878             0.00814961019            0.000485302609           
       1.923518             0.00903589462            0.000511227275           
       1.926158             0.00753846174            0.000460890023           
       1.928799             0.00811868908            0.000472761926           
       1.931439             0.00868867212            0.000501903839           
       1.934079             0.00841499723            0.000514916271           
       1.936720             0.00860184627            0.000482352468           
       1.939360             0.00805777744            0.000498062632           
       1.942001             0.00749141631            0.000440164526           
       1.944641              0.0078468904            0.000459360163           
       1.947281             0.00736527681            0.000440937871           
       1.949922             0.00890985177            0.000500934837           
       1.952562             0.00803804994            0.000490710754           
       1.955202             0.00811829959            0.000492553092           
       1.957843             0.00749869941            0.000461107694           
       1.960483             0.00808229381            0.000500495519           
       1.963124             0.00808255338            0.000490235514           
       1.965764             0.00786955572            0.000456173633           
       1.968404             0.00713204485            0.000430169103           
       1.971045             0.00787503304            0.000460858925           
       1.973685             0.00745045109            0.000470194641           
       1.976326             0.00880283798            0.000504066138           
       1.978966             0.00757673624            0.000471750023           
       1.981606             0.00737071666            0.000474996093           
       1.984247             0.00836330009            0.000502642628           
       1.986887             0.00766655188            0.000475484938           
       1.989527             0.00764296604            0.000469640172           
       1.992168             0.00729146588            0.000475954326           
       1.994808             0.00742320951            0.000478176329           
       1.997449             0.00731762926            0.000465013606           
       2.000089             0.00785059416             0.00047974059           
       2.002729               0.007483833            0.000468681207           
       2.005370             0.00749069945            0.000463850987           
       2.008010             0.00765913333            0.000489507354           
       2.010650             0.00741446113            0.000485219008           
       2.013291             0.00830379246            0.000492670068           
       2.015931             0.00980841243            0.000531662967           
       2.018572             0.00721502775            0.000487725252           
       2.021212             0.00822089315            0.000511260151           
       2.023852             0.00731784905            0.000456534045           
       2.026493             0.00788949487             0.00049520892           
       2.029133             0.00736640559            0.000468881155           
       2.031774             0.00778679611            0.000505926715           
       2.034414             0.00748104806            0.000456291978           
       2.037054              0.0077164284            0.000475160708           
       2.039695             0.00760982843            0.000468303392           
       2.042335              0.0070252658            0.000467604359           
       2.044975             0.00655913703            0.000446345873           
       2.047616             0.00815998817            0.000496606934           
       2.050256             0.00783803409            0.000491317502           
       2.052897             0.00801483491            0.000505987182           
       2.055537             0.00739491232            0.000469724826           
       2.058177             0.00720179302            0.000453941212           
       2.060818             0.00749017412            0.000484966114           
       2.063458             0.00711676433             0.00049262432           
       2.066098             0.00760340743            0.000480335438           
       2.068739             0.00806492472             0.00050238816           
       2.071379             0.00736702221            0.000492681874           
       2.074020             0.00686819446            0.000465371075           
       2.076660             0.00777551518            0.000499159548           
       2.079300             0.00776475807            0.000511036094           
       2.081941             0.00735867446            0.000455511968           
       2.084581             0.00747881328            0.000484706224           
       2.087222             0.00647723754            0.000435027145           
       2.089862             0.00785636577            0.000521820359           
       2.092502             0.00761556752            0.000498018146           
       2.095143              0.0070546049            0.000494975091           
       2.097783             0.00748259645            0.000493541896           
       2.100423             0.00673560696            0.000451210751           
       2.103064             0.00774226562            0.000501960402           
       2.105704             0.00692857726             0.00047249905           
       2.108345             0.00702319974            0.000457034459           
       2.110985             0.00736290034             0.00049981188           
       2.113625             0.00750417603            0.000508987398           
       2.116266             0.00714424715            0.000503676945           
       2.118906             0.00696191602            0.000463370127           
       2.121546             0.00767384347            0.000477197225           
       2.124187             0.00688890409            0.000474600344           
       2.126827             0.00735510067            0.000495869608           
       2.129468             0.00733827447            0.000496567253           
       2.132108             0.00837438232            0.000516102977           
       2.134748             0.00800818245            0.000502734519           
       2.137389             0.00739157043              0.0005038808           
       2.140029             0.00780388547            0.000463515836           
       2.142670              0.0076450231            0.000490301361           
       2.145310             0.00829137739            0.000496983255           
       2.147950              0.0073566055             0.00048183409           
       2.150591             0.00758319537            0.000484254401           
       2.153231             0.00720479737            0.000485868898           
       2.155871             0.00709369579            0.000465748557           
       2.158512             0.00649053241            0.000464855892           
       2.161152             0.00766043837            0.000489189839           
       2.163793             0.00761413735            0.000485513607           
       2.166433             0.00757066891             0.00049714614           
       2.169073             0.00721179245            0.000474417203           
       2.171714             0.00686095188            0.000459274414           
       2.174354             0.00700732047            0.000484991307           
       2.176995             0.00662340093            0.000469534194           
       2.179635             0.00745874424            0.000526523194           
       2.182275             0.00799417177            0.000514655213           
       2.184916             0.00646939144            0.000447177643           
       2.187556             0.00657676299            0.000446354209           
       2.190196             0.00790254045            0.000511290348           
       2.192837             0.00710048967            0.000482013289           
       2.195477              0.0080664049            0.000489803029           
       2.198118             0.00794384613            0.000498522597           
       2.200758              0.0082771136            0.000522072193           
       2.203398              0.0064966282            0.000465483827           
       2.206039             0.00662560713             0.00044489262           
       2.208679             0.00706504452            0.000470101065           
       2.211319             0.00702741229            0.000471550757           
       2.213960              0.0070166738            0.000477503498           
       2.216600             0.00709766371            0.000496809344           
       2.219241             0.00759872955            0.000491289703           
       2.221881             0.00768186483            0.000494985545           
       2.224521             0.00706192398            0.000480407901           
       2.227162             0.00734247233            0.000480049431           
       2.229802             0.00757688901            0.000502917739           
       2.232443              0.0077326799            0.000500048149           
       2.235083             0.00717390918            0.000495849572           
       2.237723             0.00742213571            0.000484001981           
       2.240364              0.0078919972             0.00051138226           
       2.243004             0.00759666759            0.000497717704           
       2.245644             0.00725928994            0.000491410043           
       2.248285             0.00725700151            0.000481489734           
       2.250925             0.00696359999            0.000474521089           
       2.253566             0.00772348143            0.000534261609           
       2.256206             0.00808993916            0.000535856252           
       2.258846             0.00742961812             0.00048850132           
       2.261487             0.00784118935            0.000526737568           
       2.264127             0.00703932418            0.000482002056           
       2.266767             0.00772023795            0.000518224679           
       2.269408             0.00738723564            0.000509000886           
       2.272048             0.00748843668            0.000509416512           
       2.274689              0.0071536089            0.000504458062           
       2.277329             0.00735153134            0.000481505695           
       2.279969             0.00759021889            0.000520789204           
       2.282610             0.00823776864            0.000527460023           
       2.285250             0.00732779061            0.000476151197           
       2.287891             0.00729550058            0.000509379959           
       2.290531             0.00721239386             0.00051327867           
       2.293171             0.00669531187            0.000481723885           
       2.295812             0.00760921441            0.000511485646           
       2.298452             0.00773909211            0.000539423523           
       2.301092             0.00672552925             0.00046721982           
       2.303733             0.00724066284            0.000504343445           
       2.306373              0.0066700536            0.000491686259           
       2.309014             0.00720652038            0.000501106906           
       2.311654              0.0076373776             0.00053833413           
       2.314294             0.00602754651            0.000440608507           
       2.316935             0.00679449207            0.000469733624           
       2.319575             0.00774011441            0.000525305803           
       2.322215             0.00739237033            0.000535018058           
       2.324856             0.00731053803            0.000489163451           
       2.327496             0.00650745532            0.000490734358           
       2.330137             0.00667270146            0.000475521002           
       2.332777             0.00716028598            0.000507910993           
       2.335417              0.0075879413            0.000507251199           
       2.338058             0.00813238808            0.000540820915           
       2.340698             0.00701905227            0.000498491004           
       2.343339             0.00777978565            0.000536358688           
       2.345979             0.00681929683             0.00047508241           
       2.348619              0.0070751149             0.00050160015           
       2.351260             0.00726748616            0.000505411722           
       2.353900             0.00716804301            0.000500351915           
       2.356540             0.00685615589            0.000488650871           
       2.359181             0.00720564339            0.000493927316           
       2.361821             0.00742497563            0.000484327717           
       2.364462             0.00706573305             0.00049414016           
       2.367102             0.00682049926            0.000498917869           
       2.369742             0.00703390256            0.000533297751           
       2.372383             0.00782337671            0.000509279239           
       2.375023             0.00680792441            0.000499411411           
       2.377663             0.00715173841            0.000489419761           
       2.380304             0.00776013129            0.000518312708           
       2.382944             0.00641316071            0.000448790791           
       2.385585             0.00692215657            0.000497274812           
       2.388225             0.00676969307            0.000489457179           
       2.390865             0.00762638632            0.000514168384           
       2.393506             0.00730497209            0.000493723159           
       2.396146             0.00808701584            0.000561684612           
       2.398787                0.00741758            0.000495748502           
       2.401427             0.00718762627            0.000471035989           
       2.404067             0.00764636474            0.000496671901           
       2.406708             0.00751106107            0.000486354968           
       2.409348             0.00647805691            0.000479088633           
       2.411988             0.00699575033            0.000487796487           
       2.414629              0.0075661587            0.000523092499           
       2.417269             0.00679916869            0.000501660391           
       2.419910             0.00684380114            0.000504472141           
       2.422550             0.00738456766            0.000501353686           
       2.425190             0.00669997085            0.000503386736           
       2.427831              0.0066535253            0.000498819025           
       2.430471             0.00604296917            0.000452892722           
       2.433112             0.00711222554            0.000478437895           
       2.435752             0.00660359839            0.000487895647           
       2.438392             0.00738176973            0.000497893128           
       2.441033             0.00773278894            0.000540066784           
       2.443673             0.00708447638            0.000517329229           
       2.446313             0.00646138347            0.000494491285           
       2.448954             0.00647032203            0.000471150378           
       2.451594             0.00749054682            0.000545074939           
       2.454235             0.00747550881            0.000510905839           
       2.456875             0.00740248069            0.000531973013           
       2.459515             0.00767743013            0.000555787234           
       2.462156              0.0082182199            0.000542907162           
       2.464796             0.00717217632              0.0005006366           
       2.467436             0.00833733286            0.000558188074           
       2.470077             0.00748157144             0.00050117405           
       2.472717             0.00723582843            0.000495009463           
       2.475358             0.00852663528            0.000542954184           
       2.477998             0.00743658863            0.000498513837           
       2.480638             0.00882264586            0.000552635794           
       2.483279             0.00820873348            0.000557134691           
       2.485919             0.00787018999            0.000525738153           
       2.488560             0.00655054735            0.000478300129           
       2.491200             0.00748502807            0.000526482813           
       2.493840             0.00620902302            0.000507386066           
       2.496481             0.00704799597            0.000531736986           
       2.499121             0.00776529904            0.000542880277           
       2.501761             0.00790965958            0.000555162684           
       2.504402             0.00668247833            0.000502826694           
       2.507042             0.00667492659            0.000498819699           
       2.509683             0.00646882985            0.000483553386           
       2.512323              0.0075273155            0.000547827296           
       2.514963             0.00652168724            0.000503622002           
       2.517604             0.00780101594            0.000571548081           
       2.520244              0.0067314333             0.00049774062           
       2.522884              0.0074848744            0.000532363658           
       2.525525             0.00704589791            0.000522379203           
       2.528165             0.00780725538            0.000541307361           
       2.530806             0.00815507069            0.000562876666           
       2.533446             0.00836570345            0.000557931046           
       2.536086             0.00789094092            0.000537018306           
       2.538727             0.00807550371            0.000521177524           
       2.541367             0.00719803675            0.000496895395           
       2.544008             0.00716242933            0.000511900789           
       2.546648             0.00643676149            0.000493600378           
       2.549288             0.00744367741             0.00054162127           
       2.551929             0.00781532755            0.000546131266           
       2.554569             0.00587027224            0.000456001804           
       2.557209             0.00745766153            0.000518691384           
       2.559850             0.00666791331            0.000492033926           
       2.562490             0.00724728614            0.000530176928           
       2.565131             0.00633181463            0.000513820071           
       2.567771             0.00716944948            0.000527150404           
       2.570411             0.00621206738            0.000485383605           
       2.573052             0.00730768522            0.000533079671           
       2.575692             0.00641224143             0.00049632857           
       2.578332             0.00724777878            0.000529857423           
       2.580973             0.00696398329            0.000514438502           
       2.583613             0.00677938333            0.000495488566           
       2.586254             0.00657597099            0.000487320297           
       2.588894             0.00739913594            0.000536798877           
       2.591534             0.00622397158            0.000509652286           
       2.594175             0.00750019491             0.00054891205           
       2.596815             0.00764026523            0.000557280563           
       2.599456             0.00690915422            0.000502545912           
       2.602096             0.00719002195             0.00051656029           
       2.604736             0.00683877487            0.000515730642           
       2.607377             0.00692761208            0.000505390383           
       2.610017             0.00642767027             0.00047829375           
       2.612657             0.00709903538              0.0005346464           
       2.615298             0.00718129858            0.000524998724           
       2.617938             0.00725134956            0.000564346991           
       2.620579              0.0068806893            0.000527739279           
       2.623219             0.00605341253             0.00049429255           
       2.625859             0.00717165686             0.00052310064           
       2.628500              0.0064798988            0.000493973457           
       2.631140             0.00707139572            0.000523977671           
       2.633780             0.00670860993            0.000509916159           
       2.636421             0.00678708555            0.000525502867           
       2.639061              0.0068417176            0.000496687581           
       2.641702             0.00618250857            0.000483084011           
       2.644342             0.00722552468            0.000524471121           
       2.646982             0.00750035645            0.000526364043           
       2.649623             0.00713314149            0.000537935648           
       2.652263             0.00774757943            0.000554999742           
       2.654904             0.00673422603            0.000517952939           
       2.657544             0.00713714192            0.000502240468           
       2.660184             0.00641091344            0.000503749558           
       2.662825              0.0075367361            0.000558864905           
       2.665465             0.00678437992            0.000512826791           
       2.668105             0.00633158558            0.000522189665           
       2.670746             0.00793300471            0.000539961277           
       2.673386             0.00783466688            0.000553013596           
       2.676027             0.00644666102            0.000493589943           
       2.678667             0.00906689212            0.000571171693           
       2.681307              0.0101654812            0.000594236224           
       2.683948              0.0124747224            0.000676352088           
       2.686588                0.01133605            0.000634053223           
       2.689229             0.00870103289            0.000542806854           
       2.691869             0.00743361517             0.00053026637           
       2.694509             0.00735659245            0.000527801925           
       2.697150             0.00732951029            0.000518282235           
       2.699790              0.0079272668            0.000565066431           
       2.702430             0.00772026999            0.000533036924           
       2.705071             0.00737100485            0.000538189928           
       2.707711             0.00696164383            0.000507641585           
       2.710352             0.00756062601            0.000558986239           
       2.712992             0.00694583203             0.00054568392           
       2.715632             0.00616598204            0.000477018546           
       2.718273             0.00693165946            0.000524162151           
       2.720913             0.00625560033            0.000496528378           
       2.723553             0.00690966324            0.000525342082           
       2.726194             0.00706648439            0.000555352471           
       2.728834             0.00746360656            0.000571011802           
       2.731475              0.0075472671            0.000529939165           
       2.734115             0.00727493054            0.000536437553           
       2.736755             0.00837411455            0.000580275396           
       2.739396             0.00681902775            0.000520597866           
       2.742036             0.00735549454            0.000565864794           
       2.744677              0.0063847389            0.000511532752           
       2.747317             0.00747003558            0.000549357778           
       2.749957             0.00769933724            0.000561639667           
       2.752598             0.00684336483            0.000535246407           
       2.755238             0.00818101707            0.000595789212           
       2.757878             0.00648028464             0.00052562037           
       2.760519             0.00691298836            0.000537128934           
       2.763159             0.00727332347            0.000545444096           
       2.765800              0.0065320576            0.000492600206           
       2.768440             0.00758354997              0.0005346795           
       2.771080             0.00772287342            0.000544072494           
       2.773721             0.00749667195            0.000549873331           
       2.776361             0.00733312729            0.000551345183           
       2.779001             0.00704728396            0.000559734988           
       2.781642             0.00700547385            0.000553959403           
       2.784282             0.00681468141            0.000555348229           
       2.786923             0.00751367635            0.000588269035           
       2.789563             0.00763211125            0.000571020035           
       2.792203             0.00724108062             0.00053132947           
       2.794844             0.00757221913            0.000595494673           
       2.797484             0.00641743003            0.000517376385           
       2.800125             0.00714167026            0.000573898845           
       2.802765             0.00680814029            0.000550697818           
       2.805405              0.0068522535            0.000554348982           
       2.808046             0.00597419021             0.00052671347           
       2.810686             0.00732649151            0.000535973701           
       2.813326             0.00663665522            0.000529871127           
       2.815967             0.00625346415            0.000528971062           
       2.818607              0.0060227763            0.000495385286           
       2.821248             0.00631607751            0.000496772094           
       2.823888             0.00740373957            0.000558299181           
       2.826528             0.00725270855             0.00053514196           
       2.829169             0.00731864334            0.000563073354           
       2.831809             0.00713027679            0.000563339772           
       2.834449             0.00643614625            0.000538599752           
       2.837090             0.00689861036            0.000538567104           
       2.839730             0.00666414457            0.000526751293           
       2.842371             0.00663994271            0.000526552785           
       2.845011             0.00686450318            0.000539650191           
       2.847651             0.00638083477            0.000520930255           
       2.850292             0.00662310492            0.000535936203           
       2.852932             0.00669821862            0.000550712591           
       2.855573             0.00715217621            0.000552012367           
       2.858213             0.00747833752             0.00059275018           
       2.860853             0.00755629132            0.000554260244           
       2.863494              0.0071702788            0.000559009239           
       2.866134             0.00660904012            0.000557818433           
       2.868774             0.00617667214             0.00052998538           
       2.871415             0.00711755583            0.000577782894           
       2.874055             0.00647079615            0.000526598355           
       2.876696             0.00727443617             0.00057344438           
       2.879336             0.00677718459            0.000533465942           
       2.881976             0.00696081081            0.000557637743           
       2.884617             0.00773006017            0.000579012723           
       2.887257             0.00718458597            0.000561091145           
       2.889897             0.00857234835            0.000600275997           
       2.892538             0.00802972527            0.000636451396           
       2.895178             0.00617209338            0.000504112273           
       2.897819             0.00744287502              0.0005647058           
       2.900459             0.00708892506             0.00054039388           
       2.903099             0.00661472852            0.000516663566           
       2.905740             0.00665585952            0.000531676134           
       2.908380             0.00673434163            0.000540878144           
       2.911021             0.00659526153            0.000543966324           
       2.913661             0.00797043589            0.000597815137           
       2.916301             0.00782260469            0.000592810008           
       2.918942             0.00702030754            0.000537172837           
       2.921582             0.00620749348             0.00052850049           
       2.924222             0.00632609404            0.000516883478           
       2.926863              0.0077554333            0.000596122157           
       2.929503              0.0075498042            0.000595134474           
       2.932144             0.00677919481            0.000541352176           
       2.934784              0.0066126794            0.000525895371           
       2.937424             0.00756678249            0.000568332279           
       2.940065             0.00769164481            0.000546589986           
       2.942705             0.00756282299            0.000541313459           
       2.945346             0.00685124548            0.000546777437           
       2.947986              0.0078539304            0.000596928268           
       2.950626             0.00659463363            0.000543903453           
       2.953267             0.00730166149             0.00056307077           
       2.955907             0.00677452647            0.000562629087           
       2.958547             0.00657186069            0.000523145482           
       2.961188             0.00603982925            0.000523228255           
       2.963828             0.00663823599            0.000536569693           
       2.966469             0.00627017867            0.000511572544           
       2.969109             0.00734284519            0.000561806794           
       2.971749             0.00759736569            0.000567895664           
       2.974390             0.00705998247            0.000537962856           
       2.977030             0.00836367844            0.000598615541           
       2.979670             0.00822382864            0.000577380268           
       2.982311             0.00896647947            0.000624861999           
       2.984951             0.00815367685            0.000566722656           
       2.987592              0.0075856469            0.000557574279           
       2.990232             0.00741017147            0.000573125048           
       2.992872             0.00924969171            0.000603147784           
       2.995513             0.00941606369            0.000595360196           
       2.998153              0.0115078371             0.00066923406           
       3.000794              0.0102078346            0.000610511269           
       3.003434              0.0094497225            0.000588290231           
       3.006074              0.0116880533            0.000645094146           
       3.008715              0.0308680025             0.00101198642           
       3.011355               0.221939228             0.00261673653           
       3.013995               0.330537924             0.00320209057           
       3.016636               0.272210109             0.00284552805           
       3.019276               0.178534513             0.00226525119           
       3.021917               0.623517643             0.00407052886           
       3.024557               0.964772553             0.00497816071           
       3.027197               0.964332525             0.00485233772           
       3.029838               0.983942571             0.00497095105           
       3.032478               0.285154711             0.00267877504           
       3.035118              0.0805701495             0.00144301498           
       3.037759              0.0592828393             0.00123619663           
       3.040399              0.0760965982             0.00144472582           
       3.043040               0.197530514             0.00235619297           
       3.045680                0.22392939             0.00236033401           
       3.048320               0.185930139             0.00219755614           
       3.050961               0.251392576             0.00260032145           
       3.053601               0.156311268             0.00197481727           
       3.056242               0.226765274              0.0025289492           
       3.058882               0.486773629             0.00397461323           
       3.061522               0.432112826             0.00367410625           
       3.064163               0.327128031             0.00315651953           
       3.066803               0.133982339             0.00212673281           
       3.069443               0.114138303             0.00205372785           
       3.072084              0.0670582168             0.00153282691           
       3.074724              0.0180245285            0.000887489968           
       3.077365              0.0124571104            0.000763754422           
       3.080005              0.0114324299            0.000735814484           
       3.082645              0.0354753352             0.00136165797           
       3.085286              0.0196550945              0.0010215399           
       3.087926             0.00887146659            0.000681012892           
       3.090566             0.00877521542            0.000663631591           
       3.093207              0.0121851055            0.000813763265           
       3.095847              0.0106234192            0.000728283988           
       3.098488              0.0110156968            0.000822316694           
       3.101128              0.0111844837            0.000833921425           
       3.103768             0.00909718413            0.000737941946           
       3.106409              0.0100866924            0.000826979035           
       3.109049             0.00824822777             0.00071765137           
       3.111690             0.00759398179            0.000676780384           
       3.114330             0.00874381711            0.000741661088           
       3.116970              0.0071664722            0.000676595452           
       3.119611             0.00884582092            0.000800136699           
       3.122251              0.0135248818             0.00103492167           
       3.124891              0.0325390602             0.00162020456           
       3.127532               0.027285639             0.00145145143           
       3.130172              0.0183122234             0.00120961239           
       3.132813              0.0106862142            0.000909678926           
       3.135453             0.00813919863              0.0007873627           
       3.138093             0.00856397614             0.00087511441           
       3.140734             0.00752985126            0.000757047146           
       3.143374             0.00739132619            0.000793211947           
       3.146014             0.00770291627            0.000871742223           
       3.148655             0.00758937298            0.000804370432           
       3.151295             0.00656893591            0.000797476371           
       3.153936             0.00777846914            0.000838264253           
       3.156576             0.00613686738            0.000734445231           
       3.159216              0.0056625414            0.000709020154           
       3.161857             0.00640556889            0.000751035816           
       3.164497             0.00495484411            0.000694033488           
       3.167138             0.00860564195            0.000945061305           
       3.169778             0.00672760706            0.000821820268           
       3.172418              0.0053976985            0.000728636214           
       3.175059             0.00556007599            0.000655611077           
       3.177699             0.00598893493            0.000720529667           
       3.180339             0.00446397328            0.000666497629           
       3.182980             0.00529507289            0.000750501638           
       3.185620             0.00528688136            0.000763730595           
       3.188261             0.00617587367            0.000840178212           
       3.190901             0.00656763306            0.000796851609           
       3.193541             0.00551678639             0.00076739532           
       3.196182             0.00591787665            0.000828297824           
       3.198822             0.00555454623            0.000802737218           
       3.201463             0.00468264419            0.000724347888           
       3.204103              0.0057646694            0.000798800726           
       3.206743             0.00519793593            0.000758448234           
       3.209384             0.00685053762            0.000940726248           
       3.212024             0.00605330906            0.000824440644           
       3.214664             0.00507406608            0.000858333201           
       3.217305             0.00666126126            0.000934845332           
       3.219945             0.00694392641            0.000982400066           
       3.222586             0.00528908199             0.00081664515           
       3.225226             0.00387657618             0.00077559273           
       3.227866             0.00490110815            0.000797073063           
       3.230507             0.00611643524             0.00092302878           
       3.233147             0.00566243011            0.000895282843           
       3.235787             0.00662798827            0.000991253022           
       3.238428             0.00513512938            0.000941546407           
       3.241068             0.00646390791            0.000987752883           
       3.243709             0.00450318972            0.000851781032           
       3.246349              0.0054871522            0.000857121601           
       3.248989             0.00561227647             0.00102354388           
       3.251630             0.00484836553             0.00091611206           
       3.254270             0.00706866889            0.000988611174           
       3.256911             0.00393223042            0.000804535291           
       3.259551             0.00553687056             0.00102779812           
       3.262191             0.00676868557              0.0011607667           
       3.264832             0.00498204307             0.00104052023           
       3.267472             0.00803240238             0.00123943038           
       3.270112             0.00675483847             0.00125608565           
       3.272753             0.00507363821             0.00099642887           
       3.275393             0.00815499017              0.0012889817           
       3.278034             0.00694012502             0.00118977028           
       3.280674             0.00840841392             0.00142109079           
       3.283314             0.00671595973              0.0011358695           
       3.285955             0.00531372783             0.00104246465           
       3.288595             0.00532357503             0.00116085509           
       3.291235             0.00613305076             0.00128086719           
       3.293876             0.00384864106             0.00102923817           
       3.296516             0.00531535175             0.00116120679           
       3.299157             0.00393326071            0.000986343942           
       3.301797             0.00415117472             0.00115585452           
       3.304437             0.00653832842              0.0012567819           
       3.307078             0.00494753808             0.00120428676           
       3.309718             0.00685896442             0.00146359162           
       3.312359             0.00658194183             0.00143407153           
       3.314999             0.00362678873             0.00104810971           
       3.317639             0.00442724166             0.00110749406           
       3.320280             0.00560960002             0.00132543462           
       3.322920              0.0038828714             0.00112128918           
       3.325560             0.00707417736             0.00151451664           
       3.328201             0.00496445389             0.00114265115           
       3.330841             0.00467341803             0.00134929876           
       3.333482             0.00488670227             0.00130417553           
       3.336122             0.00624178653              0.0014746269           
       3.338762             0.00650505185             0.00173897483           
       3.341403               0.006786196             0.00169718814           
       3.344043             0.00780225455             0.00174717091           
       3.346683             0.00486859607             0.00140902361           
       3.349324              0.0051241416             0.00162525076           
       3.351964             0.00514064298             0.00172140713           
       3.354605             0.00376634544             0.00168511352           
       3.357245             0.00605356965             0.00192722587           
       3.359885             0.00393818471             0.00124411481           
       3.362526             0.00979138569             0.00245319872           
       3.365166             0.00932364061             0.00225789762           
       3.367807             0.00539377094             0.00219785348           
       3.370447             0.00430812928             0.00162937284           
       3.373087              0.0069836329             0.00221842151           
       3.375728             0.00628157309             0.00237452532           
       3.378368             0.00597657562             0.00343746831           
       3.381008             0.00551215739             0.00246122567           
       3.383649             0.00701024777             0.00222659779           
       3.386289             0.00695130581             0.00262415104           
       3.388930             0.00499458072             0.00351842635           
       3.391570             0.00373958962             0.00215364148           
       3.394210              0.0120035104             0.00488298668           
       3.396851             0.00730664582             0.00426151702           
       3.399491             0.00242053031             0.00245348018           
       3.402131           -2.65940189e-05                         0           
       3.404772             0.00971800777             0.00983857449           
       3.407412                       nan                       nan           
       3.410053           -2.66723873e-05                         0           
       3.412693                       nan                       nan           
       3.415333             0.00905464169             0.00951761071           
