################################################################################
# EDF_DataBlockID                     0.Image.Psd
# EDF_BinarySize                      2105344
# EDF_HeaderSize                      2560
# ByteOrder                           LowByteFirst
# DataType                            FloatValue
# Dim_1                               512
# Dim_2                               1028
# Image                               0
# HeaderID                            EH:000000:000000:000000
# Size                                2105344
# Center_1                            304.9000
# Center_2                            588.7000
# Comment                             Xenocs_Cell_Window - 20251028_20perc_iodine_1.23mg
# DDummy                              0.6
# Date                                2025-10-30T13:39:55
# Delta                               21.910000
# Dummy                               -1.5
# ExposureTime                        360
# Gamma                               15.360000
# Intensity1                          8.49009e-10
# PSize_1                             7.5e-05
# PSize_2                             7.5e-05
# Pressure                            0.0326443
# SampleDistance                      0.115750
# SampleEnvKind                       large
# SampleEnvPN                         ElectroChemical cell
# SampleEnvSN                         1141
# Thickness                           0
# Wavelength                          1.541891e-10
# Wavelength                          1.54189e-10
# aux                                 0
# aux_dial                            0.002375
# beamx                               588.434
# beamx_dial                          588.434
# beamz                               657.808
# beamz_dial                          657.808
# det0x                               0
# det0x_dial                          6.36945
# det0xvd                             0
# det0xvd_dial                        0
# det0y                               450.002
# det0y_dial                          481.635
# det0z                               0
# det0z_dial                          1.23302
# det0zvd                             0
# det0zvd_dial                        0
# mag                                 1.818
# mag_dial                            1.818
# om                                  0.2499
# om_dial                             -0.610199
# phi                                 -0.0120535
# phi_dial                            0
# ry                                  0.599993
# ry_dial                             0.599993
# s1bot                               0.8
# s1bot_dial                          -1.66094
# s1hl                                0.8
# s1hl_dial                           -0.608437
# s1hr                                0.8
# s1hr_dial                           0.970938
# s1top                               0.8
# s1top_dial                          -0.461562
# s2bot                               0.45
# s2bot_dial                          1.36109
# s2hl                                0.45
# s2hl_dial                           -0.83375
# s2hr                                0.45
# s2hr_dial                           -0.118594
# s2top                               0.45
# s2top_dial                          1.44734
# w2theta                             32
# w2theta_dial                        32
# waxsch                              19.2605
# waxsch_dial                         -32.7355
# waxsh                               137.085
# waxsh_dial                          -43.5338
# waxsth                              26.0607
# waxsth_dial                         -19.4086
# waxsz                               67.0407
# waxsz_dial                          -23.7954
# wind                                65.9854
# wind_dial                           66.0041
# wpsi                                124
# wpsi_dial                           124
# wstod                               115
# wstod_dial                          115
# x                                   0
# x_dial                              1.00969
# z                                   0
# z_dial                              13.3172
# CountCutoff                         6807993
# DetectorModel                       Dectris EIGER2 Si 500K, S/N E-01-0554
# ThresholdSetting                    4023.88989258
# Saturation                          0
# FlatField                           Corrected
# BackgroundReductionExtra            0.02
# BackgroundCorrectionConstant        0.0026712
# Detector                            0
# Monitor                             0
# Pil_Roi0                            0
# SumForIntensity1                    3.05643e+08
# TransmittedFlux                     849009
# det                                 0
# mon                                 0
# pilai0                              3.05643e+08
# pilai1                              776005
# pilct0                              5.28726e+08
# pilct1                              776005
# pilroi0                             0
# pilroi1                             0
# sec                                 1
# title                               20251028_20perc_iodine_1.23mg_1_00430.edf
# usaxs0                              0
# Operation                           Azimuthal average I(q)
# Error_model                         ErrorModel.poisson
# Geometrical_correction              True
# Transmission_correction             True
# Thickness_correction                False
# Binning mode                        Uniform
# Binning factor                      1.0
# Psi                                 0.0
# Omega                               0.2499
# MaskInvalidPixels                   True
# DetectorEdge                        3
# MaskFiles                           ['WAXS_corrected.edf']
################################################################################
    q(A⁻¹)                Intensity(a.u.)            Sigma_I(a.u.)            
       0.693100             0.00832020642             0.00610274146           
       0.695741            -2.3886854e-05                         0           
       0.698381               0.012852599             0.00758182886           
       0.701021           -2.38763416e-05                         0           
       0.703662             0.00287409722             0.00292563991           
       0.706302             0.00853181528             0.00390254592           
       0.708942             0.00568078477             0.00411010127           
       0.711583             0.00883068613             0.00443742854           
       0.714223             0.00879935403             0.00511398516           
       0.716864             0.00500240847             0.00252286741           
       0.719504             0.00739793555             0.00331076213           
       0.722144             0.00508857599             0.00254283194           
       0.724785              0.0032134597             0.00161189726           
       0.727425             0.00146052961             0.00147009757           
       0.730065             0.00425738788             0.00177543102           
       0.732706             0.00467857195             0.00156292304           
       0.735346              0.0106056318             0.00306742055           
       0.737987             0.00701262334             0.00176255378           
       0.740627             0.00685705784             0.00260050391           
       0.743267             0.00659641549             0.00170838113           
       0.745908             0.00522002866             0.00164883019           
       0.748548             0.00661327976             0.00171065475           
       0.751189             0.00806533684             0.00254555043           
       0.753829             0.00338640385             0.00151622946           
       0.756469             0.00439585591             0.00139299843           
       0.759110             0.00583677747             0.00169155454           
       0.761750             0.00456551958             0.00132283357           
       0.764390             0.00837527207             0.00187527528           
       0.767031             0.00758307405             0.00154520953           
       0.769671             0.00687032542             0.00183471251           
       0.772312             0.00763842284             0.00147276199           
       0.774952             0.00567995018             0.00171499437           
       0.777592             0.00657789024             0.00134428371           
       0.780233             0.00674853948             0.00164276822           
       0.782873             0.00837050544             0.00174980587           
       0.785513             0.00666680019             0.00166946194           
       0.788154             0.00636935238             0.00136505236           
       0.790794             0.00495849347             0.00143991077           
       0.793435             0.00742006957             0.00158239505           
       0.796075             0.00657874376             0.00143531947           
       0.798715              0.0060851583             0.00163126972           
       0.801356             0.00805206093             0.00161502509           
       0.803996              0.0080744809             0.00164882958           
       0.806637             0.00680769688             0.00120484392           
       0.809277             0.00548815949             0.00117091503           
       0.811917             0.00828114114             0.00134460512           
       0.814558             0.00796881797             0.00137087065           
       0.817198              0.0080988774             0.00131297656           
       0.819838             0.00609488819             0.00115276199           
       0.822479             0.00571696409             0.00131101786           
       0.825119             0.00480071565             0.00102252183           
       0.827760             0.00511349595             0.00106898446           
       0.830400             0.00670232282             0.00115186162           
       0.833040             0.00737859601             0.00126621707           
       0.835681             0.00674398464              0.0013761782           
       0.838321             0.00632802098             0.00111888142           
       0.840961             0.00655907328             0.00124113018           
       0.843602             0.00726302852             0.00119768787           
       0.846242             0.00806854184             0.00126216904           
       0.848883              0.0070069898             0.00120368407           
       0.851523             0.00684607127             0.00117500293           
       0.854163             0.00773443094             0.00132816367           
       0.856804             0.00626459355              0.0010747558           
       0.859444             0.00723521965             0.00113169567           
       0.862085             0.00827717929             0.00126158643           
       0.864725             0.00807084847             0.00127490984           
       0.867365              0.0067406097             0.00108040197           
       0.870006             0.00815572492             0.00113246541           
       0.872646             0.00707976357             0.00110644235           
       0.875286              0.0075180844             0.00109692269           
       0.877927             0.00772498473             0.00107294526           
       0.880567              0.0068785335             0.00104892624           
       0.883208             0.00860529337              0.0011621683           
       0.885848             0.00711555008             0.00109727039           
       0.888488             0.00845383254             0.00112178725           
       0.891129             0.00672680358             0.00102747257           
       0.893769             0.00761903079             0.00104650057           
       0.896410             0.00810537819             0.00100636474           
       0.899050             0.00678779362              0.0010127877           
       0.901690             0.00787908254             0.00118859985           
       0.904331              0.0071887743             0.00100653987           
       0.906971             0.00587578296            0.000968079049           
       0.909611             0.00710473038            0.000969049282           
       0.912252             0.00760599687               0.001035634           
       0.914892             0.00569090652            0.000978936244           
       0.917533             0.00705541031             0.00103113203           
       0.920173             0.00465611742            0.000777179006           
       0.922813             0.00684320105            0.000988722852           
       0.925454             0.00647961085            0.000866342884           
       0.928094             0.00670459549            0.000940814121           
       0.930734             0.00733516404             0.00105945155           
       0.933375             0.00583508628            0.000935641149           
       0.936015             0.00999362585             0.00111207825           
       0.938656             0.00813409604             0.00107629798           
       0.941296             0.00655395208              0.0008755676           
       0.943936             0.00875602194            0.000992447907           
       0.946577             0.00661990166            0.000857233914           
       0.949217             0.00749308706            0.000838684338           
       0.951858             0.00669079378            0.000829604033           
       0.954498             0.00923722809             0.00112828091           
       0.957138             0.00841582271             0.00102026074           
       0.959779             0.00720909732            0.000930871441           
       0.962419             0.00675094213            0.000894814517           
       0.965059             0.00824813838             0.00104024709           
       0.967700             0.00865697853             0.00109150523           
       0.970340             0.00861510553            0.000963535348           
       0.972981             0.00830523744            0.000861940908           
       0.975621             0.00922237729            0.000966260439           
       0.978261              0.0067697119            0.000786614303           
       0.980902              0.0067713191            0.000941256488           
       0.983542             0.00706631086            0.000851507032           
       0.986182             0.00761485189            0.000867846489           
       0.988823             0.00849709593            0.000890158711           
       0.991463             0.00860003476            0.000955441804           
       0.994104             0.00827644767            0.000914345332           
       0.996744             0.00714750621            0.000866687041           
       0.999384             0.00655487351            0.000742279017           
       1.002025              0.0065988141            0.000831253672           
       1.004665             0.00798319047            0.000835557376           
       1.007306             0.00891086957            0.000878252525           
       1.009946             0.00692451479            0.000789577267           
       1.012586             0.00827518924            0.000840662406           
       1.015227             0.00719865545            0.000842343466           
       1.017867             0.00792264565            0.000849284645           
       1.020507             0.00685021855            0.000764946268           
       1.023148             0.00705298085            0.000837524496           
       1.025788             0.00958906469            0.000895429253           
       1.028429             0.00835578293            0.000875707242           
       1.031069              0.0072316132             0.00076663797           
       1.033709             0.00851210868            0.000884149248           
       1.036350             0.00815103051            0.000777062066           
       1.038990             0.00837013883            0.000801907174           
       1.041630             0.00810005865             0.00082279258           
       1.044271             0.00796945735            0.000767542951           
       1.046911             0.00883563197            0.000850098019           
       1.049552             0.00659763884            0.000771779026           
       1.052192             0.00745034809            0.000748890042           
       1.054832             0.00903885454            0.000832375568           
       1.057473             0.00753204828            0.000749036679           
       1.060113             0.00765389358            0.000736399472           
       1.062754             0.00847502406            0.000791153895           
       1.065394             0.00840916034            0.000833197586           
       1.068034             0.00937698662            0.000800533078           
       1.070675             0.00683625827            0.000713004592           
       1.073315             0.00910361323            0.000834585514           
       1.075955             0.00818189598            0.000746946015           
       1.078596             0.00793094295            0.000781586149           
       1.081236             0.00741455977            0.000723644906           
       1.083877             0.00825548536            0.000756729482           
       1.086517             0.00898824423            0.000846681576           
       1.089157             0.00805977643            0.000831915418           
       1.091798             0.00897153285            0.000769502743           
       1.094438             0.00955963401            0.000791759895           
       1.097078             0.00936051619            0.000751430622           
       1.099719             0.00910183779            0.000801477716           
       1.102359             0.00762456167            0.000686985665           
       1.105000             0.00843572225            0.000808013971           
       1.107640             0.00806402567             0.00075537993           
       1.110280             0.00812151866            0.000691679153           
       1.112921             0.00903992874            0.000783899296           
       1.115561             0.00941064053            0.000760153374           
       1.118202             0.00929798717            0.000756301804           
       1.120842              0.0102639242            0.000835146708           
       1.123482             0.00841686686            0.000752974548           
       1.126123             0.00922110946            0.000755946626           
       1.128763             0.00866912247            0.000737997028           
       1.131403             0.00956084524            0.000746802066           
       1.134044              0.0083506641            0.000718181605           
       1.136684              0.0087758537            0.000784957779           
       1.139325             0.00887283396            0.000727086677           
       1.141965             0.00728773743             0.00066330457           
       1.144605             0.00793903211            0.000660119337           
       1.147246             0.00987490559             0.00075345322           
       1.149886             0.00884808017              0.0007106731           
       1.152527             0.00938069107            0.000742391175           
       1.155167             0.00881808238            0.000684624641           
       1.157807               0.010086101            0.000785044123           
       1.160448             0.00881248148            0.000716580774           
       1.163088               0.009329098             0.00070326216           
       1.165728              0.0102297144            0.000756102605           
       1.168369             0.00973131759            0.000744266807           
       1.171009             0.00802193915            0.000655791692           
       1.173650             0.00850912055            0.000693133424           
       1.176290             0.00921645962            0.000704937859           
       1.178930             0.00969240303            0.000708518062           
       1.181571             0.00968649659            0.000722348034           
       1.184211              0.0081134613            0.000663442542           
       1.186851             0.00896697417            0.000681902691           
       1.189492              0.0101990113             0.00072234868           
       1.192132               0.009698379            0.000696493534           
       1.194773             0.00918517588            0.000680776669           
       1.197413              0.0090798843            0.000648531043           
       1.200053             0.00904609894            0.000663770857           
       1.202694             0.00981252146            0.000657403797           
       1.205334              0.0104234678            0.000730198039           
       1.207975              0.0109418828            0.000714116951           
       1.210615             0.00928870639            0.000725844076           
       1.213255             0.00945460817            0.000655755456           
       1.215896              0.0101176455            0.000690650631           
       1.218536              0.0108220978            0.000686820152           
       1.221176             0.00927638917            0.000691334598           
       1.223817             0.00956308325            0.000658919633           
       1.226457              0.0105617565            0.000706421659           
       1.229098             0.00986847329            0.000682809818           
       1.231738             0.00968417296            0.000679732818           
       1.234378             0.00933198811            0.000626989566           
       1.237019               0.010593029            0.000688378523           
       1.239659             0.00944773016            0.000644438169           
       1.242299              0.0114631246            0.000700835191           
       1.244940             0.00934647892            0.000615468764           
       1.247580              0.0115315591             0.00070454457           
       1.250221             0.00989834993             0.00064872077           
       1.252861              0.0108539522            0.000646709877           
       1.255501             0.00959868149            0.000660350811           
       1.258142              0.0112617773            0.000672128181           
       1.260782              0.0101816591            0.000652911976           
       1.263423              0.0100501259            0.000623308976           
       1.266063               0.010295476            0.000646625111           
       1.268703              0.0108382502            0.000657945774           
       1.271344              0.0106127776            0.000673131149           
       1.273984              0.0105804191            0.000649120041           
       1.276624              0.0102996349            0.000628417107           
       1.279265              0.0102922903            0.000638625135           
       1.281905              0.0106963695            0.000653930198           
       1.284546             0.00951645922             0.00059620209           
       1.287186              0.0101890896            0.000605256513           
       1.289826              0.0102190981             0.00063882946           
       1.292467              0.0108774071            0.000644567985           
       1.295107              0.0112647537            0.000649428306           
       1.297747             0.00932519085            0.000565423002           
       1.300388              0.0102920117            0.000647547359           
       1.303028             0.00967890333            0.000599491752           
       1.305669              0.0103058079            0.000633331245           
       1.308309              0.0111114995            0.000651145809           
       1.310949              0.0105283278            0.000633191304           
       1.313590             0.00985140566             0.00059335155           
       1.316230              0.0107611771            0.000661780253           
       1.318871              0.0113931133            0.000666891405           
       1.321511              0.0112789988             0.00065124422           
       1.324151             0.00908801327            0.000567248216           
       1.326792              0.0106761523            0.000618618295           
       1.329432             0.00987095374             0.00059063522           
       1.332072               0.010678503            0.000605165193           
       1.334713              0.0117823689            0.000656079578           
       1.337353              0.0108809901            0.000604647219           
       1.339994                 0.0105946            0.000626111026           
       1.342634             0.00995708277            0.000582056701           
       1.345274              0.0104897388            0.000618276141           
       1.347915                0.01069825            0.000607148364           
       1.350555              0.0105259821            0.000612787781           
       1.353195              0.0115379993            0.000644721051           
       1.355836              0.0108192012            0.000614580584           
       1.358476              0.0100797223            0.000576093073           
       1.361117              0.0107943384            0.000596983181           
       1.363757             0.00991708824            0.000589683161           
       1.366397              0.0110698842            0.000604161357           
       1.369038              0.0105941148            0.000596920816           
       1.371678              0.0117438124            0.000622935666           
       1.374319                0.01096784            0.000596819982           
       1.376959              0.0110388874            0.000592728547           
       1.379599               0.011605947            0.000651336732           
       1.382240              0.0112797662            0.000603495202           
       1.384880              0.0116119782            0.000648583672           
       1.387520              0.0118005416            0.000620961141           
       1.390161              0.0100168859            0.000543367414           
       1.392801               0.010544069            0.000580842871           
       1.395442              0.0114716516            0.000614127922           
       1.398082               0.011781039            0.000582807647           
       1.400722              0.0107123591            0.000582130719           
       1.403363              0.0106703487            0.000611560601           
       1.406003              0.0111999067            0.000586368885           
       1.408644              0.0115759675            0.000624486932           
       1.411284              0.0100223138             0.00055022205           
       1.413924              0.0107777818            0.000568467515           
       1.416565              0.0116531451            0.000588780228           
       1.419205             0.00934442751            0.000549994992           
       1.421845              0.0111490793             0.00060040846           
       1.424486              0.0105639452            0.000561781749           
       1.427126               0.011118356            0.000598700403           
       1.429767              0.0108591715            0.000556699877           
       1.432407              0.0111215998            0.000589597101           
       1.435047             0.00996485681            0.000524142759           
       1.437688              0.0112807086             0.00056601462           
       1.440328              0.0117974284            0.000590763847           
       1.442968               0.010247281            0.000562921403           
       1.445609              0.0118240436            0.000585499071           
       1.448249              0.0114227738            0.000590049071           
       1.450890              0.0102679808            0.000555777488           
       1.453530              0.0120682454            0.000630370207           
       1.456170              0.0109640584            0.000583129914           
       1.458811              0.0107137538            0.000551199582           
       1.461451              0.0107584678            0.000553797549           
       1.464092              0.0104250711            0.000548713227           
       1.466732              0.0107063833            0.000551288815           
       1.469372              0.0104401217            0.000531650128           
       1.472013              0.0105749518            0.000577085998           
       1.474653              0.0103165938             0.00056120011           
       1.477293              0.0102703188            0.000571741735           
       1.479934             0.00975700862            0.000531752748           
       1.482574              0.0106617475            0.000537707918           
       1.485215              0.0105462323            0.000544747604           
       1.487855              0.0109671578            0.000562840461           
       1.490495              0.0102196796            0.000541320511           
       1.493136              0.0111715611            0.000558211499           
       1.495776              0.0114759218            0.000563188314           
       1.498416               0.010871189             0.00056608254           
       1.501057              0.0110490742            0.000558117874           
       1.503697              0.0105526279            0.000533250075           
       1.506338              0.0111879189            0.000559100282           
       1.508978              0.0105357423             0.00053722412           
       1.511618              0.0105934855            0.000573706792           
       1.514259             0.00987893652            0.000534880613           
       1.516899              0.0104412621             0.00053541358           
       1.519540             0.00969536089            0.000524254693           
       1.522180              0.0104042859            0.000547854043           
       1.524820              0.0099127628            0.000531756288           
       1.527461              0.0107390572            0.000556212751           
       1.530101              0.0107037075            0.000549742993           
       1.532741              0.0105789757            0.000543358771           
       1.535382               0.010403438            0.000547506449           
       1.538022              0.0106693177             0.00052232935           
       1.540663              0.0103507656             0.00055334717           
       1.543303              0.0095293287            0.000492983234           
       1.545943             0.00996030468            0.000533455104           
       1.548584              0.0107454771            0.000564028598           
       1.551224              0.0115426274            0.000540495297           
       1.553864              0.0112918175            0.000564895108           
       1.556505             0.00962031751            0.000503696993           
       1.559145              0.0104943213             0.00053252448           
       1.561786              0.0104941994            0.000532931512           
       1.564426              0.0104357712            0.000514915689           
       1.567066             0.00960201011            0.000517531322           
       1.569707              0.0102657059            0.000525506092           
       1.572347             0.00990066948            0.000533160515           
       1.574988             0.00915230392            0.000487923087           
       1.577628              0.0104264353            0.000543044857           
       1.580268              0.0100964027              0.0005177584           
       1.582909             0.00956790633            0.000534246702           
       1.585549             0.00998475339            0.000529915958           
       1.588189             0.00892961206            0.000490197411           
       1.590830             0.00970965198            0.000510518071           
       1.593470             0.00957017343            0.000526906728           
       1.596111             0.00970284721            0.000517978179           
       1.598751             0.00861621989            0.000472965007           
       1.601391             0.00833990622            0.000475585681           
       1.604032             0.00858215001            0.000492528809           
       1.606672             0.00947097022            0.000502708311           
       1.609312             0.00940238063            0.000522865022           
       1.611953             0.00946340861            0.000513313833           
       1.614593             0.00859362851            0.000479823378           
       1.617234             0.00985071999             0.00053240823           
       1.619874              0.0085377937            0.000493701708           
       1.622514             0.00868307334            0.000491092543           
       1.625155             0.00907287757             0.00050496023           
       1.627795             0.00934593437            0.000499945299           
       1.630436             0.00907394542            0.000490044505           
       1.633076             0.00847047255            0.000479678418           
       1.635716             0.00909005184            0.000489180534           
       1.638357             0.00899220954            0.000487823169           
       1.640997             0.00887888463            0.000499423254           
       1.643637             0.00882202197            0.000484436399           
       1.646278             0.00897096102            0.000503857554           
       1.648918             0.00844596916            0.000490225785           
       1.651559             0.00985175137            0.000533563214           
       1.654199             0.00859480944             0.00048470346           
       1.656839              0.0082597368            0.000475327202           
       1.659480             0.00878051369            0.000508486403           
       1.662120             0.00887910878            0.000481591726           
       1.664761             0.00984071312            0.000526641716           
       1.667401             0.00849242711            0.000467604302           
       1.670041             0.00851642721            0.000475404552           
       1.672682             0.00929503838             0.00049461981           
       1.675322             0.00891102227            0.000481180409           
       1.677962             0.00922179035            0.000484099182           
       1.680603             0.00920515293            0.000485150643           
       1.683243             0.00960611205            0.000517070498           
       1.685884              0.0090540644            0.000505700112           
       1.688524             0.00907120556            0.000496394079           
       1.691164              0.0090936941            0.000497121815           
       1.693805             0.00860718221            0.000488954032           
       1.696445             0.00962734559            0.000520119042           
       1.699085             0.00878287976            0.000480138082           
       1.701726             0.00851839293             0.00045551171           
       1.704366             0.00849436948             0.00047919196           
       1.707007             0.00855111114            0.000470072454           
       1.709647             0.00784360375            0.000455290289           
       1.712287             0.00793360868            0.000461880685           
       1.714928             0.00864281962            0.000485970198           
       1.717568             0.00903584079            0.000468078755           
       1.720209             0.00931418702            0.000497774214           
       1.722849             0.00919701869            0.000492090455           
       1.725489             0.00833014419            0.000468718598           
       1.728130             0.00821677599            0.000494715379           
       1.730770             0.00918109322            0.000496652485           
       1.733410              0.0076439182            0.000446048946           
       1.736051             0.00849636552            0.000473536556           
       1.738691             0.00870676071            0.000469646462           
       1.741332              0.0089925914            0.000491249491           
       1.743972             0.00815029486            0.000482956292           
       1.746612             0.00804680175            0.000460807316           
       1.749253             0.00806505339            0.000470440134           
       1.751893             0.00860386335            0.000482334067           
       1.754533             0.00886991147             0.00048927729           
       1.757174             0.00725030098            0.000438215087           
       1.759814             0.00882842152            0.000476230683           
       1.762455             0.00956060748            0.000504685493           
       1.765095             0.00834972601            0.000451184699           
       1.767735             0.00847891189            0.000468687942           
       1.770376             0.00955886468            0.000498953748           
       1.773016             0.00820328154            0.000459126259           
       1.775657             0.00883288986            0.000469564693           
       1.778297             0.00921074682            0.000475374193           
       1.780937             0.00814928172            0.000471960805           
       1.783578             0.00920593261            0.000489083365           
       1.786218              0.0077694699            0.000468902637           
       1.788858             0.00883805507            0.000474983603           
       1.791499             0.00956907088            0.000488686145           
       1.794139             0.00890955184            0.000467719188           
       1.796780             0.00914392295            0.000471546776           
       1.799420             0.00819392366            0.000443907781           
       1.802060             0.00959355343            0.000484206244           
       1.804701             0.00902670387            0.000450729587           
       1.807341              0.0099416639            0.000497042855           
       1.809981             0.00945771887            0.000486410615           
       1.812622             0.00912338745            0.000469135132           
       1.815262             0.00839336444            0.000459533032           
       1.817903             0.00996391594            0.000493265438           
       1.820543             0.00835623629            0.000458760608           
       1.823183             0.00882718186            0.000471251756           
       1.825824             0.00965700642             0.00047090145           
       1.828464             0.00908354752            0.000476135527           
       1.831105             0.00982528744            0.000481503054           
       1.833745             0.00925980473            0.000477424701           
       1.836385             0.00841388419            0.000468082888           
       1.839026             0.00952266247            0.000496397279           
       1.841666             0.00836436421            0.000463579208           
       1.844306             0.00792518737            0.000438932407           
       1.846947             0.00849608963            0.000458450807           
       1.849587             0.00891188014            0.000518480341           
       1.852228             0.00902660944            0.000471842892           
       1.854868             0.00940664787            0.000508816558           
       1.857508              0.0084591742            0.000477779196           
       1.860149              0.0085842129            0.000490041859           
       1.862789             0.00859935051            0.000473420592           
       1.865429              0.0088818967            0.000502231588           
       1.868070             0.00823608705            0.000477182299           
       1.870710             0.00843410665            0.000471751952           
       1.873351             0.00882366518            0.000488488819           
       1.875991             0.00994139272            0.000526968061           
       1.878631              0.0090445762            0.000493010771           
       1.881272             0.00895074386             0.00048716062           
       1.883912             0.00844341968            0.000492414881           
       1.886553             0.00931997607            0.000511560043           
       1.889193             0.00825602859            0.000480653504           
       1.891833             0.00837617113            0.000502796329           
       1.894474             0.00857369646             0.00050426003           
       1.897114              0.0092170011            0.000505937286           
       1.899754             0.00819926321            0.000479184336           
       1.902395             0.00911836234            0.000495448528           
       1.905035             0.00924437354             0.00052837657           
       1.907676             0.00846771727            0.000476618283           
       1.910316             0.00912207126            0.000507826176           
       1.912956             0.00872837942            0.000485818403           
       1.915597             0.00871365424            0.000488121313           
       1.918237             0.00843690324            0.000496040522           
       1.920878             0.00882208896            0.000505161031           
       1.923518             0.00923162504            0.000516972489           
       1.926158             0.00904480615            0.000505074552           
       1.928799             0.00812025641            0.000473025253           
       1.931439             0.00840105688            0.000493754074           
       1.934079             0.00854822476            0.000519215334           
       1.936720             0.00855550233            0.000481272826           
       1.939360             0.00973843313            0.000547798432           
       1.942001             0.00840406863            0.000466420665           
       1.944641             0.00876929512            0.000485832759           
       1.947281             0.00800356676            0.000459858869           
       1.949922             0.00856802654            0.000491457893           
       1.952562             0.00887222268             0.00051578221           
       1.955202              0.0079738807            0.000488377105           
       1.957843             0.00876268503            0.000498686847           
       1.960483              0.0089176034             0.00052596503           
       1.963124             0.00856148913            0.000504783383           
       1.965764             0.00740461675            0.000442696697           
       1.968404             0.00796219115            0.000454724546           
       1.971045             0.00914776818            0.000496934675           
       1.973685             0.00930078311            0.000525588757           
       1.976326             0.00828526743            0.000489248329           
       1.978966             0.00896635802            0.000513427114           
       1.981606             0.00934195492            0.000535000243           
       1.984247              0.0080716887            0.000494029173           
       1.986887             0.00846999703            0.000500009517           
       1.989527             0.00846086957             0.00049435814           
       1.992168             0.00869821074             0.00052008309           
       1.994808              0.0087567015            0.000519591938           
       1.997449             0.00839079057             0.00049817487           
       2.000089             0.00880684226            0.000508352808           
       2.002729             0.00774513771            0.000477012747           
       2.005370             0.00775568527            0.000472201437           
       2.008010             0.00754650181            0.000486118516           
       2.010650             0.00717708965            0.000477608571           
       2.013291             0.00818699546            0.000489418212           
       2.015931             0.00737470949            0.000461221375           
       2.018572             0.00808342342             0.00051648037           
       2.021212             0.00801841506            0.000505157291           
       2.023852             0.00829033485            0.000486146763           
       2.026493               0.007022226             0.00046741342           
       2.029133             0.00734395599            0.000468381695           
       2.031774             0.00759646382            0.000499935371           
       2.034414             0.00816934947            0.000477040515           
       2.037054             0.00797500085            0.000483278685           
       2.039695              0.0075903337            0.000467918506           
       2.042335             0.00784147976            0.000494249343           
       2.044975             0.00763158669            0.000481676556           
       2.047616             0.00737554557            0.000472351182           
       2.050256             0.00837653674             0.00050814871           
       2.052897             0.00907518707            0.000538666459           
       2.055537             0.00662037379            0.000444649872           
       2.058177             0.00779440674            0.000472466199           
       2.060818              0.0074471295            0.000483793253           
       2.063458             0.00780750594            0.000516215017           
       2.066098             0.00862082902            0.000511699426           
       2.068739              0.0076982554            0.000491060849           
       2.071379             0.00840104743            0.000526365274           
       2.074020              0.0082922015            0.000511579267           
       2.076660             0.00791726574            0.000503920846           
       2.079300             0.00793197187            0.000516747174           
       2.081941             0.00704929825            0.000446039023           
       2.084581             0.00728934076            0.000478747252           
       2.087222             0.00727033681            0.000461103721           
       2.089862             0.00759185201            0.000513196818           
       2.092502             0.00672205857            0.000468106955           
       2.095143             0.00785806102            0.000522642366           
       2.097783             0.00777922866            0.000503461249           
       2.100423              0.0072568278            0.000468559121           
       2.103064              0.0068313026            0.000471723056           
       2.105704             0.00728898022             0.00048485537           
       2.108345             0.00816603251            0.000493045392           
       2.110985             0.00801181893            0.000521612022           
       2.113625             0.00753721198            0.000510341404           
       2.116266             0.00772560527            0.000524010526           
       2.118906             0.00827408908             0.00050538652           
       2.121546             0.00694882458            0.000454304493           
       2.124187             0.00755243223            0.000497160155           
       2.126827             0.00864039521            0.000537699832           
       2.129468             0.00774646023            0.000510425854           
       2.132108             0.00846569179            0.000519147916           
       2.134748             0.00731585097            0.000480733147           
       2.137389               0.007829826            0.000518842356           
       2.140029             0.00841807773            0.000481632201           
       2.142670             0.00758454658            0.000488583084           
       2.145310             0.00736519088            0.000468619477           
       2.147950             0.00711368811            0.000474030315           
       2.150591             0.00700400483            0.000465608166           
       2.153231             0.00709155858            0.000482257486           
       2.155871             0.00660462875            0.000449613517           
       2.158512             0.00790457643            0.000513236336           
       2.161152              0.0073213622            0.000478460929           
       2.163793             0.00914346897            0.000532287744           
       2.166433             0.00725375882            0.000486853635           
       2.169073             0.00697434872            0.000466756704           
       2.171714             0.00738129558            0.000476591486           
       2.174354             0.00772988134            0.000509617455           
       2.176995             0.00709767261            0.000486277976           
       2.179635             0.00779699006            0.000538577314           
       2.182275             0.00681787892            0.000475504024           
       2.184916             0.00650586085            0.000448642766           
       2.187556             0.00743080195            0.000474669469           
       2.190196             0.00818140275            0.000520472794           
       2.192837             0.00733123569            0.000490008224           
       2.195477             0.00710527191            0.000459908807           
       2.198118             0.00801143798            0.000500869505           
       2.200758             0.00657951102            0.000465680262           
       2.203398             0.00730587182            0.000493851674           
       2.206039             0.00678846981            0.000450534677           
       2.208679             0.00698210397            0.000467548702           
       2.211319             0.00781229856            0.000497416357           
       2.213960              0.0074930292             0.00049367319           
       2.216600             0.00754948249            0.000512614108           
       2.219241             0.00738963763             0.00048470629           
       2.221881             0.00759017668             0.00049224923           
       2.224521              0.0066953063            0.000467986973           
       2.227162             0.00697577865            0.000468124167           
       2.229802             0.00717990563            0.000489790973           
       2.232443             0.00861894646            0.000528170105           
       2.235083             0.00748354912            0.000506670628           
       2.237723             0.00786790925            0.000498554088           
       2.240364               0.006666489            0.000470219567           
       2.243004             0.00714414071            0.000482888034           
       2.245644             0.00670156136            0.000472372789           
       2.248285             0.00781354861            0.000499841718           
       2.250925             0.00760511574            0.000496125375           
       2.253566             0.00764936715            0.000531936859           
       2.256206             0.00679523664            0.000491335206           
       2.258846             0.00730141178            0.000484491133           
       2.261487             0.00734531472            0.000510044941           
       2.264127             0.00694779813            0.000479078764           
       2.266767              0.0076302834            0.000515433924           
       2.269408             0.00734855205             0.00050790018           
       2.272048             0.00797915358            0.000526084814           
       2.274689              0.0080541032            0.000535514189           
       2.277329             0.00722962417            0.000477716563           
       2.279969             0.00745625917            0.000516410706           
       2.282610             0.00824658142            0.000527985076           
       2.285250             0.00680774623            0.000459155669           
       2.287891             0.00768564888            0.000523063592           
       2.290531             0.00618452703            0.000475517673           
       2.293171             0.00735890266            0.000505265005           
       2.295812             0.00680994057            0.000484100038           
       2.298452             0.00732859207            0.000525164141           
       2.301092             0.00666073017            0.000465177673           
       2.303733             0.00727527237            0.000505780129           
       2.306373             0.00787814995            0.000534607993           
       2.309014             0.00714662699            0.000499249976           
       2.311654             0.00652804489            0.000497933408           
       2.314294             0.00678195996            0.000467584515           
       2.316935             0.00660585995            0.000463380494           
       2.319575             0.00749682725            0.000517222223           
       2.322215             0.00689698258            0.000517018477           
       2.324856              0.0072198815            0.000486344805           
       2.327496             0.00755814414            0.000529112924           
       2.330137             0.00732495191            0.000498449496           
       2.332777             0.00667341282            0.000490564752           
       2.335417             0.00703166949             0.00048852888           
       2.338058              0.0074515476             0.00051792585           
       2.340698             0.00744003045            0.000513458514           
       2.343339             0.00737087205            0.000522313026           
       2.345979             0.00739504646            0.000494959339           
       2.348619             0.00688409335             0.00049501026           
       2.351260             0.00716966215            0.000502229786           
       2.353900             0.00685892006            0.000489669498           
       2.356540             0.00708120723            0.000496834682           
       2.359181             0.00669729029            0.000476404814           
       2.361821             0.00736307091            0.000482526551           
       2.364462             0.00734649789            0.000504094124           
       2.367102             0.00690803079            0.000502340304           
       2.369742             0.00665100516            0.000518818122           
       2.372383             0.00760640834            0.000502398791           
       2.375023             0.00752901741            0.000525436413           
       2.377663             0.00777328312            0.000510478964           
       2.380304             0.00722238162            0.000500261931           
       2.382944              0.0081929932             0.00050749187           
       2.385585             0.00812253773            0.000538916572           
       2.388225             0.00634819811            0.000474193248           
       2.390865              0.0071555194            0.000498271981           
       2.393506             0.00724621133            0.000491959819           
       2.396146             0.00616741622            0.000490738267           
       2.398787             0.00762979384            0.000503021571           
       2.401427             0.00804205578            0.000498476632           
       2.404067             0.00714133458            0.000480210545           
       2.406708             0.00691161046            0.000466758519           
       2.409348             0.00665942509            0.000485972588           
       2.411988             0.00745279453            0.000503710505           
       2.414629             0.00717893837            0.000509765921           
       2.417269             0.00637320672            0.000485915579           
       2.419910             0.00718347412            0.000517077546           
       2.422550             0.00770833878            0.000512462379           
       2.425190             0.00697840855            0.000513976691           
       2.427831             0.00706440992            0.000514227106           
       2.430471             0.00676717188            0.000479483506           
       2.433112             0.00622382525            0.000447766319           
       2.435752             0.00769264484            0.000526834703           
       2.438392             0.00570637691            0.000437961596           
       2.441033             0.00732133885            0.000525744284           
       2.443673             0.00759298764            0.000535820593           
       2.446313             0.00730053775             0.00052586374           
       2.448954             0.00754967701            0.000509167528           
       2.451594             0.00677329068            0.000518560254           
       2.454235             0.00640239918            0.000473033369           
       2.456875             0.00688100741            0.000513129388           
       2.459515             0.00797884658            0.000566853202           
       2.462156             0.00865111583            0.000557278993           
       2.464796             0.00903498097            0.000562160925           
       2.467436             0.00743291042            0.000527286132           
       2.470077             0.00778588222            0.000511500418           
       2.472717             0.00779788982            0.000514112111           
       2.475358             0.00831601735            0.000536453337           
       2.477998             0.00745330508            0.000499303607           
       2.480638             0.00782576074            0.000520718235           
       2.483279              0.0076123749            0.000536762448           
       2.485919             0.00807424825             0.00053275539           
       2.488560             0.00666954718            0.000482847285           
       2.491200             0.00757055087            0.000529725816           
       2.493840             0.00755247878            0.000559849861           
       2.496481             0.00685498357            0.000524646973           
       2.499121             0.00710430269            0.000519500077           
       2.501761              0.0073262994            0.000534544196           
       2.504402             0.00642399114            0.000493232777           
       2.507042             0.00738715899             0.00052499962           
       2.509683             0.00803463288            0.000539156071           
       2.512323             0.00605542862            0.000491581997           
       2.514963              0.0072647022            0.000531781881           
       2.517604             0.00669607209            0.000529769761           
       2.520244             0.00692134263            0.000504945379           
       2.522884             0.00695995689            0.000513593281           
       2.525525             0.00846477789            0.000572829539           
       2.528165             0.00803389254            0.000549360799           
       2.530806             0.00819947645            0.000564666936           
       2.533446              0.0107133997            0.000631673803           
       2.536086             0.00727444126            0.000515851184           
       2.538727             0.00599033862            0.000449082851           
       2.541367             0.00724371246            0.000498698957           
       2.544008             0.00595422631            0.000466947666           
       2.546648             0.00731597011            0.000526474879           
       2.549288             0.00693340816             0.00052296815           
       2.551929             0.00825491675            0.000561538728           
       2.554569             0.00698165312            0.000497526811           
       2.557209              0.0071391504            0.000507727728           
       2.559850             0.00642692242            0.000483283003           
       2.562490             0.00729681329            0.000532230371           
       2.565131             0.00785834803            0.000572680658           
       2.567771             0.00760291676            0.000543102339           
       2.570411              0.0067874969            0.000507600175           
       2.573052             0.00676663033            0.000513202009           
       2.575692             0.00730184538            0.000529883717           
       2.578332             0.00581151718            0.000474680332           
       2.580973              0.0056258245            0.000462591461           
       2.583613             0.00619301892            0.000473794115           
       2.586254             0.00737995919            0.000516489447           
       2.588894             0.00607501853            0.000486625447           
       2.591534             0.00685985087             0.00053530023           
       2.594175             0.00675626447            0.000521218386           
       2.596815             0.00707882267            0.000536661093           
       2.599456             0.00771757679            0.000531378157           
       2.602096             0.00727466919            0.000519831329           
       2.604736             0.00634057734            0.000496818891           
       2.607377             0.00685645827             0.00050301974           
       2.610017             0.00701381838            0.000499856202           
       2.612657             0.00749612247            0.000549648731           
       2.615298             0.00798793032            0.000553954132           
       2.617938             0.00716858904            0.000561375625           
       2.620579              0.0065604891            0.000515550808           
       2.623219             0.00743214195            0.000547949889           
       2.625859             0.00736979075            0.000530521508           
       2.628500             0.00776275719               0.000540913           
       2.631140             0.00683636896            0.000515433775           
       2.633780             0.00788353031            0.000553022488           
       2.636421             0.00691367138            0.000530625004           
       2.639061             0.00671174504            0.000492173664           
       2.641702              0.0074721592            0.000531328699           
       2.644342             0.00697336326            0.000515475403           
       2.646982             0.00765118966            0.000531875105           
       2.649623             0.00709456527            0.000536726102           
       2.652263             0.00611335244              0.0004932299           
       2.654904             0.00637242007            0.000504078962           
       2.657544             0.00700191672            0.000497688864           
       2.660184             0.00641304029            0.000504065092           
       2.662825             0.00811625372            0.000580220285           
       2.665465             0.00687143259            0.000516344062           
       2.668105             0.00779538546            0.000579683242           
       2.670746             0.00883027582            0.000569942195           
       2.673386              0.0117426651            0.000677343231           
       2.676027              0.0126533011            0.000691832122           
       2.678667             0.00938042651            0.000581230855           
       2.681307              0.0117441872            0.000639008375           
       2.683948              0.0154337167            0.000752649138           
       2.686588               0.012784377            0.000673650349           
       2.689229             0.00986027096            0.000578101717           
       2.691869             0.00921386254            0.000590629084           
       2.694509             0.00948717929            0.000599654493           
       2.697150             0.00758756154            0.000527569735           
       2.699790             0.00703834708            0.000532688138           
       2.702430             0.00676619977            0.000499244598           
       2.705071             0.00670700975            0.000513613704           
       2.707711             0.00645392496            0.000489004847           
       2.710352              0.0063634362            0.000513059817           
       2.712992             0.00757103852            0.000569976123           
       2.715632             0.00680643335            0.000501410994           
       2.718273              0.0067090274            0.000515913329           
       2.720913             0.00630105987            0.000498558698           
       2.723553              0.0075710882            0.000550164824           
       2.726194             0.00724050255            0.000562407726           
       2.728834             0.00900926955            0.000627646951           
       2.731475             0.00794737426            0.000544055126           
       2.734115             0.00715750972            0.000532335754           
       2.736755             0.00608930091            0.000495049176           
       2.739396             0.00755082303            0.000548072759           
       2.742036             0.00680272432            0.000544437572           
       2.744677              0.0063418667            0.000510047175           
       2.747317             0.00837223112            0.000581854588           
       2.749957             0.00616961537            0.000502990825           
       2.752598             0.00778829604            0.000571268209           
       2.755238              0.0076912638            0.000577946656           
       2.757878             0.00888415559             0.00061571983           
       2.760519             0.00785498065            0.000572819918           
       2.763159             0.00788867512            0.000568310586           
       2.765800             0.00676547979            0.000501555275           
       2.768440             0.00768812808            0.000538601401           
       2.771080             0.00865405832            0.000576205152           
       2.773721              0.0075911534            0.000553582311           
       2.776361             0.00658944706             0.00052288162           
       2.779001             0.00736558328            0.000572499429           
       2.781642             0.00770950949            0.000581396577           
       2.784282              0.0076351531            0.000588100304           
       2.786923             0.00727775971            0.000579226629           
       2.789563             0.00712755509            0.000552076432           
       2.792203             0.00811179489            0.000562627052           
       2.794844             0.00635692835            0.000545870807           
       2.797484             0.00658672211            0.000524397507           
       2.800125             0.00784375603            0.000601724104           
       2.802765             0.00730671155            0.000570768511           
       2.805405              0.0069979152            0.000560467969           
       2.808046             0.00662613611            0.000554964234           
       2.810686              0.0078040064            0.000553419146           
       2.813326             0.00843080845            0.000597489331           
       2.815967             0.00760909737            0.000583765022           
       2.818607             0.00655670209             0.00051711529           
       2.821248              0.0074127409            0.000538421995           
       2.823888             0.00718590785            0.000550278015           
       2.826528             0.00670922131            0.000514937911           
       2.829169             0.00680497388            0.000543203841           
       2.831809             0.00592559778            0.000513787129           
       2.834449             0.00657477943            0.000544620152           
       2.837090             0.00605503279            0.000504797483           
       2.839730             0.00771240506            0.000566928432           
       2.842371             0.00723419047            0.000549863173           
       2.845011             0.00559531905            0.000487438832           
       2.847651             0.00656322706            0.000528566292           
       2.850292             0.00693957718             0.00054884372           
       2.852932             0.00710352222            0.000567390598           
       2.855573             0.00732978172            0.000559081527           
       2.858213             0.00705120063            0.000575838391           
       2.860853             0.00569167537            0.000481259548           
       2.863494             0.00605570303             0.00051396455           
       2.866134             0.00620785588            0.000540871872           
       2.868774             0.00691378237            0.000560976132           
       2.871415             0.00627107276            0.000542587863           
       2.874055             0.00720900569            0.000556081234           
       2.876696             0.00742584581            0.000579648227           
       2.879336             0.00729596805            0.000553762342           
       2.881976             0.00634922244             0.00053282235           
       2.884617             0.00737892503             0.00056596964           
       2.887257             0.00683299349            0.000547441808           
       2.889897             0.00706179764            0.000545077962           
       2.892538             0.00569865111            0.000536414923           
       2.895178              0.0066385404            0.000523054864           
       2.897819             0.00740791445            0.000563637371           
       2.900459             0.00701349846            0.000537758766           
       2.903099             0.00666009724            0.000518671072           
       2.905740             0.00654464396            0.000527458167           
       2.908380              0.0073454387            0.000565145985           
       2.911021             0.00699664403            0.000560532513           
       2.913661              0.0075253628            0.000581151695           
       2.916301             0.00729050372            0.000572556724           
       2.918942             0.00727113348            0.000546936554           
       2.921582             0.00675698253            0.000551649937           
       2.924222             0.00689089819             0.00053971273           
       2.926863             0.00772114165            0.000595076647           
       2.929503             0.00779125587            0.000604854497           
       2.932144             0.00808828309            0.000591587403           
       2.934784             0.00689854673            0.000537389698           
       2.937424             0.00636870934            0.000521641733           
       2.940065              0.0070487651            0.000523490127           
       2.942705             0.00651735545            0.000502738885           
       2.945346              0.0064695611            0.000531573285           
       2.947986             0.00622509666            0.000531681547           
       2.950626             0.00709768092            0.000564526888           
       2.953267              0.0071316616            0.000556733578           
       2.955907             0.00728960406            0.000583894784           
       2.958547             0.00725990225            0.000550102487           
       2.961188             0.00639263762            0.000538541056           
       2.963828             0.00734000549            0.000564479148           
       2.966469             0.00701793597            0.000541466867           
       2.969109             0.00731435963             0.00056097418           
       2.971749             0.00785148274            0.000577580861           
       2.974390             0.00723130983            0.000544701888           
       2.977030             0.00812847299            0.000590410027           
       2.979670             0.00928324646            0.000613726348           
       2.982311             0.00849794866            0.000608597414           
       2.984951             0.00678355816            0.000517157134           
       2.987592             0.00733382197            0.000548493541           
       2.990232             0.00754396549            0.000578542175           
       2.992872             0.00765804451             0.00054905894           
       2.995513             0.00825246237            0.000557618014           
       2.998153              0.0122366614            0.000690418742           
       3.000794              0.0128714389             0.00068586768           
       3.003434              0.0105164539            0.000620892889           
       3.006074                0.04787297              0.0013061622           
       3.008715                0.12671359             0.00205131302           
       3.011355                0.18806353             0.00240987862           
       3.013995              0.0974930521             0.00173984161           
       3.016636               0.063815836             0.00137839883           
       3.019276               0.130366627             0.00193659321           
       3.021917                0.49219277             0.00361821189           
       3.024557                1.64255981             0.00649855736           
       3.027197                1.15345887             0.00530931613           
       3.029838               0.523306497             0.00362687503           
       3.032478               0.263496477             0.00257622204           
       3.035118              0.0704927072             0.00135037928           
       3.037759              0.0941053617             0.00155822497           
       3.040399               0.129734271             0.00188725284           
       3.043040               0.535210816             0.00388021791           
       3.045680               0.381263787             0.00308127606           
       3.048320              0.0888570436             0.00151988569           
       3.050961               0.108930664             0.00171248118           
       3.053601              0.0905384516             0.00150365507           
       3.056242              0.0678141786             0.00138360461           
       3.058882              0.0598517405             0.00139434313           
       3.061522              0.0495427212             0.00124463778           
       3.064163              0.0615960694             0.00137033269           
       3.066803               0.125765919             0.00206143932           
       3.069443               0.112385849             0.00203883894           
       3.072084              0.0371642367             0.00114164122           
       3.074724              0.0438996233             0.00138567637           
       3.077365              0.0726802203             0.00184566601           
       3.080005              0.0111642067            0.000727466351           
       3.082645              0.0136652308            0.000845499159           
       3.085286              0.0142292833            0.000869579304           
       3.087926              0.0100106034            0.000723748483           
       3.090566              0.0121377501            0.000780849202           
       3.093207             0.00907780931            0.000702706349           
       3.095847              0.0101477994             0.00071212209           
       3.098488             0.00884186655            0.000737063685           
       3.101128              0.0107006351            0.000816059556           
       3.103768             0.00939221137            0.000750157663           
       3.106409             0.00821684973            0.000746745649           
       3.109049             0.00900132065            0.000750043115           
       3.111690             0.00898686943            0.000736575246           
       3.114330             0.00753946176            0.000689009246           
       3.116970             0.00773693269            0.000703332507           
       3.119611              0.0132302655            0.000978992386           
       3.122251              0.0215030427             0.00130554131           
       3.124891              0.0334083381             0.00164245961           
       3.127532              0.0235738211             0.00134974073           
       3.130172              0.0149623119             0.00109389329           
       3.132813              0.0087959574            0.000825691229           
       3.135453             0.00859935102            0.000809686258           
       3.138093             0.00580977054            0.000721118301           
       3.140734             0.00731536349            0.000746530576           
       3.143374             0.00723667404            0.000785231087           
       3.146014             0.00601828471            0.000770897743           
       3.148655             0.00637451585            0.000737524869           
       3.151295             0.00618501432            0.000774177567           
       3.153936             0.00614514561            0.000745418016           
       3.156576             0.00500266615            0.000663417195           
       3.159216              0.0065634921            0.000763695594           
       3.161857             0.00815999621            0.000848060217           
       3.164497             0.00719208992            0.000836551918           
       3.167138             0.00852307876            0.000940949927           
       3.169778             0.00671851195            0.000821642703           
       3.172418             0.00609950654            0.000774914359           
       3.175059             0.00562476642            0.000659717618           
       3.177699             0.00632481057            0.000740799615           
       3.180339             0.00575847391            0.000757340939           
       3.182980               0.005955173             0.00079627445           
       3.185620             0.00596848682            0.000811843733           
       3.188261             0.00687568734            0.000886911302           
       3.190901             0.00608289741            0.000767234593           
       3.193541             0.00554912601            0.000769995651           
       3.196182             0.00567481215            0.000811482629           
       3.198822             0.00519379224            0.000776589133           
       3.201463             0.00616214146             0.00083131835           
       3.204103             0.00498726153            0.000743330985           
       3.206743             0.00610882801            0.000822601219           
       3.209384             0.00477443838            0.000785709487           
       3.212024             0.00526817891            0.000769472572           
       3.214664              0.0048938012            0.000843336564           
       3.217305             0.00643330525            0.000919133353           
       3.219945             0.00456968815            0.000797313333           
       3.222586             0.00542411702            0.000827385068           
       3.225226             0.00591278763            0.000958309128           
       3.227866              0.0042746712            0.000744735855           
       3.230507             0.00346725073            0.000695278168           
       3.233147             0.00895168352             0.00112618856           
       3.235787             0.00636970005            0.000972194291           
       3.238428             0.00601527927             0.00101951554           
       3.241068             0.00498215131            0.000867579135           
       3.243709             0.00595462979            0.000979930199           
       3.246349             0.00603270811             0.00089913522           
       3.248989             0.00557594615             0.00102069536           
       3.251630             0.00730270192             0.00112484486           
       3.254270             0.00649311685            0.000947945177           
       3.256911             0.00560750619            0.000961192597           
       3.259551             0.00707149588             0.00116206707           
       3.262191             0.00397606519            0.000890060307           
       3.264832             0.00562994493             0.00110662068           
       3.267472             0.00666851669              0.0011298322           
       3.270112             0.00697143695             0.00127665291           
       3.272753              0.0062761747             0.00110875089           
       3.275393             0.00508402839             0.00101821369           
       3.278034             0.00672371549             0.00117161265           
       3.280674             0.00818595595             0.00140281177           
       3.283314             0.00441801918            0.000921696868           
       3.285955             0.00674852625             0.00117534691           
       3.288595             0.00484409584             0.00110785418           
       3.291235             0.00588355342             0.00125512098           
       3.293876             0.00301652069            0.000911622955           
       3.296516              0.0055926964             0.00119166477           
       3.299157             0.00741305649             0.00135472325           
       3.301797             0.00708216056             0.00151042954           
       3.304437             0.00532044715             0.00113422845           
       3.307078             0.00436489136             0.00113167566           
       3.309718             0.00528675853             0.00128553911           
       3.312359             0.00721173024             0.00150180466           
       3.314999             0.00482398823             0.00120934065           
       3.317639             0.00555579744             0.00124121756           
       3.320280             0.00468444887             0.00121177372           
       3.322920             0.00778153243             0.00158808451           
       3.325560             0.00388709003             0.00112317724           
       3.328201             0.00524195754             0.00117469355           
       3.330841             0.00627589476             0.00156433063           
       3.333482             0.00381952978             0.00115354084           
       3.336122             0.00975632833             0.00184446669           
       3.338762             0.00701224662              0.0018063272           
       3.341403             0.00248044726             0.00102655378           
       3.344043             0.00389836373             0.00123556736           
       3.346683             0.00446452059             0.00134990662           
       3.349324             0.00621750181             0.00179109118           
       3.351964             0.00574060394             0.00181992539           
       3.354605             0.00455787941              0.0018546007           
       3.357245             0.00607898362             0.00193215627           
       3.359885               0.003931658             0.00124365581           
       3.362526             0.00182703334             0.00106019025           
       3.365166             0.00274410939              0.0012254966           
       3.367807              0.0071469564             0.00253112136           
       3.370447             0.00678715989             0.00204606802           
       3.373087             0.00415663285             0.00171227737           
       3.375728               0.003583705             0.00179435611           
       3.378368             0.00193865828             0.00195867799           
       3.381008             0.00433010901             0.00218242819           
       3.383649             0.00351844986             0.00157815876           
       3.386289             0.00295736214             0.00171241019           
       3.388930              0.0099699978             0.00497331989           
       3.391570             0.00856138727             0.00326011877           
       3.394210             0.00395092718             0.00280272722           
       3.396851             0.00243889816             0.00246321289           
       3.399491             0.00492085932              0.0034998359           
       3.402131             0.00986742038             0.00701173527           
       3.404772           -2.66313613e-05                         0           
       3.407412                       nan                       nan           
       3.410053           -2.66969545e-05                         0           
       3.412693                       nan                       nan           
       3.415333             0.00906298168             0.00952637713           
