################################################################################
# EDF_DataBlockID                     0.Image.Psd
# EDF_BinarySize                      2105344
# EDF_HeaderSize                      2560
# ByteOrder                           LowByteFirst
# DataType                            FloatValue
# Dim_1                               512
# Dim_2                               1028
# Image                               0
# HeaderID                            EH:000000:000000:000000
# Size                                2105344
# Center_1                            304.9000
# Center_2                            588.7000
# Comment                             Xenocs_Cell_Window - 20251028_20perc_iodine_1.23mg
# DDummy                              0.6
# Date                                2025-10-29T06:53:06
# Delta                               21.910000
# Dummy                               -1.5
# ExposureTime                        360
# Gamma                               15.360000
# Intensity1                          8.49164e-10
# PSize_1                             7.5e-05
# PSize_2                             7.5e-05
# Pressure                            0.0333462
# SampleDistance                      0.115750
# SampleEnvKind                       large
# SampleEnvPN                         ElectroChemical cell
# SampleEnvSN                         1141
# Thickness                           0
# Wavelength                          1.541891e-10
# Wavelength                          1.54189e-10
# aux                                 0
# aux_dial                            0.002375
# beamx                               588.434
# beamx_dial                          588.434
# beamz                               657.808
# beamz_dial                          657.808
# det0x                               0
# det0x_dial                          6.36945
# det0xvd                             0
# det0xvd_dial                        0
# det0y                               450.002
# det0y_dial                          481.635
# det0z                               0
# det0z_dial                          1.23302
# det0zvd                             0
# det0zvd_dial                        0
# mag                                 1.818
# mag_dial                            1.818
# om                                  0.2499
# om_dial                             -0.610199
# phi                                 -0.0120535
# phi_dial                            0
# ry                                  0.599993
# ry_dial                             0.599993
# s1bot                               0.8
# s1bot_dial                          -1.66094
# s1hl                                0.8
# s1hl_dial                           -0.608437
# s1hr                                0.8
# s1hr_dial                           0.970938
# s1top                               0.8
# s1top_dial                          -0.461562
# s2bot                               0.45
# s2bot_dial                          1.36109
# s2hl                                0.45
# s2hl_dial                           -0.83375
# s2hr                                0.45
# s2hr_dial                           -0.118594
# s2top                               0.45
# s2top_dial                          1.44734
# w2theta                             32
# w2theta_dial                        32
# waxsch                              19.2605
# waxsch_dial                         -32.7355
# waxsh                               137.085
# waxsh_dial                          -43.5338
# waxsth                              26.0607
# waxsth_dial                         -19.4086
# waxsz                               67.0407
# waxsz_dial                          -23.7954
# wind                                65.9854
# wind_dial                           66.0041
# wpsi                                124
# wpsi_dial                           124
# wstod                               115
# wstod_dial                          115
# x                                   0
# x_dial                              1.00969
# z                                   0
# z_dial                              13.3172
# CountCutoff                         6807993
# DetectorModel                       Dectris EIGER2 Si 500K, S/N E-01-0554
# ThresholdSetting                    4023.88989258
# Saturation                          0
# FlatField                           Corrected
# BackgroundReductionExtra            0.02
# BackgroundCorrectionConstant        0.0026712
# Detector                            0
# Monitor                             0
# Pil_Roi0                            0
# SumForIntensity1                    3.05699e+08
# TransmittedFlux                     849164
# det                                 0
# mon                                 0
# pilai0                              3.05699e+08
# pilai1                              768794
# pilct0                              5.30075e+08
# pilct1                              768794
# pilroi0                             0
# pilroi1                             0
# sec                                 1
# title                               20251028_20perc_iodine_1.23mg_1_00150.edf
# usaxs0                              0
# Operation                           Azimuthal average I(q)
# Error_model                         ErrorModel.poisson
# Geometrical_correction              True
# Transmission_correction             True
# Thickness_correction                False
# Binning mode                        Uniform
# Binning factor                      1.0
# Psi                                 0.0
# Omega                               0.2499
# MaskInvalidPixels                   True
# DetectorEdge                        3
# MaskFiles                           ['WAXS_corrected.edf']
################################################################################
    q(A⁻¹)                Intensity(a.u.)            Sigma_I(a.u.)            
       0.693100           -2.39096367e-05                         0           
       0.695741             0.00562329004             0.00409374929           
       0.698381           -2.38898889e-05                         0           
       0.701021              0.0177774722              0.0126045123           
       0.703662             0.00569787284             0.00411895343           
       0.706302             0.00342611829             0.00247279911           
       0.708942              0.0028279612             0.00289964905           
       0.711583             0.00222617619             0.00222779013           
       0.714223           -2.38131326e-05                         0           
       0.716864             0.00379169115             0.00219624957           
       0.719504              0.0059192149             0.00296118214           
       0.722144             0.00505821572             0.00253500347           
       0.724785             0.00317513467             0.00160211012           
       0.727425             0.00740521697             0.00330994083           
       0.730065             0.00804896012                0.00244097           
       0.732706             0.00774611567             0.00201086672           
       0.735346             0.00529847716             0.00216790847           
       0.737987             0.00877065686             0.00197096331           
       0.740627             0.00583177094             0.00239800008           
       0.743267              0.0106432201             0.00216983967           
       0.745908             0.00941934455             0.00221467595           
       0.748548             0.00703969988             0.00176478317           
       0.751189              0.0048232505             0.00196834272           
       0.753829              0.0101880975             0.00262967732           
       0.756469             0.00832148072             0.00191641503           
       0.759110             0.00635609916             0.00176504235           
       0.761750             0.00653955442             0.00158304967           
       0.764390             0.00706939387             0.00172272921           
       0.767031             0.00653647374             0.00143448777           
       0.769671             0.00589629605             0.00169953209           
       0.772312             0.00675150765             0.00138449522           
       0.774952             0.00932650466             0.00219740572           
       0.777592             0.00572913092             0.00125444712           
       0.780233             0.00755380613             0.00173785955           
       0.782873             0.00656635897             0.00154966098           
       0.785513             0.00710511052             0.00172331069           
       0.788154              0.0105113133             0.00175343844           
       0.790794             0.00752430551             0.00177359428           
       0.793435             0.00607093172             0.00143119549           
       0.796075             0.00686563611             0.00146614809           
       0.798715             0.00567575539             0.00157529549           
       0.801356             0.00930680084              0.0017361463           
       0.803996             0.00871160039             0.00171248903           
       0.806637              0.0065935409             0.00118563332           
       0.809277             0.00827439063             0.00143760769           
       0.811917             0.00632223325             0.00117474954           
       0.814558              0.0103350873             0.00156105052           
       0.817198             0.00807225212             0.00131069692           
       0.819838             0.00739789755             0.00126990517           
       0.822479             0.00755940594             0.00150740541           
       0.825119             0.00715193984             0.00124793476           
       0.827760             0.00515775898             0.00107350313           
       0.830400             0.00668521558             0.00115028566           
       0.833040             0.00542495686             0.00108562492           
       0.835681             0.00953012676             0.00163578449           
       0.838321             0.00573717702             0.00106526974           
       0.840961             0.00957461902             0.00149939897           
       0.843602             0.00590406161             0.00107974345           
       0.846242             0.00628817765             0.00111414767           
       0.848883             0.00535555633             0.00105222696           
       0.851523             0.00644381069             0.00113985599           
       0.854163             0.00957294971             0.00147747677           
       0.856804              0.0053299815             0.00099125767           
       0.859444             0.00706619102             0.00111829617           
       0.862085             0.00770280143             0.00121691582           
       0.864725              0.0064586033             0.00114037987           
       0.867365             0.00935618338             0.00127275701           
       0.870006             0.00578294413             0.00095351717           
       0.872646             0.00866071465             0.00122364838           
       0.875286             0.00702316497             0.00106010581           
       0.877927             0.00743027085             0.00105218337           
       0.880567             0.00785207583             0.00112059744           
       0.883208             0.00673028667             0.00102769283           
       0.885848             0.00947096061             0.00126580497           
       0.888488              0.0068238203             0.00100776166           
       0.891129             0.00766649122             0.00109679269           
       0.893769             0.00688004696            0.000994364626           
       0.896410             0.00659106201            0.000907416826           
       0.899050             0.00816991898             0.00111102374           
       0.901690             0.00590006829             0.00102845839           
       0.904331             0.00647564942            0.000955224788           
       0.906971             0.00925079617             0.00121458486           
       0.909611             0.00700374342            0.000962049764           
       0.912252             0.00661121415            0.000965448699           
       0.914892             0.00790032578             0.00115331129           
       0.917533              0.0071997272             0.00104152937           
       0.920173             0.00621538211            0.000897849148           
       0.922813             0.00739934159             0.00102802061           
       0.925454             0.00519934522            0.000775979124           
       0.928094             0.00630289266            0.000912111334           
       0.930734             0.00793480724             0.00110180499           
       0.933375             0.00866399781             0.00114000091           
       0.936015             0.00764728133             0.00097271967           
       0.938656             0.00770122972             0.00104717262           
       0.941296             0.00561000226            0.000809990508           
       0.943936             0.00528423045            0.000770913293           
       0.946577             0.00720118584             0.00089399676           
       0.949217             0.00741211547            0.000834064413           
       0.951858             0.00840062262            0.000929497295           
       0.954498             0.00924337814             0.00112855343           
       0.957138             0.00595221574            0.000857951185           
       0.959779             0.00840513045             0.00100503654           
       0.962419             0.00722021626            0.000925307946           
       0.965059             0.00734482833             0.00098154389           
       0.967700             0.00782012097             0.00103731282           
       0.970340             0.00774703279              0.0009136196           
       0.972981              0.0082134377            0.000857085821           
       0.975621             0.00679233989            0.000829168549           
       0.978261             0.00802020504            0.000856110535           
       0.980902              0.0105645557             0.00117559389           
       0.983542             0.00728319236            0.000864396739           
       0.986182              0.0075219278            0.000862456343           
       0.988823             0.00708008044            0.000812478058           
       0.991463             0.00837699496            0.000942884775           
       0.994104             0.00716172445            0.000850466926           
       0.996744             0.00862246893            0.000951833994           
       0.999384             0.00715150212            0.000775254011           
       1.002025             0.00911350807            0.000976795795           
       1.004665             0.00875076712             0.00087472483           
       1.007306             0.00829721689            0.000847395094           
       1.009946             0.00728639685             0.00080987265           
       1.012586             0.00545707984            0.000682610828           
       1.015227             0.00717799397            0.000841056985           
       1.017867             0.00847160494            0.000878135155           
       1.020507             0.00821615398             0.00083767077           
       1.023148             0.00835358676            0.000911397892           
       1.025788             0.00760214632             0.00079720796           
       1.028429             0.00892039443            0.000904727426           
       1.031069             0.00798189815            0.000805352816           
       1.033709             0.00806403407            0.000860485465           
       1.036350             0.00917814608            0.000824493606           
       1.038990             0.00737833168            0.000752830517           
       1.041630             0.00751349427            0.000792369271           
       1.044271              0.0079768141            0.000767827049           
       1.046911             0.00901301902            0.000858510673           
       1.049552             0.00912802379            0.000907710677           
       1.052192             0.00746226409            0.000749420279           
       1.054832             0.00865991611            0.000814666443           
       1.057473             0.00881019859            0.000810027469           
       1.060113             0.00829588605            0.000766591514           
       1.062754             0.00885479997            0.000808612105           
       1.065394             0.00857200186            0.000841149468           
       1.068034             0.00921362979            0.000793456957           
       1.070675             0.00968162452            0.000848433042           
       1.073315             0.00781145746            0.000773019304           
       1.075955              0.0084504234            0.000759035052           
       1.078596             0.00784907854            0.000777470893           
       1.081236             0.00784306565            0.000744193905           
       1.083877             0.00819417039            0.000753845252           
       1.086517             0.00875546957            0.000835569845           
       1.089157             0.00654020775            0.000749331186           
       1.091798             0.00870619868            0.000757969087           
       1.094438             0.00891458701             0.00076451118           
       1.097078             0.00837799486            0.000710835968           
       1.099719              0.0073200879            0.000718696308           
       1.102359             0.00810024528            0.000708026771           
       1.105000             0.00819603077            0.000796379155           
       1.107640             0.00712978445            0.000710212074           
       1.110280             0.00981911981             0.00076047108           
       1.112921             0.00993639178            0.000821774166           
       1.115561              0.0110722981            0.000824462449           
       1.118202             0.00867559973            0.000730484118           
       1.120842             0.00719569013            0.000699201969           
       1.123482             0.00760105012            0.000715487788           
       1.126123              0.0093453708            0.000760953596           
       1.128763             0.00924343612            0.000761980971           
       1.131403               0.007636226            0.000667355299           
       1.134044             0.00920587169             0.00075399174           
       1.136684             0.00870970592            0.000781922511           
       1.139325             0.00983553998            0.000765445851           
       1.141965              0.0083241646            0.000708838537           
       1.144605             0.00861292288            0.000687502552           
       1.147246             0.00895567174            0.000717462589           
       1.149886             0.00930444416            0.000728703624           
       1.152527              0.0098165661            0.000759373682           
       1.155167             0.00945777859            0.000708957795           
       1.157807              0.0090343269            0.000742917639           
       1.160448             0.00928516491            0.000735480587           
       1.163088             0.00873321642             0.00068036959           
       1.165728             0.00876481819            0.000699811052           
       1.168369             0.00972921767            0.000744118578           
       1.171009             0.00994439332            0.000730088882           
       1.173650             0.00970055738            0.000740002535           
       1.176290             0.00964942819            0.000721240194           
       1.178930             0.00858721441            0.000666840098           
       1.181571             0.00952564895            0.000716260128           
       1.184211               0.010292115            0.000747158784           
       1.186851             0.00902784761            0.000684150919           
       1.189492             0.00859329342            0.000662991604           
       1.192132             0.00954209667            0.000690795944           
       1.194773             0.00972534316            0.000700444537           
       1.197413              0.0101510893            0.000685657604           
       1.200053             0.00998580687            0.000697331775           
       1.202694             0.00902738658            0.000630497369           
       1.205334             0.00965133323             0.00070256832           
       1.207975             0.00925435036            0.000656684312           
       1.210615             0.00934938452            0.000728144528           
       1.213255              0.0103650027            0.000686539003           
       1.215896             0.00913655122            0.000656251321           
       1.218536              0.0107849765            0.000685578618           
       1.221176             0.00999739568            0.000717633348           
       1.223817             0.00910593333            0.000642918722           
       1.226457               0.010713407            0.000711410209           
       1.229098               0.010329574            0.000698515966           
       1.231738              0.0112063841            0.000731139221           
       1.234378              0.0095797639            0.000635200729           
       1.237019             0.00984211002            0.000663470625           
       1.239659             0.00997548957             0.00066213262           
       1.242299             0.00996163363            0.000653265971           
       1.244940             0.00995460494            0.000635117933           
       1.247580             0.00950080745            0.000639447767           
       1.250221             0.00993971232            0.000650015434           
       1.252861              0.0100540689            0.000622367392           
       1.255501             0.00931961563            0.000650621313           
       1.258142              0.0104145515            0.000646292751           
       1.260782              0.0115501747            0.000695344454           
       1.263423             0.00962365084            0.000609884953           
       1.266063              0.0109601357            0.000667110346           
       1.268703              0.0104461655            0.000645876266           
       1.271344              0.0101903038            0.000659536875           
       1.273984              0.0101888986            0.000636938592           
       1.276624              0.0103051723            0.000628528641           
       1.279265              0.0107304133            0.000652016487           
       1.281905             0.00956700939            0.000618388855           
       1.284546              0.0107962641            0.000634969565           
       1.287186             0.00894498821            0.000567050877           
       1.289826               0.011195625            0.000668595092           
       1.292467              0.0103868133            0.000629807113           
       1.295107              0.0110309495            0.000642594746           
       1.297747              0.0110659133            0.000615883541           
       1.300388              0.0101627795            0.000643410305           
       1.303028              0.0110263194            0.000639802275           
       1.305669              0.0105824664            0.000641717234           
       1.308309              0.0111474106            0.000652137648           
       1.310949              0.0110668785            0.000649124758           
       1.313590              0.0101665442            0.000602712248           
       1.316230             0.00909716303            0.000608411288           
       1.318871             0.00927517723            0.000601665874           
       1.321511              0.0109303969             0.00064104266           
       1.324151              0.0107812839            0.000617780596           
       1.326792              0.0108802471            0.000624446331           
       1.329432             0.00997820758            0.000593781155           
       1.332072              0.0112662973            0.000621540906           
       1.334713              0.0107560641            0.000626797511           
       1.337353              0.0112636954            0.000615132483           
       1.339994               0.011522203            0.000652885753           
       1.342634              0.0116857967            0.000630505323           
       1.345274              0.0108386626            0.000628417627           
       1.347915              0.0123953385            0.000653473548           
       1.350555              0.0119872472            0.000653881233           
       1.353195              0.0105241821            0.000615688632           
       1.355836              0.0118623907            0.000643469119           
       1.358476              0.0120406172            0.000629583159           
       1.361117              0.0115221837            0.000616725404           
       1.363757               0.011660606            0.000639363086           
       1.366397              0.0123993628            0.000639354091           
       1.369038              0.0115395455            0.000622929787           
       1.371678              0.0114941818            0.000616223186           
       1.374319              0.0120397872            0.000625248371           
       1.376959              0.0108192379            0.000586748365           
       1.379599              0.0114261111            0.000646211766           
       1.382240              0.0104502901            0.000580829018           
       1.384880              0.0105286677            0.000617532721           
       1.387520              0.0114423952            0.000611409645           
       1.390161              0.0110099526            0.000569613548           
       1.392801               0.011049861            0.000594556745           
       1.395442              0.0123741018             0.00063776851           
       1.398082              0.0111557733            0.000567079103           
       1.400722              0.0111547155            0.000593974179           
       1.403363              0.0113774037            0.000631440067           
       1.406003              0.0122064889            0.000612095879           
       1.408644              0.0113310217            0.000617788188           
       1.411284              0.0121450462            0.000605639145           
       1.413924              0.0114751279            0.000586516298           
       1.416565              0.0116784685             0.00058936582           
       1.419205              0.0108676327            0.000593075825           
       1.421845              0.0103939502              0.0005796662           
       1.424486              0.0106881279            0.000565022493           
       1.427126              0.0118249643            0.000617375714           
       1.429767              0.0112233111            0.000565905144           
       1.432407              0.0105582216            0.000574417224           
       1.435047              0.0113447256            0.000559205479           
       1.437688              0.0105674317            0.000547777946           
       1.440328              0.0111331162            0.000573837552           
       1.442968              0.0104037432             0.00056715088           
       1.445609              0.0112853804            0.000571954733           
       1.448249              0.0108064199            0.000573856919           
       1.450890              0.0106484469            0.000565928967           
       1.453530              0.0106501599            0.000592123146           
       1.456170              0.0105857275             0.00057292842           
       1.458811              0.0110341985             0.00055933089           
       1.461451              0.0106430462            0.000550768573           
       1.464092              0.0104762975            0.000550009497           
       1.466732             0.00979286008            0.000527196989           
       1.469372              0.0117895366            0.000564913389           
       1.472013              0.0107010833            0.000580464373           
       1.474653              0.0105732752            0.000568086817           
       1.477293              0.0101083309            0.000567163167           
       1.479934               0.011767664            0.000583924758           
       1.482574              0.0101845981            0.000525490105           
       1.485215              0.0106292686            0.000546838034           
       1.487855                0.01197782            0.000588149207           
       1.490495              0.0119454493            0.000585190743           
       1.493136              0.0119443375            0.000577142744           
       1.495776                0.01085285            0.000547636144           
       1.498416              0.0103141326            0.000551338031           
       1.501057              0.0112397405            0.000562861429           
       1.503697              0.0108537914             0.00054075645           
       1.506338              0.0106664902            0.000545866176           
       1.508978             0.00956336428            0.000511786285           
       1.511618              0.0100466894            0.000558653341           
       1.514259             0.00975875811            0.000531568695           
       1.516899              0.0111548242            0.000553355979           
       1.519540               0.010713374            0.000551040894           
       1.522180              0.0111804722            0.000567870315           
       1.524820              0.0111650199            0.000564293942           
       1.527461             0.00984337086            0.000532463872           
       1.530101              0.0103871091            0.000541502284           
       1.532741             0.00996221757            0.000527233797           
       1.535382              0.0109137723            0.000560723299           
       1.538022              0.0114173784            0.000540280962           
       1.540663              0.0108697678            0.000566998554           
       1.543303               0.010649725            0.000521111375           
       1.545943             0.00954346503            0.000522125574           
       1.548584              0.0104711974            0.000556732799           
       1.551224              0.0104920344            0.000515263992           
       1.553864              0.0103940331            0.000541923889           
       1.556505              0.0102040003            0.000518704776           
       1.559145             0.00978631101            0.000514200229           
       1.561786              0.0110886489            0.000547767701           
       1.564426              0.0100524302            0.000505323789           
       1.567066              0.0104649719             0.00054023778           
       1.569707             0.00958219851            0.000507663908           
       1.572347             0.00998256171              0.0005353121           
       1.574988             0.00995402076            0.000508798454           
       1.577628              0.0103404303            0.000540751143           
       1.580268             0.00945877081            0.000501096688           
       1.582909             0.00927290128            0.000525898062           
       1.585549             0.00948577996            0.000516458238           
       1.588189              0.0102560894            0.000525298277           
       1.590830             0.00933181948            0.000500440918           
       1.593470             0.00883260352            0.000506149215           
       1.596111             0.00876151529            0.000492166263           
       1.598751             0.00867207354            0.000474452194           
       1.601391             0.00932455012            0.000502831516           
       1.604032             0.00983776026            0.000527280931           
       1.606672              0.0098455157            0.000512505375           
       1.609312              0.0099286413            0.000537249408           
       1.611953             0.00874046977            0.000493272517           
       1.614593             0.00949138872            0.000504218013           
       1.617234             0.00854300683            0.000495765738           
       1.619874              0.0104206772            0.000545381161           
       1.622514             0.00887965342            0.000496575139           
       1.625155             0.00983430698            0.000525674475           
       1.627795             0.00894434411            0.000489041523           
       1.630436             0.00952253213            0.000501965681           
       1.633076             0.00953415899            0.000508859532           
       1.635716             0.00884300554            0.000482443317           
       1.638357             0.00949991324            0.000501359667           
       1.640997             0.00985566872            0.000526129874           
       1.643637             0.00856476809            0.000477277393           
       1.646278              0.0104010837            0.000542485262           
       1.648918             0.00873422229            0.000498475577           
       1.651559             0.00909963382             0.00051274505           
       1.654199             0.00899973703            0.000495944711           
       1.656839             0.00806377141             0.00046961183           
       1.659480             0.00962816854            0.000532416596           
       1.662120             0.00940644262            0.000495641193           
       1.664761             0.00831749664            0.000484126269           
       1.667401             0.00851764627            0.000468255345           
       1.670041             0.00873051912            0.000481299056           
       1.672682             0.00833952192            0.000468464677           
       1.675322             0.00849783089            0.000469849289           
       1.677962             0.00856533863            0.000466508279           
       1.680603             0.00874235422            0.000472754495           
       1.683243             0.00896379009            0.000499438634           
       1.685884             0.00830183241            0.000484193105           
       1.688524             0.00847707627            0.000479819058           
       1.691164             0.00787619735            0.000462606047           
       1.693805             0.00813824284             0.00047540442           
       1.696445             0.00929212123            0.000510936898           
       1.699085             0.00885087474            0.000481949065           
       1.701726             0.00930049248            0.000475920096           
       1.704366             0.00871383888            0.000485298638           
       1.707007             0.00853215928            0.000469508397           
       1.709647             0.00813346828              0.0004635844           
       1.712287             0.00873940876            0.000484725424           
       1.714928             0.00885664807            0.000491900163           
       1.717568             0.00880050659            0.000461900935           
       1.720209             0.00874608912            0.000482311067           
       1.722849              0.0088554148            0.000482821078           
       1.725489             0.00962829137            0.000503872781           
       1.728130             0.00842365267             0.00050085876           
       1.730770             0.00855950981            0.000479501777           
       1.733410             0.00960282921            0.000499901529           
       1.736051             0.00857317786            0.000475628856           
       1.738691             0.00895767343             0.00047632209           
       1.741332             0.00845051926            0.000476169683           
       1.743972             0.00910427362            0.000510392376           
       1.746612             0.00918123422            0.000492173932           
       1.749253             0.00870114955             0.00048859545           
       1.751893             0.00840680986            0.000476735132           
       1.754533             0.00940803667            0.000503854656           
       1.757174             0.00794126674            0.000458579419           
       1.759814             0.00843972464            0.000465586459           
       1.762455             0.00877733898            0.000483526045           
       1.765095             0.00870479208            0.000460635932           
       1.767735             0.00817373901            0.000460134146           
       1.770376             0.00908462258            0.000486374656           
       1.773016             0.00844026574            0.000465668374           
       1.775657             0.00920330151            0.000479265549           
       1.778297             0.00904148932            0.000470943195           
       1.780937             0.00879937177            0.000490379674           
       1.783578             0.00870061202            0.000475427454           
       1.786218             0.00870406539             0.00049625902           
       1.788858             0.00878041012            0.000473388852           
       1.791499             0.00866219417             0.00046491061           
       1.794139             0.00912895944            0.000473400003           
       1.796780               0.009182789            0.000472504734           
       1.799420              0.0100939116            0.000492648209           
       1.802060             0.00948243474            0.000481349946           
       1.804701             0.00839277899            0.000434574984           
       1.807341             0.00892505168            0.000470901449           
       1.809981             0.00890597241            0.000471966177           
       1.812622             0.00912095959            0.000469029894           
       1.815262             0.00960981462            0.000491661904           
       1.817903             0.00918823761             0.00047363319           
       1.820543             0.00940849383            0.000486744637           
       1.823183             0.00884796596            0.000471763163           
       1.825824             0.00935244544            0.000463374062           
       1.828464              0.0105149952            0.000512233222           
       1.831105             0.00961433754            0.000476262576           
       1.833745             0.00962175806            0.000486621784           
       1.836385             0.00961344283            0.000500292894           
       1.839026             0.00936235928             0.00049215648           
       1.841666             0.00898232236            0.000480354828           
       1.844306             0.00851262519            0.000454867589           
       1.846947             0.00867432702            0.000463192431           
       1.849587             0.00875219538            0.000513767334           
       1.852228             0.00884955054            0.000467149683           
       1.854868             0.00878861605             0.00049177268           
       1.857508             0.00883871772             0.00048833544           
       1.860149             0.00852827108             0.00048839791           
       1.862789             0.00877377648            0.000478154185           
       1.865429             0.00921620949            0.000511549535           
       1.868070             0.00860081503            0.000487589141           
       1.870710             0.00853584855            0.000474545513           
       1.873351             0.00824359312            0.000472116035           
       1.875991             0.00804517754            0.000474011474           
       1.878631             0.00850820387            0.000478125163           
       1.881272             0.00854730418            0.000476011614           
       1.883912             0.00895433935            0.000507048049           
       1.886553             0.00941477134            0.000514108122           
       1.889193             0.00836000337            0.000483626517           
       1.891833             0.00928884709            0.000529432496           
       1.894474             0.00833815112             0.00049723963           
       1.897114             0.00827198809            0.000479255579           
       1.899754             0.00870779667            0.000493775683           
       1.902395              0.0086697812            0.000483063861           
       1.905035             0.00835529115            0.000502280088           
       1.907676             0.00844695822             0.00047599025           
       1.910316             0.00889279468             0.00050135788           
       1.912956             0.00848524568            0.000478960528           
       1.915597             0.00804630337            0.000469014393           
       1.918237             0.00865849847            0.000502466687           
       1.920878             0.00892079627            0.000507932843           
       1.923518             0.00810187262            0.000484263147           
       1.926158             0.00904320969            0.000504983881           
       1.928799             0.00841815677            0.000481579864           
       1.931439             0.00796463571            0.000480714307           
       1.934079              0.0084776602             0.00051702067           
       1.936720             0.00858525521            0.000482064942           
       1.939360             0.00865124178            0.000516268737           
       1.942001             0.00884200727            0.000478375339           
       1.944641             0.00855374348            0.000479780866           
       1.947281             0.00803087279            0.000460600616           
       1.949922             0.00812553023            0.000478555297           
       1.952562              0.0075522397            0.000475826236           
       1.955202             0.00904979061            0.000520235584           
       1.957843             0.00828299268            0.000484800783           
       1.960483             0.00867087567            0.000518590591           
       1.963124             0.00940024669            0.000528883941           
       1.965764             0.00842892763            0.000472282128           
       1.968404             0.00774486129            0.000448434771           
       1.971045             0.00841373767            0.000476536939           
       1.973685             0.00709195852            0.000458912367           
       1.976326             0.00848695757             0.00049512227           
       1.978966             0.00785395927            0.000480480143           
       1.981606              0.0078006317            0.000488832804           
       1.984247             0.00767651885            0.000481740228           
       1.986887             0.00781739081             0.00048031695           
       1.989527             0.00885941885            0.000505821363           
       1.992168             0.00819992542            0.000504920591           
       1.994808             0.00863589785            0.000515948364           
       1.997449             0.00840118598            0.000498437874           
       2.000089             0.00783441601             0.00047942292           
       2.002729             0.00780932641              0.0004789416           
       2.005370             0.00741506395            0.000461673585           
       2.008010             0.00816841016            0.000505706401           
       2.010650             0.00794924871            0.000502598663           
       2.013291             0.00709765051            0.000455654346           
       2.015931             0.00778361012            0.000473792154           
       2.018572               0.007705681            0.000504222276           
       2.021212             0.00728521897            0.000481464227           
       2.023852             0.00760634381            0.000465617933           
       2.026493             0.00659047075            0.000452774911           
       2.029133             0.00784849752            0.000484159551           
       2.031774             0.00775834864            0.000505188125           
       2.034414             0.00748945311            0.000456716751           
       2.037054              0.0082514654            0.000491539218           
       2.039695              0.0071151477            0.000452993643           
       2.042335             0.00858902133            0.000517224738           
       2.044975             0.00790729987            0.000490255588           
       2.047616             0.00804218122            0.000493191086           
       2.050256              0.0076335973            0.000485046707           
       2.052897             0.00686474897            0.000468451713           
       2.055537              0.0080836585            0.000491293768           
       2.058177             0.00835691782            0.000489173179           
       2.060818             0.00781626083            0.000495593083           
       2.063458             0.00742964907            0.000503522617           
       2.066098             0.00768161054            0.000482977519           
       2.068739             0.00716357343            0.000473657449           
       2.071379             0.00755023379            0.000498954646           
       2.074020             0.00842344648            0.000515564828           
       2.076660             0.00705078334            0.000475503543           
       2.079300             0.00743004731            0.000500084826           
       2.081941             0.00846329833            0.000488686226           
       2.084581             0.00734125555            0.000480405199           
       2.087222             0.00727699897            0.000461272834           
       2.089862              0.0080852862            0.000529563626           
       2.092502             0.00658042965            0.000463107093           
       2.095143             0.00639124869            0.000471302921           
       2.097783             0.00749676053            0.000494191145           
       2.100423             0.00762285892            0.000480186878           
       2.103064             0.00683568088            0.000471831131           
       2.105704             0.00738546491            0.000488009306           
       2.108345             0.00783088809            0.000482777722           
       2.110985             0.00805157613            0.000522856898           
       2.113625             0.00688078031            0.000487567384           
       2.116266             0.00793353587            0.000530966973           
       2.118906             0.00814970675            0.000501527682           
       2.121546             0.00714450731             0.00046061477           
       2.124187              0.0075219466            0.000496110454           
       2.126827             0.00832740155            0.000527822878           
       2.129468             0.00747319676            0.000501296399           
       2.132108             0.00787062271            0.000500523872           
       2.134748             0.00776090836            0.000495094704           
       2.137389             0.00775763475             0.00051639781           
       2.140029             0.00778373891            0.000463088013           
       2.142670             0.00790769328            0.000498837257           
       2.145310             0.00757593716             0.00047523331           
       2.147950             0.00741528848            0.000483930608           
       2.150591             0.00740231185            0.000478620636           
       2.153231              0.0076581061            0.000501105512           
       2.155871              0.0068561446            0.000458052754           
       2.158512             0.00819734071             0.00052260667           
       2.161152             0.00763137061             0.00048844106           
       2.163793             0.00762221562              0.0004859504           
       2.166433             0.00770729133            0.000501797056           
       2.169073             0.00787663617             0.00049598608           
       2.171714             0.00744207876            0.000478506093           
       2.174354             0.00773062997            0.000509595617           
       2.176995             0.00713256501            0.000487427299           
       2.179635             0.00685643911            0.000505003325           
       2.182275             0.00717606067            0.000487790082           
       2.184916             0.00743465773            0.000479555785           
       2.187556             0.00791963371            0.000489989037           
       2.190196             0.00804894599            0.000516195262           
       2.192837             0.00743464161             0.00049340683           
       2.195477             0.00681828493            0.000450483935           
       2.198118             0.00729170234            0.000477797837           
       2.200758              0.0073495934            0.000492133623           
       2.203398             0.00821611593            0.000523665721           
       2.206039             0.00744609263            0.000471809689           
       2.208679             0.00729125555            0.000477743976           
       2.211319             0.00749755561            0.000487248885           
       2.213960             0.00706531449             0.00047933257           
       2.216600             0.00696853816             0.00049245116           
       2.219241             0.00677276031            0.000463991791           
       2.221881             0.00672679666            0.000463365412           
       2.224521             0.00797964214            0.000510858479           
       2.227162             0.00750698654            0.000485576762           
       2.229802              0.0069375215            0.000481408705           
       2.232443             0.00680444921            0.000469249234           
       2.235083             0.00720471289            0.000497096404           
       2.237723              0.0076831352            0.000492620191           
       2.240364             0.00682918076             0.00047587926           
       2.243004             0.00750690454             0.00049495105           
       2.245644             0.00723724585            0.000490844462           
       2.248285             0.00655782268            0.000457876692           
       2.250925             0.00764762272            0.000497464523           
       2.253566             0.00785020391            0.000538825524           
       2.256206             0.00695939184            0.000497189097           
       2.258846             0.00769187382            0.000497231745           
       2.261487             0.00726974677            0.000507368198           
       2.264127             0.00773671178            0.000505500854           
       2.266767             0.00686466139            0.000488846584           
       2.269408             0.00748793043            0.000512647377           
       2.272048             0.00742041296            0.000507284685           
       2.274689             0.00739689958             0.00051315387           
       2.277329             0.00685074078            0.000464987808           
       2.279969             0.00737882065            0.000513675174           
       2.282610             0.00692968781            0.000483951529           
       2.285250             0.00730863821            0.000475704066           
       2.287891             0.00733470184            0.000510935189           
       2.290531             0.00771758192            0.000531146593           
       2.293171             0.00715353473             0.00049811933           
       2.295812             0.00711798156             0.00049488267           
       2.298452             0.00823962165            0.000556799433           
       2.301092             0.00819253816            0.000515854874           
       2.303733             0.00752195863            0.000514236578           
       2.306373             0.00748774055            0.000521145606           
       2.309014             0.00605958427             0.00045967329           
       2.311654             0.00656871544            0.000499436506           
       2.314294             0.00677707604            0.000467373462           
       2.316935             0.00722146928            0.000484446934           
       2.319575              0.0070690362             0.00050220252           
       2.322215             0.00724320069            0.000529788001           
       2.324856             0.00748074532            0.000495007799           
       2.327496             0.00714619123             0.00051444442           
       2.330137             0.00620063229            0.000458561005           
       2.332777             0.00761167294            0.000523869078           
       2.335417             0.00743482435            0.000502292547           
       2.338058             0.00741388291            0.000516568083           
       2.340698             0.00658970948            0.000483182835           
       2.343339             0.00658521392            0.000493647253           
       2.345979             0.00751870182            0.000499034833           
       2.348619             0.00716104621            0.000504823337           
       2.351260             0.00812109247            0.000534466769           
       2.353900             0.00709354424            0.000497928727           
       2.356540             0.00696912536            0.000492842045           
       2.359181             0.00674348108            0.000478001226           
       2.361821             0.00723948984            0.000478416407           
       2.364462             0.00672355954            0.000482204705           
       2.367102             0.00744519342            0.000521457892           
       2.369742             0.00582757169            0.000485596633           
       2.372383             0.00809435927             0.00051821546           
       2.375023             0.00756170163            0.000526527603           
       2.377663             0.00751044618            0.000501728575           
       2.380304             0.00773186114             0.00051755871           
       2.382944             0.00650844701            0.000452279432           
       2.385585              0.0072178275            0.000507971421           
       2.388225             0.00719580479            0.000504812588           
       2.390865             0.00691164952            0.000489662785           
       2.393506             0.00760239338            0.000503859747           
       2.396146             0.00731287668            0.000534321661           
       2.398787             0.00706682239            0.000484063856           
       2.401427             0.00696543738            0.000463869501           
       2.404067             0.00695176823            0.000473750852           
       2.406708             0.00636439176            0.000447859137           
       2.409348             0.00712463045            0.000502614409           
       2.411988             0.00741917595            0.000502527265           
       2.414629             0.00680749693            0.000496357711           
       2.417269              0.0060754435            0.000474385246           
       2.419910             0.00739908773            0.000524732376           
       2.422550              0.0065001045            0.000470546038           
       2.425190              0.0073930362            0.000528977262           
       2.427831             0.00752615347            0.000530718118           
       2.430471             0.00701003965            0.000487967239           
       2.433112             0.00750111347            0.000491525389           
       2.435752             0.00700084764            0.000502541818           
       2.438392             0.00641292651            0.000464241856           
       2.441033             0.00636895838            0.000490313523           
       2.443673              0.0066535212            0.000501532622           
       2.446313             0.00642547744             0.00049329744           
       2.448954             0.00648520603            0.000471866083           
       2.451594             0.00757994555            0.000548520386           
       2.454235             0.00727116732            0.000504060694           
       2.456875             0.00771324266            0.000543224981           
       2.459515             0.00696766966            0.000529669155           
       2.462156             0.00843453673            0.000550208868           
       2.464796             0.00825646398            0.000537346518           
       2.467436             0.00905096932            0.000581801459           
       2.470077             0.00830248682             0.00052814909           
       2.472717             0.00747580784            0.000503336833           
       2.475358             0.00808470664            0.000528891698           
       2.477998             0.00772502535            0.000508277132           
       2.480638             0.00753811335            0.000511012114           
       2.483279             0.00673657786            0.000504896159           
       2.485919             0.00720234674            0.000503123006           
       2.488560             0.00788680103            0.000525015858           
       2.491200             0.00716759965            0.000515388386           
       2.493840             0.00746023668            0.000556369713           
       2.496481             0.00747499913            0.000547809924           
       2.499121             0.00678710448            0.000507723792           
       2.501761             0.00759470561            0.000544198223           
       2.504402             0.00768418521            0.000539397258           
       2.507042             0.00741004533            0.000525764257           
       2.509683             0.00690531013             0.00049978525           
       2.512323             0.00637644886            0.000504397964           
       2.514963             0.00703871226             0.00052339744           
       2.517604             0.00766467593            0.000566740649           
       2.520244             0.00744128187            0.000523520227           
       2.522884             0.00700539677            0.000515220088           
       2.525525             0.00794712031            0.000554987083           
       2.528165              0.0073627134            0.000525864634           
       2.530806             0.00832379736            0.000568879661           
       2.533446             0.00833933689            0.000557256742           
       2.536086             0.00672313472            0.000495873475           
       2.538727             0.00677367147            0.000477499817           
       2.541367             0.00660782492            0.000476263701           
       2.544008             0.00720799245            0.000513715964           
       2.546648             0.00663902747            0.000501480771           
       2.549288              0.0074543469            0.000542209367           
       2.551929             0.00729016923            0.000527658004           
       2.554569             0.00608340879             0.00046437755           
       2.557209             0.00671234738            0.000492272061           
       2.559850             0.00704184106            0.000505828694           
       2.562490             0.00701562896            0.000521827188           
       2.565131             0.00781484684             0.00057104125           
       2.567771             0.00721511011            0.000529021591           
       2.570411             0.00748316025            0.000532929577           
       2.573052             0.00707197787            0.000524605608           
       2.575692             0.00715205221            0.000524372559           
       2.578332             0.00725350498            0.000530262349           
       2.580973             0.00650956364            0.000497554685           
       2.583613             0.00796849266            0.000537386691           
       2.586254             0.00694973765            0.000501163043           
       2.588894             0.00677392983            0.000513809013           
       2.591534             0.00706367468            0.000543145015           
       2.594175             0.00743400559            0.000546686322           
       2.596815             0.00846639006            0.000586852679           
       2.599456             0.00666972314            0.000493943735           
       2.602096             0.00640480918             0.00048771856           
       2.604736             0.00727669542            0.000532183196           
       2.607377             0.00670647158            0.000497442073           
       2.610017              0.0071877371            0.000505969431           
       2.612657             0.00664063539            0.000517287604           
       2.615298             0.00675668145            0.000509429105           
       2.617938             0.00738154365            0.000569600899           
       2.620579             0.00651582651             0.00051374603           
       2.623219              0.0070693007            0.000534358144           
       2.625859             0.00733150228            0.000529093303           
       2.628500             0.00675584432            0.000504567873           
       2.631140             0.00737989184            0.000535482749           
       2.633780             0.00765305319            0.000544828913           
       2.636421             0.00670501496            0.000522508765           
       2.639061             0.00706226094            0.000504815739           
       2.641702             0.00705262076            0.000516149894           
       2.644342             0.00639205814            0.000493477687           
       2.646982             0.00831990744            0.000554580744           
       2.649623             0.00705571858            0.000535205795           
       2.652263             0.00680116059            0.000520189467           
       2.654904             0.00705997576            0.000530528036           
       2.657544             0.00657546247            0.000482250809           
       2.660184              0.0056643701            0.000473686284           
       2.662825             0.00662598061            0.000524204254           
       2.665465             0.00659328829            0.000505739569           
       2.668105             0.00573096029            0.000496988121           
       2.670746              0.0078230878            0.000536405397           
       2.673386             0.00814652803            0.000564120777           
       2.676027             0.00784143598            0.000544574075           
       2.678667             0.00987630176            0.000596341322           
       2.681307             0.00926804878            0.000567609405           
       2.683948              0.0153307892            0.000750066764           
       2.686588              0.0136843713            0.000696895305           
       2.689229              0.0108464832            0.000606268032           
       2.691869             0.00933412849            0.000594416986           
       2.694509             0.00864875525            0.000572492368           
       2.697150              0.0068140414            0.000499909631           
       2.699790             0.00768888201            0.000556710798           
       2.702430              0.0069199107            0.000504837458           
       2.705071             0.00818095056            0.000567197591           
       2.707711             0.00872508481            0.000568520849           
       2.710352             0.00648842192            0.000518026595           
       2.712992             0.00647847433            0.000527200321           
       2.715632             0.00679547751            0.000500961561           
       2.718273             0.00625775639            0.000498214831           
       2.720913             0.00641389355            0.000502956851           
       2.723553               0.007244451            0.000538117067           
       2.726194             0.00751567032            0.000572942638           
       2.728834             0.00724737163            0.000562887052           
       2.731475             0.00832845279            0.000556895358           
       2.734115             0.00694935111            0.000524489926           
       2.736755             0.00882587889            0.000595941962           
       2.739396             0.00604495135             0.00049034058           
       2.742036             0.00736273042            0.000566352031           
       2.744677             0.00654705028            0.000518185182           
       2.747317             0.00703469704            0.000533306551           
       2.749957             0.00670672635            0.000524380667           
       2.752598             0.00652485667            0.000522835031           
       2.755238             0.00602375483            0.000511426121           
       2.757878             0.00747196262            0.000564615464           
       2.760519             0.00729352411            0.000551918081           
       2.763159             0.00747922854            0.000553315036           
       2.765800             0.00729068622             0.00052061187           
       2.768440             0.00810567255            0.000552983358           
       2.771080             0.00769528014            0.000543300126           
       2.773721             0.00713362742            0.000536591627           
       2.776361             0.00621689841            0.000507839099           
       2.779001             0.00675110632            0.000548048911           
       2.781642             0.00661386338            0.000538452089           
       2.784282             0.00655357343            0.000544806115           
       2.786923             0.00779035217             0.00059922313           
       2.789563             0.00649315957            0.000526886795           
       2.792203             0.00666112507            0.000509795835           
       2.794844             0.00758098245            0.000596059091           
       2.797484             0.00670261136            0.000528942333           
       2.800125             0.00784079206            0.000601555495           
       2.802765             0.00697336059            0.000557545668           
       2.805405             0.00686375707            0.000555018899           
       2.808046             0.00732531804            0.000583456418           
       2.810686             0.00619629055            0.000493084804           
       2.813326             0.00719394092            0.000551873242           
       2.815967             0.00782725978            0.000592020482           
       2.818607             0.00656239495            0.000517292517           
       2.821248             0.00663658761            0.000509408466           
       2.823888             0.00723530905            0.000552115886           
       2.826528             0.00745828143            0.000542873387           
       2.829169             0.00610264305            0.000514362081           
       2.831809             0.00587401878            0.000511499438           
       2.834449             0.00789749273            0.000596840232           
       2.837090             0.00668183885            0.000530233655           
       2.839730             0.00604445415            0.000501848032           
       2.842371             0.00668389623            0.000528487687           
       2.845011             0.00652925477            0.000526501805           
       2.847651             0.00677681138            0.000537048871           
       2.850292             0.00585245926            0.000503978204           
       2.852932              0.0072014315            0.000571235304           
       2.855573             0.00631139697            0.000518743574           
       2.858213             0.00605931799            0.000533754209           
       2.860853             0.00780456398            0.000563500079           
       2.863494              0.0064706145            0.000531231726           
       2.866134              0.0067739299            0.000564942559           
       2.868774             0.00687159085            0.000559210784           
       2.871415             0.00661108907            0.000557052361           
       2.874055             0.00793570886            0.000583383012           
       2.876696             0.00692396291            0.000559666452           
       2.879336              0.0076991757            0.000568806345           
       2.881976             0.00764202927             0.00058450317           
       2.884617             0.00680359314            0.000543408107           
       2.887257             0.00794189622            0.000590139823           
       2.889897             0.00689717884            0.000538638129           
       2.892538              0.0073737285            0.000610124898           
       2.895178              0.0070491126            0.000538937654           
       2.897819             0.00741143646            0.000563719887           
       2.900459              0.0064290762            0.000514819267           
       2.903099              0.0085139424            0.000586377713           
       2.905740             0.00709131408             0.00054899543           
       2.908380             0.00694565244             0.00054950122           
       2.911021             0.00678205594            0.000551819398           
       2.913661             0.00699706093            0.000560330129           
       2.916301             0.00746923601            0.000579479668           
       2.918942             0.00674663548            0.000526792853           
       2.921582             0.00765218965            0.000587003104           
       2.924222             0.00774049589            0.000571965057           
       2.926863             0.00687915111            0.000561642459           
       2.929503             0.00723099364            0.000582648362           
       2.932144             0.00626620084            0.000520658858           
       2.934784              0.0056888612            0.000487959256           
       2.937424             0.00636549033            0.000521462288           
       2.940065             0.00642498809            0.000499745049           
       2.942705              0.0066369479            0.000507284203           
       2.945346             0.00761077723            0.000576501714           
       2.947986             0.00627287034            0.000533669095           
       2.950626              0.0073597984            0.000574803912           
       2.953267             0.00774290746            0.000580048685           
       2.955907             0.00757858842            0.000595301732           
       2.958547             0.00850164509            0.000595237203           
       2.961188              0.0076649013            0.000589647441           
       2.963828             0.00629397036            0.000522663796           
       2.966469             0.00774346472            0.000568715687           
       2.969109             0.00741236006            0.000564668201           
       2.971749             0.00606795594             0.00050771328           
       2.974390             0.00755124652            0.000556570367           
       2.977030             0.00664514872            0.000533779577           
       2.979670             0.00794140498            0.000567588857           
       2.982311             0.00919367388            0.000632962467           
       2.984951             0.00805028021            0.000563325748           
       2.987592             0.00713557405            0.000540979932           
       2.990232             0.00745901641              0.0005752231           
       2.992872              0.0079315487            0.000558726644           
       2.995513              0.0100602825            0.000615616807           
       2.998153              0.0123647425            0.000693959298           
       3.000794              0.0104958636            0.000619293094           
       3.003434               0.010769857            0.000628271491           
       3.006074              0.0219522876            0.000884407015           
       3.008715              0.0778150228             0.00160735728           
       3.011355               0.257450857             0.00281935919           
       3.013995                 0.1936814             0.00245203801           
       3.016636               0.109289442             0.00180368265           
       3.019276               0.142708422             0.00202600425           
       3.021917               0.532451937               0.003762937           
       3.024557                1.19112764             0.00553344848           
       3.027197                1.08715308             0.00515398606           
       3.029838               0.688916061             0.00416100313           
       3.032478               0.264206829             0.00257945683           
       3.035118              0.0745117818             0.00138821427           
       3.037759              0.0718645208             0.00136157197           
       3.040399              0.0927591703             0.00159566426           
       3.043040               0.310687781             0.00295607958           
       3.045680                 0.3765777             0.00306200214           
       3.048320               0.136901477             0.00188638105           
       3.050961               0.152228453             0.00202422605           
       3.053601               0.111068741             0.00166528272           
       3.056242               0.103678903              0.0017106348           
       3.058882               0.111579968             0.00190363967           
       3.061522              0.0907589235             0.00168444982           
       3.064163               0.109646038             0.00182812694           
       3.066803               0.172245864             0.00241225842           
       3.069443              0.0979515704             0.00190323828           
       3.072084              0.0427146531             0.00122381518           
       3.074724              0.0426179829             0.00136517466           
       3.077365              0.0302920867              0.0011914339           
       3.080005              0.0101762727            0.000694470344           
       3.082645              0.0159255071            0.000912665614           
       3.085286              0.0162419957            0.000928961546           
       3.087926              0.0127557969             0.00081690527           
       3.090566              0.0106893833            0.000732714457           
       3.093207              0.0130981318            0.000844011545           
       3.095847             0.00924112469            0.000679502869           
       3.098488             0.00822041863            0.000710624806           
       3.101128              0.0103931788            0.000804176978           
       3.103768              0.0093536284            0.000748546937           
       3.106409             0.00996051334            0.000822093566           
       3.109049              0.0102252108            0.000799336433           
       3.111690             0.00753960578            0.000674601936           
       3.114330              0.0097407934            0.000783091309           
       3.116970             0.00779142895            0.000705740755           
       3.119611             0.00988499642             0.00084614278           
       3.122251              0.0137203766             0.00104275921           
       3.124891              0.0324715867             0.00161912127           
       3.127532               0.030401964             0.00153266253           
       3.130172              0.0190928621             0.00123558175           
       3.132813              0.0106358473            0.000907867604           
       3.135453              0.0077613904            0.000769155331           
       3.138093             0.00634742923            0.000753678838           
       3.140734             0.00447974752            0.000584139767           
       3.143374             0.00818361698            0.000834950995           
       3.146014             0.00551508731            0.000737899075           
       3.148655             0.00706905515            0.000776594144           
       3.151295             0.00579524059            0.000749318272           
       3.153936             0.00767438208            0.000832944117           
       3.156576             0.00703236337            0.000786496826           
       3.159216             0.00745589515            0.000813885025           
       3.161857             0.00536176786            0.000687378708           
       3.164497             0.00631517897            0.000783823963           
       3.167138             0.00778993531            0.000899488359           
       3.169778             0.00611292403            0.000783666559           
       3.172418             0.00580536487             0.00075592982           
       3.175059             0.00594305418            0.000678064552           
       3.177699             0.00476377425            0.000642854862           
       3.180339             0.00637755642            0.000796939305           
       3.182980             0.00604701306            0.000802317755           
       3.185620             0.00507902847              0.0007488434           
       3.188261              0.0058293696            0.000816569746           
       3.190901             0.00570630841            0.000743037804           
       3.193541             0.00661336296            0.000840518967           
       3.196182             0.00659810505            0.000874930297           
       3.198822             0.00614113103            0.000844371497           
       3.201463             0.00692320001            0.000881079982           
       3.204103             0.00565012545            0.000791116732           
       3.206743             0.00621757029            0.000829814676           
       3.209384             0.00801778037             0.00101809496           
       3.212024             0.00537144665            0.000776906723           
       3.214664             0.00595404073            0.000930130808           
       3.217305             0.00523167965            0.000828785947           
       3.219945             0.00597866946            0.000911902438           
       3.222586             0.00744878672            0.000969496585           
       3.225226             0.00417806749            0.000805485209           
       3.227866             0.00466915231            0.000778269993           
       3.230507             0.00709002098            0.000994145815           
       3.233147             0.00525097633            0.000862460356           
       3.235787             0.00649945809            0.000981957088           
       3.238428             0.00464044213             0.00089537712           
       3.241068             0.00647865891            0.000989244308           
       3.243709             0.00610442265            0.000992088503           
       3.246349             0.00508237243            0.000825206151           
       3.248989              0.0056120681             0.00102390268           
       3.251630             0.00502526254            0.000933019194           
       3.254270             0.00568112771            0.000886613313           
       3.256911             0.00443505859            0.000854743048           
       3.259551             0.00686194814             0.00114461551           
       3.262191              0.0045608631            0.000953183605           
       3.264832              0.0045618479             0.00099604158           
       3.267472             0.00496063186            0.000974379606           
       3.270112             0.00583183849             0.00116754812           
       3.272753             0.00587012105             0.00107218656           
       3.275393             0.00508287322             0.00101800508           
       3.278034             0.00611466305             0.00111718736           
       3.280674             0.00647793454             0.00124779527           
       3.283314             0.00636078463              0.0011058342           
       3.285955              0.0061790534             0.00112456078           
       3.288595             0.00457126513             0.00107610538           
       3.291235             0.00479127089             0.00113253455           
       3.293876             0.00523715597             0.00120107523           
       3.296516             0.00456714575             0.00107677825           
       3.299157             0.00642590236             0.00126118661           
       3.301797             0.00672636353             0.00147186546           
       3.304437             0.00630777455             0.00123488043           
       3.307078             0.00378545534             0.00105379147           
       3.309718             0.00811966892             0.00159301577           
       3.312359             0.00877208132             0.00165617183           
       3.314999             0.00634861165             0.00138721978           
       3.317639             0.00668957966             0.00136186633           
       3.320280             0.00437999128             0.00117162671           
       3.322920             0.00745684144             0.00155445752           
       3.325560             0.00355292061             0.00107371521           
       3.328201             0.00839525871             0.00148646688           
       3.330841             0.00660774998             0.00160501052           
       3.333482             0.00697098121             0.00155824356           
       3.336122             0.00487958282             0.00130430548           
       3.338762             0.00461399933             0.00146509894           
       3.341403             0.00717883182              0.0017462401           
       3.344043             0.00388622135             0.00123352903           
       3.346683             0.00529040771             0.00146933642           
       3.349324             0.00516452911             0.00163224542           
       3.351964             0.00689334331             0.00199411457           
       3.354605             0.00452139919              0.0018469953           
       3.357245              0.0104219497             0.00252965683           
       3.359885             0.00434590695             0.00130741333           
       3.362526             0.00486531864              0.0017299222           
       3.365166             0.00764415343             0.00204520317           
       3.367807             0.00450238353             0.00200878754           
       3.370447              0.0117621961             0.00269327434           
       3.373087             0.00350066977             0.00157122802           
       3.375728             0.00537001248             0.00219629423           
       3.378368             0.00394712146             0.00279455728           
       3.381008             0.00320656439              0.0018778932           
       3.383649             0.00346855486             0.00156678589           
       3.386289             0.00593690404             0.00242602864           
       3.388930             0.00501778642             0.00352789222           
       3.391570              0.0037456073             0.00215616917           
       3.394210             0.00397643587             0.00281150377           
       3.396851             0.00487372354             0.00348173667           
       3.399491             0.00721943115             0.00423876223           
       3.402131             0.00979243391             0.00698440445           
       3.404772             0.00972518329             0.00984583903           
       3.407412                       nan                       nan           
       3.410053             0.00932710662             0.00965409308           
       3.412693                       nan                       nan           
       3.415333           -2.67430895e-05                         0           
