################################################################################
# EDF_DataBlockID                     0.Image.Psd
# EDF_BinarySize                      2105344
# EDF_HeaderSize                      2560
# ByteOrder                           LowByteFirst
# DataType                            FloatValue
# Dim_1                               512
# Dim_2                               1028
# Image                               0
# HeaderID                            EH:000000:000000:000000
# Size                                2105344
# Center_1                            304.9000
# Center_2                            588.7000
# Comment                             Xenocs_Cell_Window - 20251028_20perc_iodine_1.23mg
# DDummy                              0.6
# Date                                2025-10-29T16:39:43
# Delta                               21.910000
# Dummy                               -1.5
# ExposureTime                        360
# Gamma                               15.360000
# Intensity1                          8.45558e-10
# PSize_1                             7.5e-05
# PSize_2                             7.5e-05
# Pressure                            0.0326633
# SampleDistance                      0.115750
# SampleEnvKind                       large
# SampleEnvPN                         ElectroChemical cell
# SampleEnvSN                         1141
# Thickness                           0
# Wavelength                          1.541891e-10
# Wavelength                          1.54189e-10
# aux                                 0
# aux_dial                            0.002375
# beamx                               588.434
# beamx_dial                          588.434
# beamz                               657.808
# beamz_dial                          657.808
# det0x                               0
# det0x_dial                          6.36945
# det0xvd                             0
# det0xvd_dial                        0
# det0y                               450.002
# det0y_dial                          481.635
# det0z                               0
# det0z_dial                          1.23302
# det0zvd                             0
# det0zvd_dial                        0
# mag                                 1.818
# mag_dial                            1.818
# om                                  0.2499
# om_dial                             -0.610199
# phi                                 -0.0120535
# phi_dial                            0
# ry                                  0.599993
# ry_dial                             0.599993
# s1bot                               0.8
# s1bot_dial                          -1.66094
# s1hl                                0.8
# s1hl_dial                           -0.608437
# s1hr                                0.8
# s1hr_dial                           0.970938
# s1top                               0.8
# s1top_dial                          -0.461562
# s2bot                               0.45
# s2bot_dial                          1.36109
# s2hl                                0.45
# s2hl_dial                           -0.83375
# s2hr                                0.45
# s2hr_dial                           -0.118594
# s2top                               0.45
# s2top_dial                          1.44734
# w2theta                             32
# w2theta_dial                        32
# waxsch                              19.2605
# waxsch_dial                         -32.7355
# waxsh                               137.085
# waxsh_dial                          -43.5338
# waxsth                              26.0607
# waxsth_dial                         -19.4086
# waxsz                               67.0407
# waxsz_dial                          -23.7954
# wind                                65.9854
# wind_dial                           66.0041
# wpsi                                124
# wpsi_dial                           124
# wstod                               115
# wstod_dial                          115
# x                                   0
# x_dial                              1.00969
# z                                   0
# z_dial                              13.3172
# CountCutoff                         6807993
# DetectorModel                       Dectris EIGER2 Si 500K, S/N E-01-0554
# ThresholdSetting                    4023.88989258
# Saturation                          0
# FlatField                           Corrected
# BackgroundReductionExtra            0.02
# BackgroundCorrectionConstant        0.0026712
# Detector                            0
# Monitor                             0
# Pil_Roi0                            0
# SumForIntensity1                    3.04401e+08
# TransmittedFlux                     845558
# det                                 0
# mon                                 0
# pilai0                              3.04401e+08
# pilai1                              763918
# pilct0                              5.27866e+08
# pilct1                              763918
# pilroi0                             0
# pilroi1                             0
# sec                                 1
# title                               20251028_20perc_iodine_1.23mg_1_00239.edf
# usaxs0                              0
# Operation                           Azimuthal average I(q)
# Error_model                         ErrorModel.poisson
# Geometrical_correction              True
# Transmission_correction             True
# Thickness_correction                False
# Binning mode                        Uniform
# Binning factor                      1.0
# Psi                                 0.0
# Omega                               0.2499
# MaskInvalidPixels                   True
# DetectorEdge                        3
# MaskFiles                           ['WAXS_corrected.edf']
################################################################################
    q(A⁻¹)                Intensity(a.u.)            Sigma_I(a.u.)            
       0.693100           -2.40116027e-05                         0           
       0.695741           -2.39843441e-05                         0           
       0.698381             0.00431911334             0.00440413115           
       0.701021              0.0178532867               0.012658266           
       0.703662              0.0115199851             0.00586922218           
       0.706302             0.00707661016             0.00356142974           
       0.708942              0.0086687929             0.00508759011           
       0.711583             0.00221163269             0.00222523096           
       0.714223              0.0118138186             0.00593763727           
       0.716864              0.0102066997             0.00361103724           
       0.719504             0.00594514154             0.00297398143           
       0.722144             0.00765810877             0.00312582555           
       0.724785             0.00644633533             0.00228766181           
       0.727425             0.00888841784             0.00363402285           
       0.730065              0.0052175358             0.00196946995           
       0.732706              0.0119916608             0.00250729279           
       0.735346             0.00885278983             0.00280820994           
       0.737987             0.00748465388             0.00182461998           
       0.740627             0.00790390542             0.00279765345           
       0.743267             0.00665253249             0.00171912997           
       0.745908             0.00789620212             0.00203204379           
       0.748548             0.00622479599             0.00166303323           
       0.751189             0.00728077899             0.00242350444           
       0.753829             0.00410615219             0.00167300609           
       0.756469             0.00795776615             0.00187805772           
       0.759110              0.0058392906             0.00169536779           
       0.761750             0.00573267751              0.0014853312           
       0.764390             0.00628362973             0.00162762857           
       0.767031             0.00593755251             0.00137010202           
       0.769671             0.00836862384             0.00202904107           
       0.772312             0.00879658359             0.00158369732           
       0.774952             0.00725671652             0.00194242813           
       0.777592             0.00879544259             0.00155761787           
       0.780233              0.0056080367              0.0015005873           
       0.782873             0.00762483951             0.00167345418           
       0.785513             0.00960748532              0.0020082007           
       0.788154             0.00847866618             0.00157815584           
       0.790794             0.00713832221             0.00173118399           
       0.793435             0.00883932262             0.00173063254           
       0.796075             0.00882088539             0.00166539641           
       0.798715             0.00657910052             0.00169964234           
       0.801356             0.00541273096             0.00132683957           
       0.803996             0.00874491787             0.00171941526           
       0.806637             0.00811534756             0.00131816171           
       0.809277             0.00652414468             0.00127925833           
       0.811917             0.00833004023             0.00135131831           
       0.814558             0.00542358852              0.0011332542           
       0.817198             0.00598268895             0.00113077766           
       0.819838             0.00810513163             0.00133205224           
       0.822479             0.00604205721             0.00135052534           
       0.825119             0.00764661117             0.00129311916           
       0.827760             0.00560823724             0.00112178613           
       0.830400             0.00632698796             0.00112142591           
       0.833040             0.00565907792             0.00111116507           
       0.835681             0.00841390646             0.00154027999           
       0.838321             0.00734732906             0.00120809002           
       0.840961             0.00661230952             0.00124869717           
       0.843602             0.00827771233               0.001281222           
       0.846242             0.00809762086             0.00126701909           
       0.848883             0.00767724079             0.00126250701           
       0.851523             0.00749109015             0.00123161565           
       0.854163             0.00710497273             0.00127556639           
       0.856804             0.00795725358             0.00121375042           
       0.859444             0.00655805182             0.00107963178           
       0.862085             0.00636269666              0.0011083601           
       0.864725             0.00749776457             0.00123131799           
       0.867365             0.00624140809             0.00104174521           
       0.870006             0.00645951074             0.00100989894           
       0.872646             0.00676018839              0.0010833861           
       0.875286             0.00592748861            0.000975982949           
       0.877927             0.00657571195            0.000991938134           
       0.880567             0.00997567568             0.00126576368           
       0.883208             0.00817827645             0.00113527618           
       0.885848             0.00693202375             0.00108523524           
       0.888488             0.00836001594             0.00111781949           
       0.891129             0.00769912321             0.00110146562           
       0.893769             0.00661856698            0.000977363316           
       0.896410             0.00597894346            0.000866094814           
       0.899050             0.00834103897              0.0011249899           
       0.901690             0.00504118653            0.000952683574           
       0.904331             0.00749944193             0.00103015477           
       0.906971             0.00817035113             0.00114388603           
       0.909611              0.0071812508            0.000976239906           
       0.912252             0.00777704769             0.00104934925           
       0.914892              0.0073998766             0.00111856279           
       0.917533             0.00664136241             0.00100245798           
       0.920173             0.00742298384             0.00098329267           
       0.922813             0.00558256678            0.000894841941           
       0.925454             0.00661687465            0.000877255804           
       0.928094             0.00699974237            0.000963258856           
       0.930734             0.00781382124             0.00109570178           
       0.933375             0.00674306625              0.0010078568           
       0.936015             0.00581634294            0.000850125909           
       0.938656             0.00801538575             0.00107059334           
       0.941296             0.00787464681            0.000961696508           
       0.943936             0.00711062093            0.000896174349           
       0.946577             0.00623154904            0.000833404862           
       0.949217             0.00668498118            0.000793784626           
       0.951858             0.00782254193            0.000898856634           
       0.954498             0.00720055554             0.00099819147           
       0.957138             0.00807077144             0.00100116315           
       0.959779             0.00602735809            0.000852898214           
       0.962419             0.00856295621             0.00100982737           
       0.965059             0.00761711161             0.00100170109           
       0.967700             0.00839905926             0.00107731428           
       0.970340             0.00733452415             0.00089085653           
       0.972981              0.0069736409             0.00079143582           
       0.975621             0.00813749865            0.000909499922           
       0.978261             0.00649232625            0.000771900566           
       0.980902             0.00891351465              0.0010821321           
       0.983542             0.00741290321            0.000873917589           
       0.986182             0.00735059578            0.000854393423           
       0.988823             0.00608103028            0.000754579868           
       0.991463             0.00809494036            0.000928849621           
       0.994104             0.00770785938            0.000884177791           
       0.996744             0.00749159723            0.000889112442           
       0.999384              0.0080141741            0.000822429838           
       1.002025             0.00746452706            0.000885903106           
       1.004665             0.00552515582            0.000696537884           
       1.007306             0.00703816662            0.000782120341           
       1.009946             0.00931397823            0.000917597068           
       1.012586             0.00867595863            0.000862533241           
       1.015227             0.00919515082            0.000953953908           
       1.017867             0.00786386607            0.000847853185           
       1.020507              0.0091090165            0.000883891396           
       1.023148             0.00737839359            0.000858373933           
       1.025788             0.00662798577            0.000745964883           
       1.028429             0.00718796331            0.000813865686           
       1.031069              0.0082450863             0.00082026613           
       1.033709              0.0082788696            0.000873729438           
       1.036350             0.00772234897             0.00075789424           
       1.038990             0.00857040339            0.000813097912           
       1.041630              0.0072247424            0.000778649329           
       1.044271             0.00763980409            0.000753032757           
       1.046911             0.00846658102            0.000833851425           
       1.049552             0.00779576864             0.00084064497           
       1.052192             0.00801586239            0.000778375837           
       1.054832             0.00769571964             0.00076961175           
       1.057473             0.00733652581            0.000740757757           
       1.060113             0.00890279418            0.000795829201           
       1.062754             0.00829922996            0.000784501622           
       1.065394             0.00918747473            0.000872678368           
       1.068034             0.00733760676            0.000709592956           
       1.070675             0.00852675471            0.000797920139           
       1.073315             0.00899102494            0.000831099441           
       1.075955             0.00882106714            0.000777154287           
       1.078596             0.00983860732            0.000872299655           
       1.081236             0.00837324032            0.000770573461           
       1.083877             0.00834905036             0.00076255704           
       1.086517             0.00785573874            0.000793159697           
       1.089157             0.00941018516            0.000900743644           
       1.091798             0.00786364426             0.00072189365           
       1.094438              0.0085501705             0.00075031685           
       1.097078              0.0087795296            0.000729220819           
       1.099719              0.0101365902            0.000847534326           
       1.102359             0.00857526354            0.000730042961           
       1.105000             0.00908003951             0.00084001308           
       1.107640             0.00915616214            0.000806548845           
       1.110280             0.00979047503            0.000760978507           
       1.112921             0.00798097165            0.000738057334           
       1.115561             0.00809820757            0.000706594956           
       1.118202             0.00884733095            0.000739249853           
       1.120842             0.00928616028            0.000795991793           
       1.123482             0.00945307773            0.000799606154           
       1.126123             0.00807632386            0.000708909593           
       1.128763             0.00837450975            0.000726827224           
       1.131403             0.00782627867             0.00067704801           
       1.134044             0.00894959518            0.000745006241           
       1.136684             0.00944479186            0.000815985144           
       1.139325              0.0092617642            0.000744365635           
       1.141965              0.0100044047            0.000778747566           
       1.144605             0.00935797754            0.000718148273           
       1.147246             0.00730473084            0.000649346302           
       1.149886             0.00864741681            0.000704000544           
       1.152527             0.00954589216            0.000750426378           
       1.155167              0.0103119858            0.000741858454           
       1.157807             0.00882813871            0.000735955286           
       1.160448             0.00955013102            0.000747489598           
       1.163088             0.00936349158            0.000705993627           
       1.165728             0.00841198029            0.000687040833           
       1.168369             0.00871733196            0.000705860802           
       1.171009             0.00929280456            0.000707268109           
       1.173650             0.00935032225            0.000728068495           
       1.176290             0.00963087879            0.000722081431           
       1.178930              0.0102978976             0.00073180256           
       1.181571             0.00962015278            0.000721337583           
       1.184211             0.00946273845            0.000717948174           
       1.186851             0.00853144733             0.00066649247           
       1.189492             0.00880302196            0.000672462678           
       1.192132             0.00946428853            0.000689439155           
       1.194773             0.00998026741            0.000711076718           
       1.197413             0.00948875459            0.000664323576           
       1.200053              0.0103758392             0.00071233384           
       1.202694             0.00924248538            0.000639323591           
       1.205334              0.0088251688             0.00067325642           
       1.207975             0.00933593411            0.000660977455           
       1.210615             0.00824944314             0.00068542901           
       1.213255              0.0106291642            0.000696713378           
       1.215896             0.00978803139            0.000680692251           
       1.218536              0.0104374068            0.000675877602           
       1.221176             0.00967339883            0.000707412621           
       1.223817             0.00850443779            0.000622645322           
       1.226457             0.00914980334            0.000658849554           
       1.229098              0.0101022146            0.000692257248           
       1.231738              0.0119371714            0.000756209501           
       1.234378              0.0107767347            0.000675151546           
       1.237019             0.00978534895            0.000662963832           
       1.239659               0.010321149             0.00067494127           
       1.242299               0.009917011            0.000653189563           
       1.244940             0.00906482141            0.000607359841           
       1.247580             0.00876774467            0.000615591834           
       1.250221               0.010014548            0.000653847585           
       1.252861              0.0085398665            0.000574811607           
       1.255501             0.00998820035            0.000674989463           
       1.258142             0.00972934108             0.00062600067           
       1.260782              0.0103346692            0.000659140649           
       1.263423              0.0107001322            0.000644461009           
       1.266063              0.0107992995            0.000663607965           
       1.268703              0.0106056575            0.000652174419           
       1.271344              0.0111860967            0.000692482633           
       1.273984             0.00991671459            0.000629711952           
       1.276624             0.00981439059            0.000614685825           
       1.279265             0.00993075809            0.000628587355           
       1.281905              0.0100548701            0.000635310263           
       1.284546             0.00981647743             0.00060676159           
       1.287186               0.010099874            0.000603829328           
       1.289826              0.0111479282            0.000668590464           
       1.292467              0.0100883824            0.000622015567           
       1.295107               0.010361736            0.000624124269           
       1.297747              0.0118865211            0.000639670666           
       1.300388              0.0107893658            0.000664360503           
       1.303028               0.011514279            0.000655198594           
       1.305669              0.0117945454            0.000678914278           
       1.308309              0.0103334326            0.000629214417           
       1.310949              0.0110756862            0.000650766233           
       1.313590              0.0102544215            0.000606600842           
       1.316230              0.0112524475            0.000678097054           
       1.318871              0.0114612836            0.000670247165           
       1.321511              0.0106520673            0.000634176293           
       1.324151              0.0108390423            0.000620752624           
       1.326792              0.0111291527            0.000632893848           
       1.329432             0.00902376652            0.000565871932           
       1.332072              0.0112138468            0.000621413247           
       1.334713              0.0103960769            0.000617531905           
       1.337353              0.0117614901            0.000629917206           
       1.339994              0.0116428971            0.000657694251           
       1.342634              0.0105555754            0.000600516073           
       1.345274              0.0115178439            0.000649187562           
       1.347915              0.0107539531            0.000609967888           
       1.350555               0.012075035            0.000657669086           
       1.353195              0.0107955585            0.000624904425           
       1.355836              0.0110677831            0.000622867976           
       1.358476              0.0119935911            0.000629690922           
       1.361117              0.0115622755             0.00061911337           
       1.363757              0.0108261413            0.000617373422           
       1.366397              0.0106501085            0.000593803655           
       1.369038              0.0106461788            0.000599605641           
       1.371678              0.0115932297            0.000620190787           
       1.374319             0.00953994478            0.000557750771           
       1.376959              0.0103185859            0.000574232451           
       1.379599              0.0121716862            0.000668382543           
       1.382240              0.0122621556            0.000630509494           
       1.384880              0.0110497091            0.000633975935           
       1.387520              0.0108281269             0.00059603885           
       1.390161               0.011047715             0.00057180494           
       1.392801               0.011777548            0.000615129323           
       1.395442              0.0113596586             0.00061236866           
       1.398082              0.0117823761            0.000584028891           
       1.400722              0.0113933938            0.000601573861           
       1.403363              0.0103712788            0.000604158365           
       1.406003              0.0111789248            0.000587013619           
       1.408644               0.011462636            0.000622689298           
       1.411284              0.0115432026            0.000591700039           
       1.413924              0.0116054207            0.000591093042           
       1.416565              0.0113980121             0.00058348627           
       1.419205              0.0109934109            0.000597768549           
       1.421845               0.011130209            0.000601123085           
       1.424486              0.0118722205            0.000596767246           
       1.427126              0.0114530905            0.000608884689           
       1.429767              0.0107636881            0.000555376856           
       1.432407              0.0105645645            0.000575813646           
       1.435047              0.0106400041            0.000542711972           
       1.437688              0.0104188326            0.000545071447           
       1.440328              0.0110196647            0.000572122293           
       1.442968              0.0115755217            0.000599512402           
       1.445609              0.0102683247             0.00054673571           
       1.448249              0.0104920087            0.000566651588           
       1.450890              0.0111953989            0.000581517328           
       1.453530               0.011153567            0.000607246401           
       1.456170               0.012040151            0.000612322282           
       1.458811              0.0116858644            0.000576836742           
       1.461451              0.0105118572            0.000548529501           
       1.464092                0.01092944            0.000562975267           
       1.466732              0.0108125246            0.000555144174           
       1.469372              0.0105947092            0.000536663561           
       1.472013             0.00999454348            0.000562169481           
       1.474653              0.0103640272            0.000563635448           
       1.477293              0.0109796386            0.000592360924           
       1.479934              0.0107059321            0.000558146347           
       1.482574              0.0116746936            0.000563818634           
       1.485215              0.0104729761            0.000543958997           
       1.487855              0.0104915782            0.000551623958           
       1.490495             0.00979413943            0.000531010893           
       1.493136              0.0108847974            0.000552123797           
       1.495776              0.0106806737            0.000544431962           
       1.498416              0.0112637634            0.000577387585           
       1.501057               0.010997466            0.000557948028           
       1.503697              0.0110306667            0.000546305963           
       1.506338              0.0108365648            0.000551372775           
       1.508978              0.0104175625            0.000535291611           
       1.511618              0.0104434312            0.000570790326           
       1.514259              0.0112564937            0.000572120846           
       1.516899               0.010598258            0.000540523489           
       1.519540             0.00998025022            0.000532985628           
       1.522180             0.00986459537            0.000534543209           
       1.524820              0.0114776593            0.000573358673           
       1.527461             0.00997513548            0.000537157581           
       1.530101              0.0108241056            0.000553953158           
       1.532741              0.0110475828            0.000556394656           
       1.535382              0.0106578523            0.000555290307           
       1.538022              0.0112548639            0.000537564619           
       1.540663              0.0100875464            0.000547379686           
       1.543303              0.0105423544             0.00051958218           
       1.545943              0.0101294467            0.000539062188           
       1.548584              0.0102788838             0.00055277157           
       1.551224              0.0101666584            0.000508291847           
       1.553864              0.0104081729            0.000543447484           
       1.556505              0.0107479858            0.000533485527           
       1.559145              0.0114068198            0.000556325714           
       1.561786             0.00940153224            0.000505452688           
       1.564426              0.0105850049            0.000519641499           
       1.567066             0.00887783972             0.00049864751           
       1.569707             0.00985544643            0.000515948012           
       1.572347             0.00994379619            0.000535409719           
       1.574988             0.00980077861            0.000505942179           
       1.577628             0.00927801125            0.000513309937           
       1.580268             0.00912994296            0.000493358141           
       1.582909             0.00969412563            0.000538855301           
       1.585549             0.00922828331             0.00051048529           
       1.588189             0.00955351799             0.00050806681           
       1.590830             0.00982346742            0.000514548289           
       1.593470              0.0108085339            0.000561101823           
       1.596111             0.00926121085            0.000507084342           
       1.598751             0.00904801024            0.000485659189           
       1.601391             0.00927310057            0.000502510473           
       1.604032             0.00921263399            0.000511340206           
       1.606672             0.00915642033              0.0004952975           
       1.609312             0.00801235009            0.000483654329           
       1.611953             0.00931053901            0.000510188928           
       1.614593             0.00933347283            0.000501070917           
       1.617234             0.00915991847            0.000514447455           
       1.619874             0.00908247977            0.000510244658           
       1.622514             0.00882983391            0.000496234915           
       1.625155             0.00922565573            0.000510232029           
       1.627795             0.00940477127            0.000502538906           
       1.630436             0.00871324619            0.000481184778           
       1.633076             0.00989953101              0.0005196227           
       1.635716             0.00849047793            0.000473736122           
       1.638357             0.00863747971             0.00047907905           
       1.640997             0.00950626914            0.000517820276           
       1.643637             0.00889444279            0.000487412338           
       1.646278             0.00899131348            0.000505457104           
       1.648918             0.00955601028            0.000522509456           
       1.651559             0.00930561525            0.000519620349           
       1.654199             0.00994626406            0.000522483322           
       1.656839             0.00831040197            0.000477754763           
       1.659480               0.008699122            0.000507155966           
       1.662120             0.00849592966            0.000472045898           
       1.664761             0.00937104773            0.000514968296           
       1.667401             0.00910221433             0.00048508803           
       1.670041             0.00897480069            0.000489025458           
       1.672682             0.00803167143            0.000460716032           
       1.675322             0.00918327625            0.000489471537           
       1.677962             0.00853938027            0.000466793015           
       1.680603             0.00926878476            0.000487817023           
       1.683243             0.00938619083            0.000512159309           
       1.685884             0.00890054484            0.000502416625           
       1.688524              0.0086198691             0.00048487397           
       1.691164             0.00878757645            0.000489679198           
       1.693805             0.00912420843            0.000504451685           
       1.696445             0.00883478544             0.00049926592           
       1.699085             0.00803919877            0.000460297392           
       1.701726             0.00959349073            0.000484388124           
       1.704366             0.00913542546             0.00049795808           
       1.707007             0.00762232702            0.000444714983           
       1.709647             0.00838214365            0.000471620376           
       1.712287             0.00891016681            0.000490480534           
       1.714928             0.00865151792            0.000487205872           
       1.717568             0.00934488802            0.000476986559           
       1.720209             0.00827243475             0.00047006838           
       1.722849             0.00810555332            0.000462910664           
       1.725489             0.00900076729            0.000488213899           
       1.728130             0.00857809232             0.00050650588           
       1.730770             0.00873786713            0.000485503738           
       1.733410             0.00844498622            0.000469795033           
       1.736051              0.0089345408            0.000486583616           
       1.738691             0.00915073466            0.000482453184           
       1.741332             0.00916087546            0.000496835498           
       1.743972             0.00900017742            0.000508547061           
       1.746612             0.00828717039            0.000468592458           
       1.749253              0.0095936023            0.000514133666           
       1.751893             0.00890646791            0.000491743224           
       1.754533             0.00817531886            0.000470687009           
       1.757174             0.00805547607            0.000462849032           
       1.759814             0.00840291541            0.000465559598           
       1.762455             0.00855408189            0.000478353796           
       1.765095             0.00799850522            0.000442493721           
       1.767735             0.00902829927            0.000484619782           
       1.770376              0.0082784303            0.000465281276           
       1.773016              0.0081490297            0.000458538409           
       1.775657              0.0082604861            0.000455020826           
       1.778297             0.00915947454            0.000475015635           
       1.780937              0.0078139363            0.000463090259           
       1.783578             0.00879154014            0.000478923252           
       1.786218             0.00923226194            0.000512183384           
       1.788858             0.00889261879            0.000477418835           
       1.791499             0.00913035385            0.000478325341           
       1.794139             0.00957078336            0.000485752949           
       1.796780             0.00866334025            0.000459923534           
       1.799420              0.0091207364            0.000469295294           
       1.802060             0.00924746825            0.000476361338           
       1.804701             0.00838024308            0.000435175285           
       1.807341             0.00858059747            0.000462708531           
       1.809981             0.00942169217            0.000486473004           
       1.812622             0.00962146501            0.000482752961           
       1.815262             0.00954521092            0.000491050214           
       1.817903             0.00902793852            0.000470483505           
       1.820543             0.00963116988             0.00049351997           
       1.823183             0.00906298907            0.000478478159           
       1.825824             0.00940086913             0.00046556167           
       1.828464             0.00879571318            0.000469486185           
       1.831105             0.00935096911            0.000470694551           
       1.833745             0.00867632352            0.000463080278           
       1.836385             0.00983572167            0.000507121544           
       1.839026             0.00839303762            0.000466975641           
       1.841666             0.00956703761            0.000496798949           
       1.844306             0.00854125041            0.000456602253           
       1.846947             0.00883586553            0.000468481228           
       1.849587             0.00878326019            0.000515774593           
       1.852228             0.00766838982            0.000435784348           
       1.854868             0.00815054884            0.000474593368           
       1.857508             0.00912264003            0.000497173493           
       1.860149             0.00786499157            0.000470020191           
       1.862789             0.00826553214            0.000465086971           
       1.865429             0.00906416609            0.000508392972           
       1.868070             0.00876995149            0.000493408813           
       1.870710             0.00869068609            0.000479850154           
       1.873351             0.00826634977            0.000473774249           
       1.875991             0.00899587831            0.000502304316           
       1.878631             0.00926570746            0.000500018456           
       1.881272             0.00872679026            0.000482008086           
       1.883912             0.00864977685            0.000499411891           
       1.886553             0.00868922494            0.000494953252           
       1.889193             0.00868072509            0.000493865815           
       1.891833             0.00859330774            0.000510309856           
       1.894474             0.00863967583            0.000507228518           
       1.897114             0.00841639279             0.00048445039           
       1.899754             0.00879944394              0.0004974246           
       1.902395             0.00861158718            0.000482465392           
       1.905035             0.00895671903            0.000521151184           
       1.907676             0.00813083708             0.00046799326           
       1.910316             0.00827892788            0.000484774591           
       1.912956             0.00803769339            0.000467151037           
       1.915597             0.00821874833            0.000475023281           
       1.918237             0.00822046073            0.000490634572           
       1.920878             0.00890503393            0.000508564873           
       1.923518             0.00899079408            0.000511224696           
       1.926158             0.00901771631            0.000505345713           
       1.928799               0.009121016            0.000502348963           
       1.931439             0.00819864657            0.000488764053           
       1.934079             0.00842082554            0.000516382272           
       1.936720             0.00877773653            0.000488477203           
       1.939360             0.00819227944            0.000503457791           
       1.942001             0.00917032213            0.000488213439           
       1.944641             0.00805051807            0.000466445398           
       1.947281             0.00874901118             0.00048177772           
       1.949922             0.00833997844            0.000485861875           
       1.952562             0.00782309415            0.000485315169           
       1.955202             0.00839761543             0.00050220712           
       1.957843             0.00820269034            0.000483472657           
       1.960483             0.00905164647            0.000530983506           
       1.963124             0.00796581452            0.000487899008           
       1.965764             0.00799254561            0.000460873775           
       1.968404             0.00864692944            0.000474840224           
       1.971045             0.00799716941            0.000465580005           
       1.973685             0.00752059014            0.000473583665           
       1.976326             0.00872646477            0.000503129406           
       1.978966             0.00821104985            0.000492328018           
       1.981606             0.00860994531            0.000514659197           
       1.984247             0.00718564409            0.000467076148           
       1.986887             0.00772997447            0.000478641242           
       1.989527             0.00855277788            0.000498049183           
       1.992168             0.00742911215            0.000481626831           
       1.994808             0.00838859043            0.000509590206           
       1.997449             0.00744520988            0.000470222378           
       2.000089             0.00821406153            0.000491947253           
       2.002729             0.00760755197            0.000473720656           
       2.005370             0.00740852315            0.000462452874           
       2.008010             0.00766882569            0.000491041505           
       2.010650             0.00726962539            0.000481657567           
       2.013291              0.0078709503            0.000480856933           
       2.015931             0.00867765607            0.000501328772           
       2.018572             0.00770149822            0.000505159135           
       2.021212             0.00785912229            0.000501133953           
       2.023852             0.00803459113            0.000479565242           
       2.026493             0.00789322917            0.000496564397           
       2.029133              0.0079118949            0.000487146494           
       2.031774             0.00807170397            0.000516386864           
       2.034414             0.00838636271            0.000484320436           
       2.037054             0.00720028022            0.000460141514           
       2.039695             0.00686187663             0.00044580577           
       2.042335             0.00784429917             0.00049534594           
       2.044975             0.00788039356            0.000490463268           
       2.047616             0.00631424548            0.000437938481           
       2.050256             0.00695693851            0.000464036461           
       2.052897             0.00738208666            0.000486817472           
       2.055537             0.00685652113            0.000453433154           
       2.058177             0.00697209715            0.000447760081           
       2.060818             0.00779462089            0.000495960739           
       2.063458             0.00835120368            0.000534974961           
       2.066098             0.00762031793            0.000482071442           
       2.068739             0.00858867473            0.000519740639           
       2.071379             0.00697756777            0.000480681036           
       2.074020               0.007856926            0.000498986491           
       2.076660             0.00801455497             0.00050804112           
       2.079300             0.00742366046            0.000500934592           
       2.081941             0.00824794722             0.00048345638           
       2.084581             0.00702972093            0.000471102767           
       2.087222             0.00819244879            0.000490470255           
       2.089862             0.00826030152            0.000536404588           
       2.092502             0.00769102303            0.000501730438           
       2.095143             0.00688039574            0.000490047375           
       2.097783              0.0076796091            0.000501246996           
       2.100423             0.00743367404            0.000475200829           
       2.103064              0.0079878671            0.000511134508           
       2.105704             0.00796856392            0.000507987821           
       2.108345             0.00830556314            0.000498253479           
       2.110985             0.00826371715            0.000530828458           
       2.113625             0.00718080529            0.000499144696           
       2.116266             0.00806888248            0.000536617577           
       2.118906             0.00793233875            0.000495848073           
       2.121546             0.00777378929            0.000481495448           
       2.124187             0.00790833903              0.0005097767           
       2.126827             0.00668177012            0.000473809002           
       2.129468             0.00798365307            0.000519237787           
       2.132108             0.00725977862            0.000481732585           
       2.134748             0.00696821069            0.000470128658           
       2.137389             0.00752705392            0.000509748935           
       2.140029             0.00781358244            0.000464963214           
       2.142670             0.00689558968            0.000466813886           
       2.145310             0.00823880531            0.000496643662           
       2.147950             0.00767094391            0.000493250524           
       2.150591             0.00706323917            0.000468526082           
       2.153231             0.00725048762            0.000488625563           
       2.155871             0.00727617661            0.000472880294           
       2.158512             0.00756352147            0.000503065532           
       2.161152             0.00757237724            0.000487585856           
       2.163793             0.00757011374            0.000485318243           
       2.166433             0.00781870091            0.000506487355           
       2.169073             0.00753617457            0.000486181754           
       2.171714             0.00717210105            0.000470747072           
       2.174354             0.00738577499            0.000499160675           
       2.176995             0.00826895119            0.000525940093           
       2.179635             0.00741197329            0.000526181936           
       2.182275             0.00691558586            0.000479875402           
       2.184916             0.00733853835            0.000477460572           
       2.187556             0.00810620184            0.000496782865           
       2.190196             0.00784973557            0.000510853186           
       2.192837             0.00786666952            0.000508621456           
       2.195477             0.00690312291            0.000454243397           
       2.198118             0.00733961869            0.000480386228           
       2.200758               0.008313029             0.00052451162           
       2.203398             0.00721374737            0.000491728541           
       2.206039             0.00695450232            0.000456940604           
       2.208679             0.00788665976            0.000497925878           
       2.211319             0.00839429412            0.000516662788           
       2.213960             0.00722609455             0.00048578835           
       2.216600              0.0067536109             0.00048583011           
       2.219241             0.00726217416            0.000481487326           
       2.221881             0.00757543868             0.00049277361           
       2.224521             0.00742958224            0.000493986615           
       2.227162             0.00751089352            0.000486737677           
       2.229802             0.00671122062            0.000474500432           
       2.232443             0.00703303633            0.000478082229           
       2.235083             0.00761247262            0.000512058099           
       2.237723             0.00751100262            0.000488108098           
       2.240364             0.00781041027            0.000510003883           
       2.243004             0.00745007161            0.000494124187           
       2.245644             0.00692461408            0.000481148466           
       2.248285             0.00700568624            0.000474261782           
       2.250925               0.007322111            0.000487799248           
       2.253566             0.00716355344            0.000515817449           
       2.256206             0.00774053318            0.000525467034           
       2.258846             0.00678552078            0.000468013575           
       2.261487             0.00720044397            0.000506019582           
       2.264127             0.00723335159            0.000489821177           
       2.266767             0.00745242214             0.00051042958           
       2.269408             0.00735042379            0.000509000389           
       2.272048             0.00864160866             0.00054860416           
       2.274689              0.0077226027            0.000525446713           
       2.277329             0.00716588744            0.000476575679           
       2.279969             0.00711614212            0.000505523666           
       2.282610             0.00797257513            0.000520197699           
       2.285250             0.00693348655            0.000464321246           
       2.287891             0.00685712362            0.000495073474           
       2.290531             0.00720356746            0.000514246892           
       2.293171             0.00711420163            0.000497806108           
       2.295812             0.00774059137            0.000517171963           
       2.298452             0.00703106257            0.000515441897           
       2.301092             0.00717987677            0.000483950433           
       2.303733             0.00741837386            0.000511771313           
       2.306373             0.00725671086            0.000514135606           
       2.309014             0.00773524411            0.000520461911           
       2.311654             0.00736419772              0.0005299402           
       2.314294             0.00732056905            0.000486787453           
       2.316935              0.0072461376            0.000486307314           
       2.319575             0.00709012927            0.000504022527           
       2.322215             0.00704020164            0.000523423834           
       2.324856             0.00681880304            0.000473606621           
       2.327496             0.00791605967            0.000542599963           
       2.330137             0.00697941902             0.00048754292           
       2.332777             0.00661673272            0.000489472826           
       2.335417             0.00681841637              0.0004820446           
       2.338058             0.00719113893            0.000509832636           
       2.340698             0.00782721406            0.000527723038           
       2.343339             0.00792151746            0.000542575348           
       2.345979             0.00789187414            0.000512358081           
       2.348619             0.00736244863            0.000512963436           
       2.351260             0.00724067809            0.000505739862           
       2.353900             0.00832812851            0.000540671324           
       2.356540              0.0073141967            0.000505971455           
       2.359181             0.00615464616             0.00045762798           
       2.361821             0.00752690392            0.000488859834           
       2.364462             0.00643925977            0.000472904966           
       2.367102             0.00641576527            0.000485098097           
       2.369742             0.00752392259            0.000552940116           
       2.372383             0.00719931928            0.000489766335           
       2.375023             0.00684281198            0.000501941108           
       2.377663             0.00720676103             0.00049252708           
       2.380304              0.0067853955            0.000485880274           
       2.382944             0.00739227063            0.000483037854           
       2.385585             0.00792865261            0.000533531187           
       2.388225             0.00693687237            0.000496702593           
       2.390865             0.00630326608            0.000468611725           
       2.393506             0.00730647286            0.000495008286           
       2.396146             0.00708928088            0.000527210235           
       2.398787             0.00711699702            0.000486813984           
       2.401427             0.00762656779            0.000486418715           
       2.404067             0.00700822387            0.000476683842           
       2.406708             0.00662350392            0.000457858172           
       2.409348             0.00668654491            0.000487953831           
       2.411988             0.00762746675            0.000510617907           
       2.414629             0.00822162128            0.000546643094           
       2.417269             0.00718788089            0.000517090671           
       2.419910             0.00829722672            0.000556851428           
       2.422550             0.00701714395            0.000489943759           
       2.425190             0.00799777419            0.000551358714           
       2.427831             0.00620444157            0.000482895118           
       2.430471             0.00788810872            0.000518729513           
       2.433112             0.00708118312            0.000478586106           
       2.435752             0.00728051348            0.000513572764           
       2.438392              0.0076848743            0.000509282358           
       2.441033             0.00697803831            0.000514316463           
       2.443673             0.00732083073            0.000527202769           
       2.446313             0.00768261306            0.000540548574           
       2.448954             0.00799721492            0.000525110065           
       2.451594             0.00731762445            0.000540093405           
       2.454235             0.00669117061            0.000484569306           
       2.456875             0.00694124526            0.000516421145           
       2.459515             0.00703749011            0.000533450211           
       2.462156             0.00706789099            0.000504737969           
       2.464796             0.00730515538            0.000506519545           
       2.467436             0.00686495091            0.000507773537           
       2.470077              0.0071897041            0.000492529256           
       2.472717             0.00820581509            0.000528463012           
       2.475358             0.00665993372            0.000481053808           
       2.477998             0.00764754277            0.000506798893           
       2.480638             0.00739511907            0.000507220193           
       2.483279             0.00771737111            0.000541553265           
       2.485919             0.00684010791            0.000491351997           
       2.488560              0.0074647669            0.000511863533           
       2.491200             0.00662309582            0.000496480691           
       2.493840             0.00739800199            0.000555224325           
       2.496481             0.00741964794            0.000546940467           
       2.499121             0.00643531159            0.000495443487           
       2.501761             0.00739032244            0.000537969218           
       2.504402             0.00714466915            0.000521224678           
       2.507042             0.00708621571            0.000515242758           
       2.509683             0.00769640752            0.000528761656           
       2.512323             0.00744634233            0.000546234931           
       2.514963             0.00749575907            0.000541273647           
       2.517604             0.00668511283            0.000530415151           
       2.520244             0.00638981569             0.00048615845           
       2.522884             0.00745003615            0.000532451058           
       2.525525             0.00735088338            0.000534899059           
       2.528165              0.0076516877            0.000537226863           
       2.530806              0.0072996883            0.000533870472           
       2.533446             0.00657820617            0.000495983693           
       2.536086             0.00716373407             0.00051295443           
       2.538727             0.00652985627            0.000469825994           
       2.541367             0.00740567166            0.000505271184           
       2.544008             0.00764327786            0.000530126861           
       2.546648             0.00753395221            0.000535349705           
       2.549288             0.00704401985              0.0005281978           
       2.551929             0.00797607643            0.000553098479           
       2.554569             0.00747007281            0.000515684667           
       2.557209             0.00717647884            0.000510091123           
       2.559850             0.00754359179            0.000524654652           
       2.562490              0.0069366786            0.000519987936           
       2.565131             0.00830075315            0.000589780054           
       2.567771             0.00665840006            0.000509285069           
       2.570411             0.00674159516            0.000506912174           
       2.573052             0.00676018658            0.000514003302           
       2.575692             0.00745497184            0.000536502447           
       2.578332             0.00657661749            0.000505990324           
       2.580973             0.00622208508            0.000487480154           
       2.583613             0.00633445965            0.000480150838           
       2.586254             0.00777087708            0.000531072652           
       2.588894             0.00644972792            0.000502430684           
       2.591534             0.00687485317            0.000536977702           
       2.594175             0.00617282013             0.00049922079           
       2.596815             0.00677200649            0.000525972118           
       2.599456             0.00720442691            0.000514454989           
       2.602096             0.00663316567            0.000497394173           
       2.604736             0.00691798913            0.000520005674           
       2.607377             0.00743883693            0.000525015439           
       2.610017             0.00682446671            0.000494067894           
       2.612657             0.00789443541            0.000565212655           
       2.615298             0.00775170918            0.000546814287           
       2.617938             0.00587037989            0.000509042753           
       2.620579             0.00640490884            0.000510439512           
       2.623219             0.00721291484            0.000540908359           
       2.625859             0.00640080522            0.000495424145           
       2.628500             0.00719058149            0.000521657998           
       2.631140             0.00691197764            0.000519332778           
       2.633780              0.0078785741            0.000553975653           
       2.636421             0.00677969458            0.000526529678           
       2.639061             0.00647535862            0.000484414355           
       2.641702             0.00690639243            0.000511858934           
       2.644342             0.00698965547            0.000517129285           
       2.646982             0.00719743536            0.000516914258           
       2.649623             0.00639881497            0.000510768427           
       2.652263             0.00662084138            0.000514340493           
       2.654904             0.00794206243            0.000563893992           
       2.657544             0.00709816393            0.000502119296           
       2.660184              0.0075499512             0.00054803861           
       2.662825              0.0067303092            0.000529440371           
       2.665465             0.00650799677             0.00050352803           
       2.668105             0.00670702957            0.000538792454           
       2.670746             0.00719386058            0.000515476808           
       2.673386             0.00895343534            0.000592658822           
       2.676027             0.00814777421            0.000556291905           
       2.678667             0.00821854103            0.000545153968           
       2.681307             0.00976415641            0.000583844074           
       2.683948              0.0152279775             0.00074913979           
       2.686588              0.0108074128             0.00062064044           
       2.689229              0.0100663411            0.000585302127           
       2.691869             0.00964421563            0.000605496819           
       2.694509             0.00928916173            0.000594573085           
       2.697150             0.00788306911            0.000538841297           
       2.699790              0.0073166518            0.000544224797           
       2.702430             0.00702324793            0.000509676268           
       2.705071             0.00663197161            0.000511773635           
       2.707711             0.00543285286            0.000449572383           
       2.710352             0.00647178656            0.000518464105           
       2.712992             0.00698153697             0.00054845235           
       2.715632             0.00667236624            0.000497460311           
       2.718273             0.00653044802            0.000510038429           
       2.720913             0.00763474651            0.000549909537           
       2.723553             0.00698476467            0.000529509799           
       2.726194             0.00670332862            0.000542246333           
       2.728834              0.0086973369            0.000617942727           
       2.731475             0.00811090271            0.000550744433           
       2.734115             0.00705300237            0.000529512387           
       2.736755             0.00776482074            0.000560163474           
       2.739396             0.00678018577            0.000520410815           
       2.742036             0.00712843782            0.000558455125           
       2.744677             0.00608494676            0.000500627415           
       2.747317             0.00730344458            0.000544555531           
       2.749957             0.00723417209            0.000545770279           
       2.752598             0.00709903389            0.000546516025           
       2.755238               0.007230737            0.000561519225           
       2.757878             0.00763059075            0.000571792678           
       2.760519             0.00787727731            0.000574801726           
       2.763159             0.00615147785            0.000502872502           
       2.765800             0.00678220119            0.000503198436           
       2.768440             0.00813927693            0.000555308769           
       2.771080             0.00822444561            0.000562865968           
       2.773721             0.00712247794            0.000537314205           
       2.776361             0.00624247218            0.000509966494           
       2.779001             0.00740125058             0.00057505381           
       2.781642             0.00832192044            0.000605278604           
       2.784282             0.00772055505            0.000592585795           
       2.786923             0.00693351643            0.000566514309           
       2.789563             0.00694657254            0.000546133289           
       2.792203             0.00697011039            0.000522596388           
       2.794844              0.0073767453            0.000589227558           
       2.797484             0.00728777809            0.000552723543           
       2.800125             0.00759392274            0.000593270704           
       2.802765             0.00701944811            0.000560576585           
       2.805405             0.00699494265            0.000561491239           
       2.808046             0.00754967129            0.000593585504           
       2.810686             0.00701029433            0.000525591028           
       2.813326             0.00730536685            0.000557315349           
       2.815967             0.00768912236            0.000588023023           
       2.818607             0.00629185567            0.000507596332           
       2.821248             0.00729401798            0.000535181685           
       2.823888             0.00714580999            0.000549859228           
       2.826528             0.00648470185            0.000507280608           
       2.829169             0.00613147556            0.000516673928           
       2.831809             0.00679365752            0.000551256098           
       2.834449              0.0071949004            0.000570886735           
       2.837090             0.00684287614            0.000537728081           
       2.839730             0.00632552107            0.000514476949           
       2.842371             0.00641584197            0.000518884788           
       2.845011             0.00759082245            0.000568900819           
       2.847651             0.00714257611             0.00055252589           
       2.850292             0.00814081826            0.000595663062           
       2.852932             0.00657788545            0.000547107744           
       2.855573             0.00658849871            0.000531137909           
       2.858213             0.00584805532            0.000525483715           
       2.860853             0.00749970367            0.000553561396           
       2.863494             0.00633201533             0.00052663086           
       2.866134             0.00719528606            0.000583488178           
       2.868774             0.00593234652            0.000520695989           
       2.871415             0.00697211318            0.000573278712           
       2.874055             0.00718301625             0.00055620953           
       2.876696                0.00677785            0.000554909258           
       2.879336             0.00723557177            0.000552589757           
       2.881976             0.00682533547            0.000553564982           
       2.884617             0.00730947427            0.000564448213           
       2.887257              0.0075689481            0.000577344014           
       2.889897             0.00691985456            0.000540672049           
       2.892538             0.00699627826            0.000595569981           
       2.895178             0.00728958217            0.000549220459           
       2.897819             0.00674724692            0.000539013384           
       2.900459             0.00675060465            0.000528659363           
       2.903099             0.00706226243            0.000535190151           
       2.905740             0.00768704989            0.000572808303           
       2.908380              0.0069776087            0.000551937025           
       2.911021             0.00785190641            0.000595015011           
       2.913661             0.00630496951            0.000533030093           
       2.916301             0.00899001181            0.000637095193           
       2.918942             0.00646937422            0.000516953492           
       2.921582             0.00728342839            0.000573904392           
       2.924222             0.00700831094            0.000545400927           
       2.926863             0.00792387357            0.000604067349           
       2.929503             0.00697014659            0.000573261244           
       2.932144             0.00720321923            0.000559420669           
       2.934784             0.00664301796            0.000528418106           
       2.937424             0.00574982363            0.000496659014           
       2.940065             0.00655984226            0.000506037988           
       2.942705              0.0074538313            0.000538742205           
       2.945346             0.00767930105            0.000580324666           
       2.947986             0.00601472746            0.000523685996           
       2.950626             0.00612234812            0.000525375543           
       2.953267             0.00637259008            0.000527344583           
       2.955907             0.00737386159            0.000588456768           
       2.958547               0.007138189            0.000546583716           
       2.961188              0.0067414888            0.000554167598           
       2.963828             0.00693052234            0.000549625838           
       2.966469             0.00831599286            0.000590620729           
       2.969109             0.00729811363            0.000561493165           
       2.971749             0.00647496479            0.000525581542           
       2.974390             0.00692186958            0.000534006505           
       2.977030             0.00693215241            0.000546345962           
       2.979670             0.00903638675            0.000606745661           
       2.982311             0.00865186758            0.000615336148           
       2.984951             0.00852498111            0.000580931468           
       2.987592             0.00796736593            0.000572859558           
       2.990232             0.00824411551            0.000606026558           
       2.992872             0.00800844363            0.000562624359           
       2.995513              0.0101547774             0.00061981869           
       2.998153              0.0125427975            0.000700426793           
       3.000794              0.0117688848            0.000657171756           
       3.003434              0.0106763566            0.000626870752           
       3.006074              0.0272951044            0.000988277144           
       3.008715              0.0930362458             0.00176129001           
       3.011355               0.243303195             0.00274663677           
       3.013995               0.157735825             0.00221754528           
       3.016636              0.0872251159             0.00161478939           
       3.019276               0.146866231             0.00205968407           
       3.021917               0.513826442             0.00370441004           
       3.024557                1.29233211             0.00577600916           
       3.027197                1.11569424             0.00523232328           
       3.029838               0.611496669             0.00392858379           
       3.032478                0.26384998             0.00258320495           
       3.035118              0.0692284376              0.0013409432           
       3.037759              0.0753546265             0.00139721224           
       3.040399               0.102359424             0.00167977492           
       3.043040               0.386855148             0.00330561531           
       3.045680               0.390545709             0.00312491502           
       3.048320               0.116496105             0.00174383402           
       3.050961               0.128612033             0.00186455835           
       3.053601               0.105606638             0.00162727797           
       3.056242              0.0908600035             0.00160480611           
       3.058882              0.0966068354               0.001775087           
       3.061522              0.0780696392             0.00156559196           
       3.064163              0.0906674776             0.00166594143           
       3.066803               0.166404418             0.00237605201           
       3.069443               0.100631226             0.00193320509           
       3.072084              0.0385182981             0.00116462209           
       3.074724               0.045764909             0.00141769289           
       3.077365              0.0370247058             0.00132000401           
       3.080005              0.0113623461            0.000735389508           
       3.082645              0.0154636552            0.000901249877           
       3.085286              0.0133778994            0.000844882063           
       3.087926              0.0130304572            0.000827411992           
       3.090566              0.0112300628            0.000752616288           
       3.093207              0.0112405171            0.000783539582           
       3.095847             0.00836064415            0.000647698416           
       3.098488             0.00882304047            0.000737779557           
       3.101128             0.00806121584            0.000709744111           
       3.103768              0.0099320107             0.00077298605           
       3.106409             0.00924506142            0.000793705472           
       3.109049             0.00852204726            0.000731289819           
       3.111690             0.00865248313            0.000724215357           
       3.114330             0.00833190198            0.000725790701           
       3.116970             0.00725005455            0.000682230865           
       3.119611              0.0119140967            0.000930915028           
       3.122251              0.0156364572             0.00111556347           
       3.124891              0.0340410483             0.00166131953           
       3.127532              0.0252746003             0.00140043177           
       3.130172              0.0177320053              0.0011932707           
       3.132813              0.0105487378            0.000906068031           
       3.135453             0.00818236401            0.000791421371           
       3.138093             0.00716988891            0.000802726659           
       3.140734             0.00757340152              0.0007611313           
       3.143374             0.00693378957            0.000770189783           
       3.146014             0.00564012131            0.000747806228           
       3.148655             0.00718541383            0.000784627282           
       3.151295              0.0066156403            0.000802307064           
       3.153936             0.00679928831            0.000785687729           
       3.156576             0.00644085967            0.000754296907           
       3.159216             0.00585975093            0.000723064144           
       3.161857             0.00681603687            0.000776662118           
       3.164497             0.00792128208            0.000879726208           
       3.167138              0.0083413078            0.000932759715           
       3.169778             0.00763713229            0.000877800973           
       3.172418             0.00592236823            0.000765135771           
       3.175059             0.00520544979            0.000635944788           
       3.177699             0.00696207204             0.00077880851           
       3.180339             0.00629745164            0.000793605371           
       3.182980             0.00747636514            0.000894015991           
       3.185620             0.00544241239            0.000776820167           
       3.188261             0.00481290884            0.000743550368           
       3.190901             0.00631802643            0.000783516406           
       3.193541              0.0064251602            0.000830237613           
       3.196182             0.00488938584            0.000754770788           
       3.198822             0.00592725293            0.000831304628           
       3.201463             0.00631158333             0.00084305351           
       3.204103             0.00499921809            0.000745738649           
       3.206743             0.00588352953             0.00080893535           
       3.209384             0.00583168678            0.000870126491           
       3.212024             0.00562367814            0.000796631656           
       3.214664             0.00480455679            0.000837315016           
       3.217305             0.00512286278            0.000821868346           
       3.219945             0.00626655587            0.000935588012           
       3.222586             0.00633014503            0.000895641955           
       3.225226             0.00263467581            0.000640999251           
       3.227866             0.00598755241            0.000883201942           
       3.230507             0.00586337882            0.000905992058           
       3.233147             0.00597454465            0.000921925022           
       3.235787             0.00683589248             0.00100919626           
       3.238428             0.00640042182             0.00105379151           
       3.241068             0.00575182974            0.000934088658           
       3.243709             0.00451946153            0.000855451814           
       3.246349             0.00565414099            0.000872241239           
       3.248989              0.0052719401            0.000994503998           
       3.251630             0.00573464802             0.00099882331           
       3.254270             0.00456770758            0.000796691538           
       3.256911             0.00546027684            0.000950423822           
       3.259551             0.00670146209             0.00113356069           
       3.262191             0.00697499421             0.00118126968           
       3.264832             0.00697018615             0.00123382436           
       3.267472              0.0038275212            0.000857714149           
       3.270112              0.0067662366             0.00126028777           
       3.272753             0.00470641767            0.000962090995           
       3.275393             0.00677556326             0.00117785572           
       3.278034             0.00408745489            0.000915356605           
       3.280674             0.00503880108             0.00110284061           
       3.283314             0.00537876241             0.00101906043           
       3.285955             0.00657332342             0.00116235435           
       3.288595              0.0053448792             0.00116608344           
       3.291235             0.00747891552             0.00141797801           
       3.293876             0.00525822073             0.00120605177           
       3.296516              0.0069113966             0.00132742756           
       3.299157             0.00594713754             0.00121587903           
       3.301797              0.0067698587             0.00147976188           
       3.304437              0.0060644889             0.00121341125           
       3.307078             0.00883240535             0.00161309222           
       3.309718             0.00630323046              0.0014065546           
       3.312359             0.00566232297             0.00133344613           
       3.314999             0.00577738468             0.00132615907           
       3.317639             0.00475031045             0.00115005908           
       3.320280             0.00248828642            0.000884966661           
       3.322920             0.00712108634             0.00152229428           
       3.325560             0.00484214369             0.00125614356           
       3.328201             0.00526610566              0.0011797964           
       3.330841             0.00630884567             0.00157162931           
       3.333482             0.00808023339             0.00168121952           
       3.336122             0.00488017947             0.00130716363           
       3.338762             0.00604758717             0.00168090568           
       3.341403             0.00552340921             0.00153498721           
       3.344043             0.00624281653               0.001566751           
       3.346683             0.00243783864            0.000999547041           
       3.349324             0.00363030167              0.0013714044           
       3.351964             0.00634034418             0.00191653015           
       3.354605             0.00455352169             0.00185749287           
       3.357245             0.00489334177             0.00173705665           
       3.359885             0.00355793017             0.00118548344           
       3.362526             0.00607408191             0.00193702549           
       3.365166             0.00440914949             0.00155658649           
       3.367807              0.0052952974             0.00218314221           
       3.370447             0.00558701687              0.0018601607           
       3.373087             0.00279220087             0.00140624522           
       3.375728             0.00444071486              0.0020014899           
       3.378368              0.0140034428             0.00527490044           
       3.381008             0.00662102873             0.00270419328           
       3.383649             0.00569090903             0.00201117691           
       3.386289             0.00898728944             0.00299126134           
       3.388930             0.00249948335             0.00249521764           
       3.391570             0.00246050469              0.0017512893           
       3.394210              0.0140561748             0.00529723621           
       3.396851             0.00496406648             0.00352134321           
       3.399491             0.00243264788             0.00246576269           
       3.402131           -2.67271529e-05                         0           
       3.404772           -2.67400527e-05                         0           
       3.407412                       nan                       nan           
       3.410053             0.00936688336              0.0096952643           
       3.412693                       nan                       nan           
       3.415333           -2.68571392e-05                         0           
