################################################################################
# EDF_DataBlockID                     0.Image.Psd
# EDF_BinarySize                      2105344
# EDF_HeaderSize                      2560
# ByteOrder                           LowByteFirst
# DataType                            FloatValue
# Dim_1                               512
# Dim_2                               1028
# Image                               0
# HeaderID                            EH:000000:000000:000000
# Size                                2105344
# Center_1                            304.9000
# Center_2                            588.7000
# Comment                             Xenocs_Cell_Window - 20251028_20perc_iodine_1.23mg
# DDummy                              0.6
# Date                                2025-11-02T02:51:08
# Delta                               21.910000
# Dummy                               -1.5
# ExposureTime                        360
# Gamma                               15.360000
# Intensity1                          8.79071e-10
# PSize_1                             7.5e-05
# PSize_2                             7.5e-05
# Pressure                            0.0327005
# SampleDistance                      0.115750
# SampleEnvKind                       large
# SampleEnvPN                         ElectroChemical cell
# SampleEnvSN                         1141
# Thickness                           0
# Wavelength                          1.541891e-10
# Wavelength                          1.54189e-10
# aux                                 0
# aux_dial                            0.002375
# beamx                               588.434
# beamx_dial                          588.434
# beamz                               657.808
# beamz_dial                          657.808
# det0x                               0
# det0x_dial                          6.36945
# det0xvd                             0
# det0xvd_dial                        0
# det0y                               450.002
# det0y_dial                          481.635
# det0z                               0
# det0z_dial                          1.23302
# det0zvd                             0
# det0zvd_dial                        0
# mag                                 1.818
# mag_dial                            1.818
# om                                  0.2499
# om_dial                             -0.610199
# phi                                 -0.0120535
# phi_dial                            0
# ry                                  0.599993
# ry_dial                             0.599993
# s1bot                               0.8
# s1bot_dial                          -1.66094
# s1hl                                0.8
# s1hl_dial                           -0.608437
# s1hr                                0.8
# s1hr_dial                           0.970938
# s1top                               0.8
# s1top_dial                          -0.461562
# s2bot                               0.45
# s2bot_dial                          1.36109
# s2hl                                0.45
# s2hl_dial                           -0.83375
# s2hr                                0.45
# s2hr_dial                           -0.118594
# s2top                               0.45
# s2top_dial                          1.44734
# w2theta                             32
# w2theta_dial                        32
# waxsch                              19.2605
# waxsch_dial                         -32.7355
# waxsh                               137.085
# waxsh_dial                          -43.5338
# waxsth                              26.0607
# waxsth_dial                         -19.4086
# waxsz                               67.0407
# waxsz_dial                          -23.7954
# wind                                65.9854
# wind_dial                           66.0041
# wpsi                                124
# wpsi_dial                           124
# wstod                               115
# wstod_dial                          115
# x                                   0
# x_dial                              1.00969
# z                                   0
# z_dial                              13.3172
# CountCutoff                         6807993
# DetectorModel                       Dectris EIGER2 Si 500K, S/N E-01-0554
# ThresholdSetting                    4023.88989258
# Saturation                          0
# FlatField                           Corrected
# BackgroundReductionExtra            0.02
# BackgroundCorrectionConstant        0.0026712
# Detector                            0
# Monitor                             0
# Pil_Roi0                            0
# SumForIntensity1                    3.16466e+08
# TransmittedFlux                     879071
# det                                 0
# mon                                 0
# pilai0                              3.16466e+08
# pilai1                              793818
# pilct0                              5.46461e+08
# pilct1                              793818
# pilroi0                             0
# pilroi1                             0
# sec                                 1
# title                               20251028_20perc_iodine_1.23mg_1_00986.edf
# usaxs0                              0
# Operation                           Azimuthal average I(q)
# Error_model                         ErrorModel.poisson
# Geometrical_correction              True
# Transmission_correction             True
# Thickness_correction                False
# Binning mode                        Uniform
# Binning factor                      1.0
# Psi                                 0.0
# Omega                               0.2499
# MaskInvalidPixels                   True
# DetectorEdge                        3
# MaskFiles                           ['WAXS_corrected.edf']
################################################################################
    q(A⁻¹)                Intensity(a.u.)            Sigma_I(a.u.)            
       0.693100           -2.30962036e-05                         0           
       0.695741               0.016315055             0.00685336847           
       0.698381              0.0124130727             0.00732254953           
       0.701021           -2.30598312e-05                         0           
       0.703662             0.00277581038             0.00282559044           
       0.706302              0.0101465074             0.00418244037           
       0.708942             0.00552320881             0.00398279778           
       0.711583              0.0043238887             0.00305151544           
       0.714223           -2.30029826e-05                         0           
       0.716864              0.0122302121             0.00387673413           
       0.719504             0.00576065784              0.0028711304           
       0.722144             0.00982464339              0.0034723388           
       0.724785             0.00774843371             0.00245981282           
       0.727425             0.00717137446             0.00320137351           
       0.730065              0.0106249751             0.00275638783           
       0.732706             0.00801732167              0.0020106652           
       0.735346             0.00336118545              0.0016970532           
       0.737987             0.00420639109             0.00134153224           
       0.740627              0.0055999545             0.00230953753           
       0.743267             0.00638106109             0.00165128253           
       0.745908             0.00654694457             0.00181469228           
       0.748548             0.00636973096             0.00164990385           
       0.751189             0.00935799178             0.00269467225           
       0.753829             0.00326999958             0.00146424441           
       0.756469             0.00636449928             0.00164723361           
       0.759110             0.00661740898             0.00177005841           
       0.761750              0.0107346027             0.00199341288           
       0.764390             0.00685254907             0.00166700083           
       0.767031             0.00883257574             0.00163890049           
       0.769671             0.00618372482             0.00171060058           
       0.772312             0.00651052506             0.00133623517           
       0.774952             0.00547646147             0.00165494903           
       0.777592             0.00658069368             0.00132137971           
       0.780233             0.00692148359             0.00163499024           
       0.782873             0.00911703827               0.001794672           
       0.785513             0.00722559964             0.00170804347           
       0.788154             0.00617819933             0.00132122506           
       0.790794             0.00884915782             0.00189040932           
       0.793435             0.00618243931             0.00141949879           
       0.796075             0.00995440257             0.00173511738           
       0.798715              0.0062704177             0.00162735477           
       0.801356             0.00653157607             0.00142948273           
       0.803996              0.0071628599             0.00152618037           
       0.806637             0.00741976231             0.00123614624           
       0.809277             0.00869173933             0.00144813662           
       0.811917             0.00695792759                0.00121125           
       0.814558             0.00610819863             0.00117950631           
       0.817198             0.00721660561             0.00121802224           
       0.819838             0.00688137292             0.00120375608           
       0.822479             0.00698595602             0.00142423931           
       0.825119              0.0096515212             0.00142482541           
       0.827760             0.00687147221             0.00121781551           
       0.830400             0.00529576791             0.00100622773           
       0.833040             0.00731596856             0.00123908581           
       0.835681              0.0073368822             0.00141064044           
       0.838321             0.00803168425             0.00123878971           
       0.840961             0.00747866995             0.00130242418           
       0.843602             0.00739856454             0.00118796236           
       0.846242             0.00626778057             0.00109325396           
       0.848883             0.00497016175            0.000996268047           
       0.851523             0.00602404394             0.00108319458           
       0.854163             0.00616142728             0.00116499013           
       0.856804              0.0091078387             0.00127354761           
       0.859444             0.00631878909             0.00103935735           
       0.862085             0.00760987099             0.00118879958           
       0.864725             0.00800307395             0.00124764912           
       0.867365             0.00770142401             0.00113492056           
       0.870006              0.0103169396             0.00125173753           
       0.872646             0.00702379923              0.0010830528           
       0.875286             0.00770160617             0.00109108163           
       0.877927             0.00776437621             0.00105712467           
       0.880567             0.00634259397            0.000989861991           
       0.883208             0.00893775901             0.00116397774           
       0.885848             0.00647623534             0.00102876197           
       0.888488             0.00773434188             0.00105448288           
       0.891129             0.00620368732            0.000969694617           
       0.893769             0.00805342776             0.00105736312           
       0.896410              0.0079185049            0.000977539993           
       0.899050             0.00656592856            0.000978918081           
       0.901690             0.00743642337              0.0011348124           
       0.904331             0.00763131007             0.00101917152           
       0.906971             0.00893151151             0.00117296378           
       0.909611             0.00763457575             0.00098720805           
       0.912252             0.00720212245            0.000990381797           
       0.914892             0.00648179491             0.00102672821           
       0.917533             0.00784824879             0.00106876861           
       0.920173             0.00827215458             0.00101803472           
       0.922813             0.00729483167             0.00100322127           
       0.925454             0.00826737462            0.000961708224           
       0.928094             0.00723801332            0.000960663735           
       0.930734             0.00900097417              0.0011533606           
       0.933375             0.00866735738             0.00112065826           
       0.936015             0.00655214124            0.000884931389           
       0.938656             0.00647711199            0.000943871237           
       0.941296             0.00814516843            0.000959250991           
       0.943936             0.00847102874            0.000959326735           
       0.946577             0.00608386412            0.000807620806           
       0.949217             0.00840043114            0.000872696234           
       0.951858             0.00869983238            0.000929676055           
       0.954498             0.00920683908             0.00110699549           
       0.957138               0.008229391             0.00099149586           
       0.959779             0.00802243821            0.000965042907           
       0.962419             0.00777845701            0.000943934212           
       0.965059             0.00622091655            0.000887830167           
       0.967700             0.00567575396            0.000868557551           
       0.970340             0.00758445162            0.000888471731           
       0.972981             0.00621133173            0.000732551226           
       0.975621             0.00704845714            0.000830164118           
       0.978261             0.00880491884            0.000881624387           
       0.980902             0.00717737972            0.000952354141           
       0.983542              0.0092167511            0.000955707446           
       0.986182             0.00765106569            0.000854903935           
       0.988823             0.00876450613            0.000888464502           
       0.991463             0.00819974446            0.000916850372           
       0.994104             0.00750162163              0.0008554803           
       0.996744             0.00946454083            0.000980119381           
       0.999384             0.00715573732            0.000762177969           
       1.002025             0.00830207975            0.000916301191           
       1.004665             0.00955401074            0.000898307581           
       1.007306             0.00718130657            0.000774827931           
       1.009946             0.00844003899            0.000856675525           
       1.012586             0.00724362503            0.000772956066           
       1.015227             0.00739322116            0.000838927705           
       1.017867             0.00862188136            0.000870689582           
       1.020507             0.00858365199            0.000841509334           
       1.023148             0.00720269445            0.000831769195           
       1.025788             0.00863077751            0.000834857369           
       1.028429              0.0088724779            0.000886812896           
       1.031069             0.00863982393            0.000823510891           
       1.033709             0.00876623046             0.00088177466           
       1.036350             0.00936464979            0.000818539025           
       1.038990             0.00816307597            0.000778267434           
       1.041630             0.00774859933            0.000790864456           
       1.044271               0.008360897            0.000772607499           
       1.046911             0.00798456816            0.000794182077           
       1.049552             0.00925766703            0.000898449458           
       1.052192             0.00705790236            0.000716327736           
       1.054832             0.00934256059            0.000831648402           
       1.057473              0.0082765499            0.000771641145           
       1.060113             0.00813453838            0.000746075683           
       1.062754             0.00763850226            0.000738140062           
       1.065394             0.00916375283            0.000854776434           
       1.068034              0.0077965008            0.000717367451           
       1.070675             0.00857417455             0.00078473573           
       1.073315             0.00790196707            0.000764144904           
       1.075955             0.00900987096             0.00077031028           
       1.078596             0.00736083037            0.000739983467           
       1.081236             0.00722778773            0.000702149659           
       1.083877             0.00924360685            0.000786926648           
       1.086517             0.00775494081            0.000772887158           
       1.089157             0.00721622723            0.000773600864           
       1.091798             0.00769735837            0.000700473759           
       1.094438             0.00913710483            0.000760713881           
       1.097078             0.00828578601            0.000694784333           
       1.099719             0.00915111743            0.000789783653           
       1.102359              0.0087341397            0.000722594201           
       1.105000             0.00837296534            0.000791118519           
       1.107640             0.00834348899            0.000755105285           
       1.110280             0.00811724142            0.000679570417           
       1.112921             0.00828401427            0.000737466608           
       1.115561             0.00878620981            0.000721832764           
       1.118202             0.00898742853             0.00073073946           
       1.120842             0.00931234057            0.000781771173           
       1.123482             0.00987459923             0.00080151006           
       1.126123             0.00956868159             0.00075678021           
       1.128763             0.00763239208            0.000680521029           
       1.131403             0.00833602936            0.000685300668           
       1.134044             0.00805692113            0.000693270142           
       1.136684              0.0089601499            0.000779477204           
       1.139325             0.00915148305            0.000725679608           
       1.141965             0.00820704679            0.000691758105           
       1.144605             0.00863626786            0.000676621663           
       1.147246             0.00920798314            0.000715016799           
       1.149886              0.0094256772            0.000720851496           
       1.152527             0.00997970482            0.000752520616           
       1.155167             0.00790932783            0.000637205344           
       1.157807             0.00827243903            0.000698704221           
       1.160448             0.00897166587             0.00071055346           
       1.163088             0.00900760649            0.000679119649           
       1.165728             0.00879118794             0.00068883774           
       1.168369             0.00911138064            0.000707748721           
       1.171009              0.0107018587            0.000744389101           
       1.173650             0.00892887957            0.000697777813           
       1.176290             0.00978241435            0.000713733317           
       1.178930              0.0106077488            0.000728435289           
       1.181571             0.00852389532            0.000665926587           
       1.184211              0.0113437477            0.000770943731           
       1.186851             0.00881250643            0.000664344492           
       1.189492             0.00929569926            0.000677724289           
       1.192132             0.00878067719            0.000651291919           
       1.194773              0.0109359125            0.000730016387           
       1.197413             0.00922938247            0.000642570975           
       1.200053             0.00920642716            0.000658077808           
       1.202694               0.010429223            0.000666057996           
       1.205334             0.00996818334            0.000701756956           
       1.207975             0.00974857927            0.000662427184           
       1.210615             0.00930570996            0.000713977697           
       1.213255              0.0083893636            0.000607056096           
       1.215896              0.0102416589            0.000682885683           
       1.218536              0.0094967677            0.000632294465           
       1.221176             0.00975817661            0.000696830769           
       1.223817             0.00831557512            0.000603842666           
       1.226457             0.00998895018            0.000675149616           
       1.229098             0.00980457711            0.000668857153           
       1.231738             0.00934540419            0.000656221092           
       1.234378             0.00959305322            0.000624734978           
       1.237019              0.0102178006             0.00066441605           
       1.239659              0.0095057591            0.000635265232           
       1.242299             0.00879539715             0.00060330412           
       1.244940             0.00942565114            0.000607409881           
       1.247580              0.0102549675            0.000652943753           
       1.250221              0.0102438308            0.000648562403           
       1.252861              0.0107121012            0.000631389052           
       1.255501             0.00877938078             0.00062064754           
       1.258142             0.00954262492            0.000608032419           
       1.260782                 0.0105591            0.000653435886           
       1.263423             0.00951860552            0.000596140276           
       1.266063              0.0105080958            0.000642000745           
       1.268703              0.0111674048            0.000656342937           
       1.271344             0.00963753704            0.000630394414           
       1.273984              0.0101440494            0.000624630851           
       1.276624              0.0108017704            0.000632453682           
       1.279265              0.0116599483            0.000668009249           
       1.281905              0.0101746733            0.000626783565           
       1.284546              0.0113230944            0.000639120185           
       1.287186              0.0109971652            0.000617954251           
       1.289826             0.00980529227            0.000614968816           
       1.292467             0.00972886284            0.000599075075           
       1.295107              0.0113431235            0.000640443562           
       1.297747              0.0106277006            0.000593209959           
       1.300388             0.00973638191            0.000618962548           
       1.303028              0.0106481797            0.000617948086           
       1.305669              0.0113096427            0.000652016379           
       1.308309              0.0105060344            0.000622236516           
       1.310949             0.00998442105            0.000605983581           
       1.313590              0.0103752017             0.00059841907           
       1.316230               0.011038393             0.00065868991           
       1.318871              0.0107287204            0.000635992575           
       1.321511              0.0100272077            0.000603452069           
       1.324151              0.0112467442            0.000620149277           
       1.326792              0.0108389224            0.000612565598           
       1.329432              0.0106278708            0.000602291988           
       1.332072              0.0113873807            0.000614150547           
       1.334713              0.0108760866            0.000619470617           
       1.337353              0.0115688993            0.000612714337           
       1.339994              0.0118741063            0.000651408928           
       1.342634              0.0108371344            0.000596761277           
       1.345274              0.0116191203            0.000639485858           
       1.347915              0.0104664279            0.000590176444           
       1.350555              0.0109870016            0.000615265477           
       1.353195              0.0104766305             0.00060375617           
       1.355836              0.0105818954            0.000597320115           
       1.358476              0.0109328733            0.000589630168           
       1.361117               0.011471975            0.000604821674           
       1.363757             0.00980523271            0.000576235169           
       1.366397              0.0111372229            0.000595544244           
       1.369038              0.0112032907            0.000603255595           
       1.371678              0.0113453707            0.000601716831           
       1.374319              0.0126913241            0.000630928928           
       1.376959              0.0104047254            0.000565526128           
       1.379599              0.0118955974            0.000648041143           
       1.382240              0.0105434377            0.000573401813           
       1.384880              0.0115710642            0.000636273341           
       1.387520              0.0105137461            0.000576018413           
       1.390161              0.0117134081            0.000577448201           
       1.392801              0.0104922924             0.00056942156           
       1.395442              0.0110319344            0.000591855757           
       1.398082              0.0119625264            0.000577150491           
       1.400722              0.0103169501            0.000561432814           
       1.403363              0.0112948434            0.000618350148           
       1.406003              0.0104883886            0.000557650725           
       1.408644              0.0117725752            0.000618905885           
       1.411284              0.0112661574            0.000573305451           
       1.413924              0.0104405339            0.000549852851           
       1.416565              0.0108305358            0.000557828606           
       1.419205              0.0122224124             0.00061816587           
       1.421845              0.0103523878            0.000568580208           
       1.424486              0.0112668736            0.000570164846           
       1.427126              0.0117449379            0.000604726215           
       1.429767              0.0117269751            0.000568538596           
       1.432407              0.0120435083            0.000602965394           
       1.435047              0.0109356126            0.000539609751           
       1.437688              0.0117465497            0.000567621436           
       1.440328              0.0118298922             0.00058137292           
       1.442968              0.0101953952            0.000551810097           
       1.445609             0.00954119203            0.000516878761           
       1.448249              0.0110038052            0.000569138494           
       1.450890              0.0104745879            0.000551659461           
       1.453530              0.0112776165             0.00059886157           
       1.456170              0.0106509581            0.000564830523           
       1.458811              0.0113482863            0.000557503195           
       1.461451              0.0115277252            0.000563367508           
       1.464092              0.0102618079            0.000535010156           
       1.466732              0.0116027355             0.00056400396           
       1.469372              0.0106515778            0.000527745189           
       1.472013              0.0113998241             0.00058883631           
       1.474653               0.010670162            0.000560892017           
       1.477293              0.0109085024            0.000579074804           
       1.479934             0.00962170986            0.000518945437           
       1.482574               0.012351489            0.000568769189           
       1.485215              0.0120893874            0.000573182577           
       1.487855             0.00909060183            0.000503591919           
       1.490495              0.0105367193             0.00054017281           
       1.493136              0.0110840637            0.000546431244           
       1.495776               0.010484013            0.000529014761           
       1.498416              0.0112698297            0.000566427179           
       1.501057              0.0114777185            0.000559029778           
       1.503697              0.0102200889            0.000515729674           
       1.506338              0.0105375635            0.000533248115           
       1.508978              0.0113331093            0.000547572518           
       1.511618              0.0106399692            0.000565047435           
       1.514259             0.00999041901             0.00052861293           
       1.516899              0.0108484652            0.000536341255           
       1.519540              0.0107239921            0.000541854583           
       1.522180              0.0109152475            0.000551467214           
       1.524820              0.0115098308            0.000563110877           
       1.527461              0.0100945691            0.000529963458           
       1.530101             0.00977984836             0.00051641972           
       1.532741              0.0117880595            0.000563676853           
       1.535382               0.010211138            0.000533067298           
       1.538022              0.0106514578            0.000512890675           
       1.540663              0.0108280746            0.000556200337           
       1.543303              0.0114760311            0.000531668616           
       1.545943              0.0109793602            0.000550420055           
       1.548584             0.00983505178            0.000530298953           
       1.551224              0.0106428689            0.000510050419           
       1.553864              0.0091356819            0.000499344814           
       1.556505              0.0113552148             0.00053779468           
       1.559145             0.00976666972            0.000504870296           
       1.561786              0.0101896977             0.00051608539           
       1.564426              0.0108447522            0.000515855229           
       1.567066               0.011378795            0.000553666016           
       1.569707              0.0106919401            0.000527054804           
       1.572347              0.0100680888             0.00052837637           
       1.574988             0.00992102668            0.000499239145           
       1.577628              0.0105456546            0.000536721165           
       1.580268             0.00963064712            0.000496953469           
       1.582909             0.00939186849            0.000520179897           
       1.585549             0.00946857681            0.000507136478           
       1.588189             0.00926817335             0.00049079029           
       1.590830               0.010177082            0.000513647402           
       1.593470             0.00879240169            0.000496331422           
       1.596111              0.0097997903            0.000511581028           
       1.598751              0.0101469088            0.000504407659           
       1.601391             0.00965895595            0.000502987798           
       1.604032              0.0100673672            0.000524246708           
       1.606672              0.0101351566            0.000511067463           
       1.609312              0.0100123692             0.00053025317           
       1.611953             0.00948891832            0.000505139926           
       1.614593             0.00961074441            0.000498672938           
       1.617234             0.00918522485            0.000505242458           
       1.619874              0.0088278011            0.000493358076           
       1.622514             0.00968390784            0.000509678248           
       1.625155               0.010258865             0.00052768953           
       1.627795             0.00876566724             0.00047582558           
       1.630436              0.0086252761            0.000469535157           
       1.633076             0.00933422038            0.000494856814           
       1.635716             0.00965267735            0.000495397775           
       1.638357             0.00891370491            0.000477312173           
       1.640997             0.00951540228            0.000508097784           
       1.643637             0.00909303011            0.000483338272           
       1.646278             0.00913303803             0.00049962032           
       1.648918             0.00954249695            0.000512090348           
       1.651559             0.00884811601            0.000496934024           
       1.654199             0.00867220835            0.000478483554           
       1.656839             0.00886481549             0.00048393673           
       1.659480             0.00853980677            0.000492819149           
       1.662120              0.0100477447             0.00050346907           
       1.664761             0.00782014091            0.000461374334           
       1.667401             0.00923531452            0.000479217423           
       1.670041             0.00771306691            0.000444623421           
       1.672682             0.00947844397             0.00049086109           
       1.675322             0.00968297846            0.000492938598           
       1.677962             0.00908017354            0.000472082576           
       1.680603             0.00862149614            0.000461420193           
       1.683243             0.00836291155            0.000474131552           
       1.685884             0.00895741264            0.000494318337           
       1.688524             0.00885492715            0.000481981929           
       1.691164             0.00816117729            0.000462821183           
       1.693805             0.00870337351             0.00048319843           
       1.696445             0.00846324222            0.000479249898           
       1.699085             0.00892851247            0.000475752862           
       1.701726             0.00895390814            0.000458956155           
       1.704366              0.0101760537            0.000515439639           
       1.707007             0.00898294418            0.000473485897           
       1.709647             0.00872839277            0.000471999866           
       1.712287             0.00787115707            0.000452124325           
       1.714928             0.00842805099            0.000471617227           
       1.717568             0.00789064031            0.000429867824           
       1.720209              0.0087824814            0.000475020888           
       1.722849               0.008806725            0.000473230573           
       1.725489             0.00934207089            0.000487811098           
       1.728130             0.00857616169            0.000496701348           
       1.730770             0.00850788308            0.000469851201           
       1.733410             0.00944951654            0.000487386468           
       1.736051             0.00802839914            0.000452371844           
       1.738691              0.0084629786            0.000455038918           
       1.741332             0.00792469091            0.000453205341           
       1.743972               0.008178247            0.000475439707           
       1.746612             0.00846048058            0.000464354225           
       1.749253             0.00869943778            0.000480165005           
       1.751893              0.0081820717            0.000462250081           
       1.754533             0.00848886182            0.000470396756           
       1.757174             0.00805904276            0.000454041143           
       1.759814             0.00902371813            0.000473165176           
       1.762455             0.00920406609            0.000486644828           
       1.765095             0.00819110132            0.000439170915           
       1.767735             0.00888172053            0.000471418305           
       1.770376             0.00892095618            0.000473703949           
       1.773016             0.00826612439            0.000452932477           
       1.775657             0.00814646724            0.000443172552           
       1.778297             0.00797828854            0.000434797681           
       1.780937             0.00927185404            0.000494736248           
       1.783578             0.00903093889            0.000476057726           
       1.786218             0.00739183518            0.000449476809           
       1.788858             0.00856000133            0.000459389804           
       1.791499             0.00830182216            0.000447327939           
       1.794139             0.00844704309            0.000447562594           
       1.796780             0.00911210868            0.000462606912           
       1.799420             0.00879302126            0.000451918409           
       1.802060               0.009436277            0.000471938216           
       1.804701               0.008704805            0.000434985883           
       1.807341             0.00887683054            0.000461569849           
       1.809981             0.00930208569            0.000474071865           
       1.812622             0.00871854573             0.00045069848           
       1.815262             0.00832258242            0.000449698995           
       1.817903             0.00915965744            0.000464782155           
       1.820543             0.00892094644            0.000465833159           
       1.823183             0.00898906672            0.000467351259           
       1.825824             0.00852842029            0.000434897825           
       1.828464             0.00792644681            0.000437105516           
       1.831105             0.00816392408            0.000431340327           
       1.833745             0.00725134689            0.000415200131           
       1.836385              0.0079770211            0.000447908228           
       1.839026             0.00879493796            0.000468824994           
       1.841666             0.00823498447            0.000452046431           
       1.844306             0.00748588686            0.000419236105           
       1.846947             0.00797087812            0.000436395691           
       1.849587             0.00731768023            0.000461719811           
       1.852228             0.00792135464            0.000434389171           
       1.854868             0.00938145779            0.000499370781           
       1.857508             0.00715665466            0.000431879363           
       1.860149             0.00843952363            0.000477513963           
       1.862789             0.00810469705            0.000451675861           
       1.865429             0.00822216218            0.000474884894           
       1.868070             0.00845104192            0.000475032321           
       1.870710             0.00824720416            0.000458449712           
       1.873351             0.00795153289            0.000455721709           
       1.875991             0.00760510266            0.000452957431           
       1.878631             0.00831089286            0.000464440741           
       1.881272             0.00813514873             0.00045642511           
       1.883912             0.00895380955            0.000498333494           
       1.886553             0.00815817592              0.0004703595           
       1.889193             0.00785576892            0.000460770896           
       1.891833             0.00928290987            0.000520182293           
       1.894474             0.00781513455            0.000473132622           
       1.897114             0.00758361236            0.000451007849           
       1.899754             0.00799932313            0.000465142465           
       1.902395             0.00810582747            0.000459074286           
       1.905035             0.00830174151            0.000492077584           
       1.907676             0.00745666655             0.00043954572           
       1.910316             0.00790479937            0.000464577261           
       1.912956             0.00827020612            0.000464739398           
       1.915597             0.00796007807            0.000458490607           
       1.918237             0.00776477197            0.000467664221           
       1.920878             0.00728519462            0.000451137444           
       1.923518             0.00806063196            0.000474741362           
       1.926158             0.00786747697            0.000462932601           
       1.928799              0.0081906168            0.000466876409           
       1.931439             0.00834063781            0.000483490039           
       1.934079             0.00778948234            0.000487088653           
       1.936720             0.00750370458            0.000442945831           
       1.939360             0.00703701363            0.000457630128           
       1.942001             0.00836579144            0.000457331037           
       1.944641             0.00784060149            0.000451464196           
       1.947281             0.00754853202            0.000438892543           
       1.949922             0.00752388689            0.000452596522           
       1.952562             0.00763494074            0.000470215724           
       1.955202             0.00730624714             0.00045942199           
       1.957843             0.00704032291            0.000439288438           
       1.960483             0.00805005374            0.000491107259           
       1.963124             0.00766914141            0.000469513342           
       1.965764             0.00721017585             0.00042931107           
       1.968404             0.00781070452            0.000442610154           
       1.971045             0.00695387828            0.000425793904           
       1.973685             0.00777950997            0.000472396422           
       1.976326             0.00786901635            0.000468576474           
       1.978966             0.00800520507            0.000476761485           
       1.981606               0.007658866            0.000476059791           
       1.984247             0.00683446755            0.000446752413           
       1.986887             0.00742982298            0.000460224829           
       1.989527             0.00752866359            0.000458286755           
       1.992168             0.00692861432            0.000456168334           
       1.994808             0.00803037485            0.000488994766           
       1.997449             0.00704107329            0.000448480927           
       2.000089             0.00817011318            0.000481186379           
       2.002729             0.00768727474            0.000467031081           
       2.005370             0.00690705532            0.000437933183           
       2.008010             0.00691784665            0.000457402947           
       2.010650             0.00753880651            0.000481053518           
       2.013291             0.00731199172            0.000454548122           
       2.015931             0.00731985346            0.000451577538           
       2.018572             0.00866081815            0.000525387561           
       2.021212             0.00814438718            0.000500329068           
       2.023852             0.00761977616            0.000458032864           
       2.026493             0.00820093586            0.000496409008           
       2.029133             0.00781603876            0.000474867452           
       2.031774             0.00743610958            0.000486099516           
       2.034414             0.00726867275            0.000442214783           
       2.037054             0.00715304474             0.00044980255           
       2.039695             0.00745205965            0.000455640289           
       2.042335             0.00772417253            0.000482077921           
       2.044975             0.00745624784            0.000467899333           
       2.047616             0.00715576496            0.000457235703           
       2.050256             0.00731081476            0.000466536513           
       2.052897             0.00740412683            0.000478159993           
       2.055537             0.00696675254            0.000448266495           
       2.058177             0.00743744782            0.000453560628           
       2.060818             0.00870215001            0.000513952292           
       2.063458             0.00770813762            0.000504072927           
       2.066098             0.00770867707            0.000475526266           
       2.068739             0.00701469556            0.000460667673           
       2.071379             0.00824678925            0.000512515648           
       2.074020             0.00697119052             0.00046097318           
       2.076660             0.00687311032            0.000461419071           
       2.079300             0.00762239882            0.000497825951           
       2.081941             0.00690106216            0.000433712614           
       2.084581             0.00740687495            0.000474268024           
       2.087222             0.00722289528            0.000451669943           
       2.089862             0.00769495196            0.000507758515           
       2.092502             0.00784510771            0.000496978468           
       2.095143             0.00745001711            0.000500114813           
       2.097783             0.00871988949            0.000523838533           
       2.100423             0.00773373282            0.000475367777           
       2.103064             0.00783207067            0.000496384042           
       2.105704             0.00825399769            0.000507055113           
       2.108345             0.00761518119            0.000467913573           
       2.110985              0.0075184058            0.000496579837           
       2.113625             0.00741476997            0.000497448873           
       2.116266             0.00731626076            0.000501143973           
       2.118906             0.00745574593            0.000471469148           
       2.121546             0.00692332354            0.000445648903           
       2.124187             0.00770863372            0.000493612071           
       2.126827             0.00795196471            0.000506937582           
       2.129468             0.00757973581            0.000496194814           
       2.132108              0.0077480602            0.000488090722           
       2.134748             0.00673704672            0.000453367718           
       2.137389             0.00703693341            0.000483387325           
       2.140029             0.00735175905            0.000442332502           
       2.142670             0.00726834788            0.000470040888           
       2.145310             0.00719830002            0.000455289332           
       2.147950             0.00634808622            0.000440072555           
       2.150591             0.00715478631            0.000462476718           
       2.153231             0.00720225551            0.000477624464           
       2.155871             0.00703215075            0.000455935503           
       2.158512             0.00760175295            0.000494628505           
       2.161152             0.00794377367            0.000489787992           
       2.163793             0.00761022652            0.000477236807           
       2.166433             0.00732298786            0.000480734387           
       2.169073             0.00664390324            0.000447707691           
       2.171714             0.00810816215            0.000490891333           
       2.174354             0.00716755223            0.000482266933           
       2.176995             0.00870250973             0.00052916736           
       2.179635              0.0064513716            0.000481453962           
       2.182275             0.00676372258            0.000465443124           
       2.184916              0.0071457675            0.000462079707           
       2.187556             0.00808343013            0.000486536549           
       2.190196             0.00755181703             0.00049142138           
       2.192837             0.00670729557            0.000460609267           
       2.195477             0.00713366425            0.000452878681           
       2.198118             0.00764716965            0.000480910087           
       2.200758             0.00737827055            0.000484632438           
       2.203398             0.00667916411            0.000464051023           
       2.206039             0.00749991511            0.000465387401           
       2.208679             0.00728663732            0.000469398229           
       2.211319              0.0073957835             0.00047562745           
       2.213960             0.00669669619             0.00045865412           
       2.216600             0.00692888719            0.000482622849           
       2.219241             0.00716072831            0.000468910387           
       2.221881             0.00727969521            0.000473761616           
       2.224521             0.00695008233            0.000468584246           
       2.227162              0.0073116674            0.000470995872           
       2.229802             0.00713271183            0.000479758765           
       2.232443             0.00784193671            0.000495110984           
       2.235083             0.00801820864            0.000515412289           
       2.237723             0.00723055701            0.000469691454           
       2.240364             0.00717401454             0.00047937724           
       2.243004             0.00762598107            0.000490301786           
       2.245644             0.00683072897            0.000468678002           
       2.248285             0.00735514836            0.000476593627           
       2.250925             0.00782420994            0.000494541731           
       2.253566             0.00788914981            0.000530892516           
       2.256206              0.0078672802            0.000519555648           
       2.258846             0.00630422146            0.000442427703           
       2.261487             0.00698656216            0.000488854002           
       2.264127             0.00753367027            0.000490264897           
       2.266767             0.00699721874            0.000485075746           
       2.269408             0.00805085162            0.000522447386           
       2.272048             0.00685728072            0.000479289029           
       2.274689             0.00660577856            0.000476615941           
       2.277329              0.0075256896            0.000478993654           
       2.279969             0.00827178427            0.000534537908           
       2.282610             0.00665777658            0.000466222737           
       2.285250             0.00666639705            0.000446527315           
       2.287891             0.00726522285            0.000499784592           
       2.290531             0.00791619616            0.000528707974           
       2.293171             0.00656941049             0.00046915901           
       2.295812             0.00738304228            0.000495364984           
       2.298452             0.00734730994            0.000516765058           
       2.301092             0.00713271792            0.000473074606           
       2.303733              0.0078486607            0.000516272607           
       2.306373              0.0077282088            0.000520363613           
       2.309014             0.00781060297            0.000512925093           
       2.311654             0.00811367089            0.000545547492           
       2.314294             0.00744727449             0.00048153223           
       2.316935             0.00716302605            0.000474204317           
       2.319575             0.00664797937             0.00047866032           
       2.322215             0.00731922095            0.000523423357           
       2.324856             0.00687210575            0.000466303134           
       2.327496             0.00740313845            0.000514627383           
       2.330137             0.00730971756            0.000489342843           
       2.332777             0.00637393186            0.000471161964           
       2.335417             0.00737752065            0.000491768158           
       2.338058             0.00775890607            0.000519384237           
       2.340698               0.006773751            0.000481478377           
       2.343339             0.00736306228            0.000513032441           
       2.345979             0.00636796231            0.000451381216           
       2.348619              0.0067077813            0.000480202529           
       2.351260             0.00750663896            0.000505033347           
       2.353900             0.00689995531            0.000482661314           
       2.356540             0.00599539072            0.000449273878           
       2.359181             0.00696821405            0.000477563901           
       2.361821             0.00693496285            0.000460212027           
       2.364462              0.0075921345            0.000503613743           
       2.367102              0.0074184158            0.000511588353           
       2.369742             0.00707953161            0.000526038981           
       2.372383             0.00693225184            0.000471346301           
       2.375023             0.00719152914            0.000504668047           
       2.377663             0.00755775632            0.000494670737           
       2.380304             0.00642849076            0.000463826888           
       2.382944             0.00666288544            0.000449762389           
       2.385585             0.00680340126            0.000484711008           
       2.388225             0.00739147046            0.000502851469           
       2.390865             0.00684092727            0.000478792724           
       2.393506              0.0068652713            0.000470594836           
       2.396146             0.00637383677            0.000490278598           
       2.398787             0.00727560294            0.000482735094           
       2.401427             0.00670639807            0.000447352736           
       2.404067             0.00670686851            0.000457347246           
       2.406708             0.00761864983            0.000481599251           
       2.409348             0.00698795131            0.000489229356           
       2.411988             0.00804763201             0.00051439846           
       2.414629              0.0069897292            0.000494327796           
       2.417269             0.00704496849            0.000502071441           
       2.419910             0.00697941512            0.000500889697           
       2.422550             0.00773147682            0.000504378994           
       2.425190             0.00666173701            0.000493518162           
       2.427831             0.00730795279            0.000513995192           
       2.430471             0.00752396529            0.000496864114           
       2.433112             0.00762688341            0.000487125037           
       2.435752             0.00658137615             0.00047889363           
       2.438392             0.00657576894            0.000462033265           
       2.441033             0.00657472799            0.000489623632           
       2.443673             0.00777807944            0.000532958523           
       2.446313             0.00697562667             0.00050516306           
       2.448954             0.00768354776            0.000504802598           
       2.451594             0.00758289121            0.000539213743           
       2.454235             0.00748729498            0.000502721022           
       2.456875             0.00786815884            0.000539239386           
       2.459515             0.00664933725             0.00050855028           
       2.462156             0.00754587941            0.000511488307           
       2.464796             0.00790654581            0.000516814393           
       2.467436             0.00714155174            0.000507934093           
       2.470077             0.00843970501            0.000523359224           
       2.472717             0.00696226216            0.000477406847           
       2.475358             0.00660550407            0.000469863176           
       2.477998              0.0079761486            0.000507611022           
       2.480638             0.00746034867            0.000499646946           
       2.483279             0.00687375524            0.000501260223           
       2.485919             0.00774075249            0.000512640088           
       2.488560              0.0083997744            0.000532524509           
       2.491200             0.00705578135            0.000502578754           
       2.493840             0.00716563172            0.000535917859           
       2.496481             0.00740447839             0.00053586497           
       2.499121             0.00714669675            0.000512061042           
       2.501761             0.00742689539             0.00052891893           
       2.504402             0.00819193203            0.000547377325           
       2.507042             0.00684742432            0.000496738769           
       2.509683             0.00705613247            0.000496545459           
       2.512323             0.00754753868             0.00053934961           
       2.514963             0.00702702743            0.000513989945           
       2.517604             0.00744840963            0.000549102033           
       2.520244             0.00721737493            0.000506737485           
       2.522884              0.0078272782            0.000535261016           
       2.525525              0.0103768627            0.000623296701           
       2.528165             0.00852627579            0.000556184031           
       2.530806             0.00709721098            0.000516282406           
       2.533446             0.00646564092            0.000482257703           
       2.536086             0.00702500682            0.000498186732           
       2.538727              0.0066800228            0.000466051519           
       2.541367             0.00705113162            0.000483538924           
       2.544008             0.00639470482            0.000475565085           
       2.546648             0.00793891334            0.000538972235           
       2.549288             0.00756840563             0.00053696778           
       2.551929              0.0066334234            0.000494693718           
       2.554569             0.00760153881            0.000510190403           
       2.557209              0.0074634244            0.000510176976           
       2.559850             0.00682920312            0.000489586212           
       2.562490              0.0065611995            0.000495985327           
       2.565131             0.00709748811            0.000534864031           
       2.567771             0.00711730321            0.000516408593           
       2.570411             0.00659762148            0.000491818442           
       2.573052              0.0072546649            0.000522221768           
       2.575692             0.00665190263             0.00049702859           
       2.578332             0.00726597348             0.00052161197           
       2.580973             0.00683830685            0.000501213759           
       2.583613             0.00605868104            0.000460544577           
       2.586254             0.00659955228            0.000479994079           
       2.588894              0.0073068192             0.00052448052           
       2.591534             0.00811785153            0.000572275055           
       2.594175             0.00741042927            0.000536453719           
       2.596815             0.00687279734            0.000519673456           
       2.599456             0.00767916834            0.000520912144           
       2.602096             0.00739010769            0.000514902949           
       2.604736             0.00664220224            0.000499728268           
       2.607377             0.00643309716            0.000478838802           
       2.610017             0.00701170489             0.00049116093           
       2.612657             0.00696533966            0.000520693568           
       2.615298             0.00727448965            0.000519519804           
       2.617938             0.00675443161            0.000535519494           
       2.620579             0.00750870221            0.000542038298           
       2.623219             0.00611256367            0.000488359582           
       2.625859             0.00684936258            0.000502625671           
       2.628500             0.00748765322            0.000522079271           
       2.631140             0.00670517001            0.000501659676           
       2.633780             0.00790949827            0.000544378618           
       2.636421             0.00822070448            0.000568632965           
       2.639061             0.00688743235            0.000489974513           
       2.641702             0.00676822544            0.000496960413           
       2.644342             0.00654349962            0.000490722548           
       2.646982             0.00646383321            0.000480434759           
       2.649623             0.00807292904            0.000562664558           
       2.652263             0.00610083361            0.000484226374           
       2.654904             0.00778145622            0.000547420407           
       2.657544             0.00614576698            0.000458228047           
       2.660184             0.00604309542            0.000480870942           
       2.662825             0.00688498797            0.000525183247           
       2.665465             0.00607029288            0.000476940865           
       2.668105             0.00723950651            0.000548997795           
       2.670746             0.00614059851            0.000467082072           
       2.673386             0.00786393299             0.00054474033           
       2.676027             0.00706879166            0.000508177653           
       2.678667             0.00944752378            0.000573245343           
       2.681307               0.012856534            0.000657054191           
       2.683948              0.0156893428            0.000745768185           
       2.686588              0.0113064229            0.000622589134           
       2.689229             0.00944236278            0.000555961024           
       2.691869             0.00916846793            0.000579010607           
       2.694509              0.0102286755            0.000611908391           
       2.697150             0.00794145751            0.000530423844           
       2.699790             0.00680873392            0.000514890689           
       2.702430             0.00825837563            0.000542041393           
       2.705071             0.00803939227            0.000552621674           
       2.707711             0.00698170015            0.000499834207           
       2.710352             0.00646764675            0.000508322661           
       2.712992             0.00592564006            0.000495553718           
       2.715632             0.00670753373            0.000489169822           
       2.718273             0.00686183166            0.000512756489           
       2.720913             0.00661344956            0.000501958356           
       2.723553              0.0072215375            0.000528047113           
       2.726194             0.00674826122            0.000533589207           
       2.728834             0.00651103098             0.00052437223           
       2.731475             0.00740711481            0.000516178347           
       2.734115             0.00735143957             0.00053019427           
       2.736755             0.00817482117            0.000563699858           
       2.739396             0.00594335001            0.000477860238           
       2.742036              0.0062712759            0.000513722724           
       2.744677             0.00617254075            0.000494513264           
       2.747317             0.00662455054            0.000508646708           
       2.749957             0.00711542897            0.000530854781           
       2.752598             0.00759885042            0.000554545198           
       2.755238             0.00774265152              0.0005698728           
       2.757878             0.00758744959            0.000559199975           
       2.760519             0.00919942576            0.000609214289           
       2.763159              0.0104748561            0.000643579072           
       2.765800             0.00804608088            0.000537533914           
       2.768440             0.00819719091            0.000546554997           
       2.771080             0.00798843525            0.000544054315           
       2.773721             0.00740693647            0.000537392747           
       2.776361             0.00745353758            0.000546517764           
       2.779001             0.00763393461            0.000572782676           
       2.781642             0.00710867131            0.000548652654           
       2.784282             0.00614946889            0.000518687168           
       2.786923             0.00703686111            0.000559736108           
       2.789563             0.00654513703            0.000519915133           
       2.792203             0.00707798423            0.000516489022           
       2.794844             0.00762399423            0.000587491599           
       2.797484             0.00744364955             0.00054785178           
       2.800125             0.00678430413            0.000549961382           
       2.802765             0.00701032695            0.000549429952           
       2.805405             0.00619062537            0.000518057412           
       2.808046             0.00739879138             0.00057631428           
       2.810686              0.0059326069             0.00047420085           
       2.813326             0.00691529819            0.000531796127           
       2.815967             0.00752074169            0.000570355988           
       2.818607             0.00614243189            0.000491879812           
       2.821248             0.00530861354            0.000447783522           
       2.823888             0.00751539417            0.000553046174           
       2.826528              0.0067422259            0.000507299727           
       2.829169             0.00659859692            0.000525677721           
       2.831809             0.00692981945            0.000546037244           
       2.834449             0.00748308334            0.000571001928           
       2.837090             0.00600980895            0.000494234929           
       2.839730             0.00656161562             0.00051390505           
       2.842371             0.00680763529            0.000524205985           
       2.845011             0.00631366017            0.000508853151           
       2.847651             0.00729120478             0.00054750056           
       2.850292             0.00603083336            0.000502822878           
       2.852932             0.00721320257             0.00056189284           
       2.855573             0.00646054982            0.000515832299           
       2.858213             0.00636810865            0.000537797133           
       2.860853              0.0078814574            0.000556553265           
       2.863494             0.00774055334            0.000571059098           
       2.866134             0.00751116014            0.000584684074           
       2.868774             0.00790976207            0.000589674587           
       2.871415             0.00693174726            0.000560614963           
       2.874055             0.00675554847            0.000529023583           
       2.876696              0.0065556775            0.000535235005           
       2.879336             0.00731950892            0.000545088601           
       2.881976             0.00773352087             0.00057790302           
       2.884617             0.00824536363            0.000587957132           
       2.887257             0.00762759154            0.000568421299           
       2.889897             0.00612514037            0.000498888144           
       2.892538             0.00628466753            0.000553605175           
       2.895178             0.00705140842            0.000529776938           
       2.897819             0.00612078957            0.000503500257           
       2.900459             0.00708762867             0.00053126939           
       2.903099             0.00678570726            0.000514509587           
       2.905740             0.00669158019            0.000524147505           
       2.908380             0.00730488705            0.000553863442           
       2.911021             0.00667177048             0.00053792365           
       2.913661             0.00758003057            0.000573199016           
       2.916301             0.00672281177            0.000540330394           
       2.918942              0.0071525343            0.000533101661           
       2.921582             0.00635705842            0.000525847056           
       2.924222             0.00677098357            0.000525768782           
       2.926863             0.00766803302            0.000582798339           
       2.929503             0.00711913004            0.000568204689           
       2.932144             0.00702109995            0.000541673382           
       2.934784             0.00562125757            0.000476728861           
       2.937424             0.00611034243            0.000502138545           
       2.940065             0.00717167399            0.000518927178           
       2.942705             0.00613668623            0.000479421939           
       2.945346              0.0070113611             0.00054383991           
       2.947986              0.0072454982            0.000563711423           
       2.950626             0.00689786655            0.000546925233           
       2.953267             0.00708249868            0.000545242215           
       2.955907             0.00746007437            0.000580494854           
       2.958547             0.00607364289            0.000494478051           
       2.961188              0.0070152643            0.000554427756           
       2.963828             0.00716567869            0.000548116085           
       2.966469             0.00727756324            0.000541881532           
       2.969109             0.00693047191            0.000536636603           
       2.971749             0.00730681139            0.000547576842           
       2.974390             0.00722358516            0.000535021168           
       2.977030             0.00629451938            0.000510592815           
       2.979670             0.00979640334            0.000619587044           
       2.982311             0.00844752452            0.000596323538           
       2.984951             0.00816367807            0.000557546186           
       2.987592              0.0070555176            0.000528706861           
       2.990232             0.00772258399            0.000575255352           
       2.992872             0.00777973667            0.000543859405           
       2.995513             0.00793376295            0.000537314795           
       2.998153              0.0111234155            0.000646910724           
       3.000794              0.0120796126            0.000652976365           
       3.003434              0.0106852008            0.000615060079           
       3.006074              0.0442489601             0.00123409227           
       3.008715                0.11506277             0.00192102015           
       3.011355               0.178501867             0.00230732319           
       3.013995              0.0954942637             0.00169221559           
       3.016636              0.0597909474              0.0013112109           
       3.019276               0.123825919              0.0018548344           
       3.021917               0.452768622             0.00341042664           
       3.024557                1.62755212             0.00635723085           
       3.027197                1.18746489             0.00529409935           
       3.029838               0.500749701             0.00348665557           
       3.032478               0.276928606             0.00259551752           
       3.035118              0.0704941899             0.00132710261           
       3.037759              0.0961185952             0.00154764323           
       3.040399                0.12852178             0.00184601517           
       3.043040               0.510939484             0.00372582607           
       3.045680               0.416943762             0.00316665494           
       3.048320              0.0891274953             0.00149594291           
       3.050961               0.104937969             0.00165181433           
       3.053601              0.0863114573             0.00144281313           
       3.056242              0.0561654212             0.00123745789           
       3.058882              0.0441996479             0.00117756488           
       3.061522              0.0372934142             0.00106123922           
       3.064163              0.0419483602             0.00111135084           
       3.066803               0.102306317             0.00182719318           
       3.069443               0.102580526             0.00191427239           
       3.072084              0.0569901727             0.00138934848           
       3.074724               0.043470828             0.00135510997           
       3.077365              0.0881706973             0.00199779677           
       3.080005              0.0198961496            0.000954393924           
       3.082645              0.0113638349            0.000757724488           
       3.085286               0.012034204            0.000785905877           
       3.087926              0.0088957154             0.00067048976           
       3.090566             0.00948431612            0.000678336609           
       3.093207              0.0101857029            0.000731514639           
       3.095847             0.00892541029            0.000656336845           
       3.098488             0.00788378759            0.000683981987           
       3.101128              0.0113034611            0.000824265208           
       3.103768             0.00825566429            0.000691176246           
       3.106409             0.00811601381            0.000729349329           
       3.109049             0.00964960994            0.000763189105           
       3.111690             0.00763064936            0.000667018413           
       3.114330             0.00774150906            0.000686138615           
       3.116970             0.00728632339            0.000670771609           
       3.119611              0.0130150301            0.000954249176           
       3.122251              0.0169590245             0.00113942374           
       3.124891              0.0366235221             0.00169001861           
       3.127532              0.0225991578             0.00129875029           
       3.130172              0.0145517543             0.00106017474           
       3.132813             0.00856077638            0.000800528613           
       3.135453             0.00747970453            0.000742113482           
       3.138093              0.0072632932            0.000792388175           
       3.140734             0.00640875857            0.000686690075           
       3.143374             0.00791378129            0.000806982602           
       3.146014             0.00801051559            0.000874047058           
       3.148655              0.0071606125            0.000768196498           
       3.151295             0.00616708092            0.000759721159           
       3.153936             0.00539781695             0.00068657351           
       3.156576             0.00619519449            0.000725533727           
       3.159216             0.00589233099            0.000711116145           
       3.161857               0.005168655            0.000663307113           
       3.164497             0.00732257593            0.000829547879           
       3.167138              0.0074168925            0.000862627749           
       3.169778             0.00542351403            0.000725489297           
       3.172418             0.00625755587            0.000771352508           
       3.175059             0.00620384865            0.000680895718           
       3.177699             0.00619915079            0.000720754325           
       3.180339             0.00545880988            0.000724654322           
       3.182980             0.00595905142            0.000782795511           
       3.185620             0.00661297866            0.000839813891           
       3.188261             0.00551848379            0.000780865411           
       3.190901             0.00503132949            0.000685738416           
       3.193541             0.00410832468            0.000651107246           
       3.196182             0.00526086788            0.000767849932           
       3.198822             0.00671695604              0.0008679195           
       3.201463             0.00509275994            0.000742715193           
       3.204103             0.00556087566             0.00077137743           
       3.206743             0.00598485123             0.00080016813           
       3.209384             0.00650087295            0.000901012591           
       3.212024              0.0072726991            0.000888494751           
       3.214664             0.00619056828            0.000932152993           
       3.217305             0.00593826307            0.000867831349           
       3.219945             0.00603822276            0.000900708955           
       3.222586             0.00683061644            0.000912467225           
       3.225226             0.00555008456            0.000912438192           
       3.227866             0.00627044851            0.000886429865           
       3.230507             0.00550750249            0.000861167219           
       3.233147             0.00615377872            0.000917643218           
       3.235787             0.00658308182            0.000971297727           
       3.238428             0.00465051796            0.000880969322           
       3.241068             0.00463911893            0.000822739912           
       3.243709             0.00544625729            0.000921002919           
       3.246349             0.00621228116            0.000896682255           
       3.248989             0.00378944881            0.000826930569           
       3.251630             0.00384417057            0.000802040566           
       3.254270             0.00614930102            0.000906595709           
       3.256911             0.00761761873             0.00110097973           
       3.259551              0.0062723578             0.00107556121           
       3.262191             0.00615817186             0.00108858603           
       3.264832             0.00566381002             0.00109080022           
       3.267472             0.00571975527             0.00102832932           
       3.270112             0.00559125966              0.0011235973           
       3.272753             0.00623169083             0.00108575938           
       3.275393             0.00511284004             0.00100348346           
       3.278034             0.00649416243             0.00113157966           
       3.280674             0.00556504398             0.00113669296           
       3.283314             0.00705040231             0.00114426189           
       3.285955             0.00335510939            0.000814440031           
       3.288595              0.0044039663             0.00103810767           
       3.291235             0.00644355071             0.00129084035           
       3.293876             0.00876360505             0.00152703034           
       3.296516             0.00489750696             0.00109591073           
       3.299157             0.00767971637             0.00135509172           
       3.301797             0.00621009038             0.00138998694           
       3.304437             0.00722447846             0.00129889453           
       3.307078             0.00422714752             0.00109446815           
       3.309718             0.00298729537            0.000949672384           
       3.312359             0.00634406662               0.001384273           
       3.314999             0.00437444414             0.00113175166           
       3.317639             0.00645085462             0.00131439987           
       3.320280             0.00695687371             0.00145125427           
       3.322920             0.00496631066             0.00124681539           
       3.325560             0.00716099913             0.00149819028           
       3.328201              0.0081182076             0.00143665366           
       3.330841             0.00414495665             0.00124938098           
       3.333482             0.00401732109             0.00116262717           
       3.336122             0.00334336488             0.00106111798           
       3.338762             0.00894037802              0.0020044256           
       3.341403             0.00616452436             0.00159041573           
       3.344043             0.00756408489             0.00169140502           
       3.346683             0.00788015081             0.00176249441           
       3.349324             0.00698862768             0.00186616421           
       3.351964             0.00386370047             0.00146730598           
       3.354605              0.0073157905             0.00230910566           
       3.357245             0.00470414338             0.00167036433           
       3.359885             0.00685102171             0.00161337075           
       3.362526             0.00646599029             0.00196007307           
       3.365166              0.0063626175             0.00183389083           
       3.367807             0.00518353986             0.00211840891           
       3.370447             0.00535558617             0.00178617375           
       3.373087             0.00537298841             0.00191317812           
       3.375728             0.00510329694             0.00210432155           
       3.378368             0.00193914622             0.00192513797           
       3.381008             0.00530239237             0.00237339842           
       3.383649             0.00609471289             0.00204124814           
       3.386289             0.00476134026             0.00213532669           
       3.388930             0.00233234608             0.00236395677           
       3.391570             0.00717280622             0.00293258137           
       3.394210             0.00191895602             0.00191958788           
       3.396851             0.00235549402             0.00237897725           
       3.399491             0.00692361625             0.00407979059           
       3.402131             0.00475213588             0.00478202994           
       3.404772           -2.57206363e-05                         0           
       3.407412                       nan                       nan           
       3.410053              0.0180453588              0.0131978924           
       3.412693                       nan                       nan           
       3.415333              0.0263108171              0.0159515745           
