################################################################################
# EDF_DataBlockID                     0.Image.Psd
# EDF_BinarySize                      2105344
# EDF_HeaderSize                      2560
# ByteOrder                           LowByteFirst
# DataType                            FloatValue
# Dim_1                               512
# Dim_2                               1028
# Image                               0
# HeaderID                            EH:000000:000000:000000
# Size                                2105344
# Center_1                            304.9000
# Center_2                            588.7000
# Comment                             Xenocs_Cell_Window - 20251028_20perc_iodine_1.23mg
# DDummy                              0.6
# Date                                2025-11-02T09:13:52
# Delta                               21.910000
# Dummy                               -1.5
# ExposureTime                        360
# Gamma                               15.360000
# Intensity1                          8.76632e-10
# PSize_1                             7.5e-05
# PSize_2                             7.5e-05
# Pressure                            0.0326319
# SampleDistance                      0.115750
# SampleEnvKind                       large
# SampleEnvPN                         ElectroChemical cell
# SampleEnvSN                         1141
# Thickness                           0
# Wavelength                          1.541891e-10
# Wavelength                          1.54189e-10
# aux                                 0
# aux_dial                            0.002375
# beamx                               588.434
# beamx_dial                          588.434
# beamz                               657.808
# beamz_dial                          657.808
# det0x                               0
# det0x_dial                          6.36945
# det0xvd                             0
# det0xvd_dial                        0
# det0y                               450.002
# det0y_dial                          481.635
# det0z                               0
# det0z_dial                          1.23302
# det0zvd                             0
# det0zvd_dial                        0
# mag                                 1.818
# mag_dial                            1.818
# om                                  0.2499
# om_dial                             -0.610199
# phi                                 -0.0120535
# phi_dial                            0
# ry                                  0.599993
# ry_dial                             0.599993
# s1bot                               0.8
# s1bot_dial                          -1.66094
# s1hl                                0.8
# s1hl_dial                           -0.608437
# s1hr                                0.8
# s1hr_dial                           0.970938
# s1top                               0.8
# s1top_dial                          -0.461562
# s2bot                               0.45
# s2bot_dial                          1.36109
# s2hl                                0.45
# s2hl_dial                           -0.83375
# s2hr                                0.45
# s2hr_dial                           -0.118594
# s2top                               0.45
# s2top_dial                          1.44734
# w2theta                             32
# w2theta_dial                        32
# waxsch                              19.2605
# waxsch_dial                         -32.7355
# waxsh                               137.085
# waxsh_dial                          -43.5338
# waxsth                              26.0607
# waxsth_dial                         -19.4086
# waxsz                               67.0407
# waxsz_dial                          -23.7954
# wind                                65.9854
# wind_dial                           66.0041
# wpsi                                124
# wpsi_dial                           124
# wstod                               115
# wstod_dial                          115
# x                                   0
# x_dial                              1.00969
# z                                   0
# z_dial                              13.3172
# CountCutoff                         6807993
# DetectorModel                       Dectris EIGER2 Si 500K, S/N E-01-0554
# ThresholdSetting                    4023.88989258
# Saturation                          0
# FlatField                           Corrected
# BackgroundReductionExtra            0.02
# BackgroundCorrectionConstant        0.0026712
# Detector                            0
# Monitor                             0
# Pil_Roi0                            0
# SumForIntensity1                    3.15587e+08
# TransmittedFlux                     876632
# det                                 0
# mon                                 0
# pilai0                              3.15587e+08
# pilai1                              793456
# pilct0                              5.45591e+08
# pilct1                              793456
# pilroi0                             0
# pilroi1                             0
# sec                                 1
# title                               20251028_20perc_iodine_1.23mg_1_01044.edf
# usaxs0                              0
# Operation                           Azimuthal average I(q)
# Error_model                         ErrorModel.poisson
# Geometrical_correction              True
# Transmission_correction             True
# Thickness_correction                False
# Binning mode                        Uniform
# Binning factor                      1.0
# Psi                                 0.0
# Omega                               0.2499
# MaskInvalidPixels                   True
# DetectorEdge                        3
# MaskFiles                           ['WAXS_corrected.edf']
################################################################################
    q(A⁻¹)                Intensity(a.u.)            Sigma_I(a.u.)            
       0.693100              0.0121057521             0.00724438121           
       0.695741             0.00544709235             0.00396547756           
       0.698381              0.0123508946             0.00731434081           
       0.701021           -2.31239892e-05                         0           
       0.703662             0.00549834272             0.00398229598           
       0.706302              0.0100965101             0.00417792297           
       0.708942             0.00273935112             0.00280879273           
       0.711583             0.00425911645             0.00303278339           
       0.714223             0.00573006311             0.00406126434           
       0.716864             0.00737871238             0.00301538403           
       0.719504             0.00716734883             0.00320700373           
       0.722144              0.0122723453             0.00388625055           
       0.724785             0.00383067431             0.00173195271           
       0.727425             0.00710838941             0.00319171474           
       0.730065             0.00921597591             0.00257069378           
       0.732706             0.00649691319             0.00181251645           
       0.735346              0.0110829828             0.00308589303           
       0.737987             0.00423239635             0.00134754344           
       0.740627             0.00666463533             0.00252304088           
       0.743267             0.00639637768             0.00165556143           
       0.745908              0.0101109819             0.00225831043           
       0.748548             0.00810102469              0.0018632511           
       0.751189             0.00309576859              0.0015520374           
       0.753829             0.00593919813             0.00197609104           
       0.756469             0.00852276373              0.0019088272           
       0.759110             0.00664761122             0.00177655939           
       0.761750             0.00925848927             0.00185386307           
       0.764390             0.00609730129             0.00157464219           
       0.767031             0.00730450849             0.00149247723           
       0.769671             0.00906654915              0.0020741868           
       0.772312             0.00819015401             0.00150080491           
       0.774952             0.00499798113             0.00158319799           
       0.777592             0.00556344449             0.00121665373           
       0.780233             0.00966927788             0.00193515566           
       0.782873             0.00704938382              0.0015802911           
       0.785513             0.00687708824             0.00166865897           
       0.788154             0.00648594919             0.00135561364           
       0.790794             0.00645889308             0.00161728755           
       0.793435             0.00980770181              0.0017903669           
       0.796075             0.00757247399             0.00151545649           
       0.798715              0.0101505979             0.00207340018           
       0.801356             0.00717374808              0.0015001901           
       0.803996             0.00521978128             0.00130464425           
       0.806637             0.00865850703             0.00133721019           
       0.809277             0.00630187967             0.00123479414           
       0.811917             0.00801833291             0.00130208458           
       0.814558             0.00724859472             0.00128668999           
       0.817198             0.00471711405            0.000986121067           
       0.819838             0.00758060219             0.00126519107           
       0.822479             0.00553186009             0.00126913832           
       0.825119              0.0067664844             0.00119467184           
       0.827760             0.00820591471             0.00133267245           
       0.830400              0.0088002065             0.00129891747           
       0.833040             0.00672183983             0.00118935873           
       0.835681             0.00514596828             0.00118303455           
       0.838321             0.00748230824             0.00119733421           
       0.840961             0.00587534374             0.00115600636           
       0.843602             0.00833656111             0.00126277429           
       0.846242             0.00744411265             0.00119309205           
       0.848883             0.00661351222             0.00115082778           
       0.851523             0.00839281806             0.00128032325           
       0.854163             0.00794436169             0.00132469045           
       0.856804             0.00623773089             0.00105541717           
       0.859444             0.00667626802             0.00106983835           
       0.862085             0.00725466738             0.00116233701           
       0.864725             0.00915726823             0.00133644267           
       0.867365              0.0073720867             0.00111193264           
       0.870006             0.00758558961              0.0010748202           
       0.872646             0.00516540725            0.000930077599           
       0.875286             0.00913762642             0.00119010864           
       0.877927              0.0083623948               0.001098605           
       0.880567             0.00745346222             0.00107454235           
       0.883208             0.00606419471            0.000960108336           
       0.885848             0.00783855281             0.00113337819           
       0.888488             0.00836085104             0.00109788389           
       0.891129             0.00697297768             0.00102949085           
       0.893769             0.00639571912             0.00094358664           
       0.896410             0.00651313487            0.000887792132           
       0.899050             0.00819588114             0.00109521508           
       0.901690             0.00762830101             0.00115095739           
       0.904331             0.00751431218             0.00101273464           
       0.906971             0.00617155716            0.000976388855           
       0.909611             0.00753425923            0.000982064088           
       0.912252             0.00804926569             0.00104846478           
       0.914892              0.0076408743             0.00111630456           
       0.917533             0.00743510856             0.00104170389           
       0.920173             0.00651668756            0.000904836342           
       0.922813             0.00593079449            0.000905834479           
       0.925454             0.00884610854            0.000996182641           
       0.928094             0.00916466822             0.00108248877           
       0.930734             0.00738732218             0.00104632642           
       0.933375             0.00754888412             0.00104730828           
       0.936015             0.00695496146            0.000912995539           
       0.938656             0.00801392362             0.00105135156           
       0.941296             0.00771420477            0.000934826726           
       0.943936             0.00881356866            0.000979890806           
       0.946577             0.00644240148            0.000832233044           
       0.949217             0.00706860689            0.000801645844           
       0.951858             0.00895981358            0.000944776335           
       0.954498             0.00815983656             0.00104360133           
       0.957138             0.00912288956             0.00104538577           
       0.959779             0.00604245066            0.000838693555           
       0.962419             0.00550886712            0.000795480365           
       0.965059             0.00851024282              0.0010398651           
       0.967700             0.00718851639            0.000978835631           
       0.970340             0.00635361856            0.000814320573           
       0.972981             0.00820020893            0.000842871584           
       0.975621             0.00912756498            0.000946014319           
       0.978261             0.00865819282            0.000875463128           
       0.980902              0.0061699757            0.000884220453           
       0.983542             0.00743945693            0.000859824813           
       0.986182              0.0090259853            0.000929837332           
       0.988823             0.00595973429            0.000733657094           
       0.991463             0.00893185109            0.000958235729           
       0.994104             0.00878607287            0.000927114029           
       0.996744             0.00795378053            0.000899744749           
       0.999384             0.00723693274            0.000767555488           
       1.002025             0.00821931175            0.000912989628           
       1.004665             0.00814727013            0.000830694962           
       1.007306             0.00813096822            0.000825615775           
       1.009946             0.00802509763             0.00083651284           
       1.012586             0.00927523999            0.000875876197           
       1.015227             0.00678249502            0.000804647649           
       1.017867             0.00786473514            0.000832736679           
       1.020507             0.00854211229            0.000840637658           
       1.023148             0.00847135299            0.000903306307           
       1.025788             0.00965747949            0.000884346657           
       1.028429              0.0073781923             0.00080981877           
       1.031069             0.00748112887            0.000767368179           
       1.033709             0.00896386826            0.000892898764           
       1.036350             0.00838191525             0.00077547637           
       1.038990             0.00662152108            0.000701914378           
       1.041630             0.00826294997            0.000817826791           
       1.044271             0.00765086432            0.000740101099           
       1.046911             0.00960267507            0.000872155249           
       1.049552              0.0076079144            0.000815603345           
       1.052192             0.00773348481            0.000750870218           
       1.054832              0.0094342426            0.000836880854           
       1.057473             0.00801261993            0.000760293533           
       1.060113             0.00934244646            0.000800663544           
       1.062754             0.00793479059            0.000753365491           
       1.065394             0.00998280911            0.000893399195           
       1.068034             0.00740964189            0.000700315486           
       1.070675             0.00786391119            0.000752575167           
       1.073315              0.0074858262             0.00074478565           
       1.075955             0.00910419842            0.000775408543           
       1.078596             0.00776099881            0.000760888004           
       1.081236             0.00752203487            0.000717295295           
       1.083877             0.00948096745            0.000798074003           
       1.086517             0.00832672126            0.000801986721           
       1.089157             0.00966054638            0.000896326028           
       1.091798             0.00835715291            0.000730892504           
       1.094438             0.00928206508            0.000767790366           
       1.097078             0.00921169984            0.000733595006           
       1.099719             0.00921469511            0.000793624156           
       1.102359             0.00862951817            0.000719251863           
       1.105000             0.00928755455            0.000834364677           
       1.107640              0.0079447937            0.000737867344           
       1.110280             0.00973308415             0.00074517588           
       1.112921             0.00862287218             0.00075344444           
       1.115561             0.00786614547            0.000683943315           
       1.118202             0.00888259803            0.000727475139           
       1.120842             0.00928139357            0.000781556066           
       1.123482             0.00971890651            0.000796271657           
       1.126123               0.010485745            0.000793316847           
       1.128763             0.00912188132            0.000745000801           
       1.131403             0.00937136181            0.000727622645           
       1.134044             0.00812963058            0.000697359405           
       1.136684             0.00965624584            0.000810313837           
       1.139325             0.00870939883            0.000708918951           
       1.141965             0.00724243155            0.000650738224           
       1.144605             0.00890523937            0.000688032514           
       1.147246              0.0091024406            0.000711895473           
       1.149886             0.00846645214            0.000684137771           
       1.152527             0.00983819506            0.000748204964           
       1.155167             0.00839497987            0.000657389506           
       1.157807              0.0100709165            0.000771994832           
       1.160448             0.00842858938            0.000689669434           
       1.163088             0.00986086299            0.000711545002           
       1.165728              0.0100709188            0.000738296849           
       1.168369             0.00863806839            0.000690078718           
       1.171009              0.0096369857             0.00070736623           
       1.173650             0.00868551866            0.000689159694           
       1.176290             0.00887400157            0.000680731755           
       1.178930             0.00967706611            0.000696713996           
       1.181571             0.00808291836            0.000649373727           
       1.184211              0.0101720133            0.000731056898           
       1.186851              0.0104479605            0.000724373733           
       1.189492             0.00992232729            0.000701168035           
       1.192132             0.00905796669            0.000662415308           
       1.194773             0.00997674812            0.000698237092           
       1.197413             0.00892582125            0.000632793766           
       1.200053             0.00953886203            0.000670784911           
       1.202694             0.00917672451            0.000625652569           
       1.205334              0.0104499999            0.000719515538           
       1.207975              0.0102785908            0.000681141886           
       1.210615              0.0098259282            0.000734683015           
       1.213255              0.0104382183            0.000678079821           
       1.215896             0.00953210231            0.000659721319           
       1.218536              0.0104128825            0.000663010298           
       1.221176             0.00982648584            0.000700237581           
       1.223817              0.0106732942            0.000685062519           
       1.226457              0.0104368432            0.000691079479           
       1.229098              0.0105699903            0.000695439818           
       1.231738             0.00843603775            0.000624343672           
       1.234378             0.00875549833            0.000597669574           
       1.237019             0.00943723144            0.000639421186           
       1.239659             0.00905893766            0.000621017212           
       1.242299             0.00914926446            0.000616176274           
       1.244940             0.00980282672            0.000620304813           
       1.247580              0.0104590056             0.00066032409           
       1.250221             0.00933417963            0.000619957568           
       1.252861             0.00954759005            0.000596911452           
       1.255501              0.0113580214            0.000706915907           
       1.258142             0.00969928445            0.000613855248           
       1.260782              0.0100440311            0.000638185409           
       1.263423               0.010215218            0.000618427704           
       1.266063             0.00990074677            0.000624037681           
       1.268703               0.010076578            0.000624330481           
       1.271344              0.0103702524            0.000654828097           
       1.273984             0.00963731661            0.000609676049           
       1.276624              0.0109844855            0.000638666933           
       1.279265              0.0106979414            0.000640748485           
       1.281905             0.00989656187            0.000619017395           
       1.284546              0.0102732256            0.000609616481           
       1.287186              0.0106224446            0.000608179117           
       1.289826             0.00971707765            0.000613047288           
       1.292467              0.0108087437            0.000632326141           
       1.295107              0.0100655972            0.000604140043           
       1.297747              0.0116477914            0.000621890449           
       1.300388              0.0103679741            0.000639610875           
       1.303028              0.0110794081            0.000631212954           
       1.305669              0.0107439745            0.000636384898           
       1.308309             0.00997896929            0.000607270584           
       1.310949              0.0104666514             0.00062130752           
       1.313590              0.0115459203              0.0006321567           
       1.316230              0.0102243741            0.000634818782           
       1.318871              0.0116252507            0.000662952728           
       1.321511              0.0120274785            0.000661825333           
       1.324151              0.0105388281            0.000601149249           
       1.326792              0.0111072869            0.000620964625           
       1.329432              0.0110372355            0.000614635195           
       1.332072               0.010485034            0.000590134714           
       1.334713              0.0101369744            0.000598882847           
       1.337353                0.01152461            0.000612390518           
       1.339994              0.0103285482            0.000608381778           
       1.342634               0.011026371            0.000602785814           
       1.345274               0.011807391            0.000645542158           
       1.347915               0.010492274             0.00059172614           
       1.350555              0.0107487786            0.000609404741           
       1.353195              0.0115496801            0.000634803135           
       1.355836              0.0115620167            0.000625238225           
       1.358476              0.0115316176            0.000606402484           
       1.361117              0.0102170114            0.000571575371           
       1.363757              0.0111182777            0.000614458962           
       1.366397              0.0114618966            0.000605002452           
       1.369038              0.0117958324             0.00061986365           
       1.371678              0.0112612391            0.000600315035           
       1.374319              0.0107422346            0.000581269596           
       1.376959              0.0107531938             0.00057571748           
       1.379599              0.0110397557            0.000625161894           
       1.382240              0.0106325832            0.000576621266           
       1.384880               0.010975897            0.000620555178           
       1.387520              0.0118657464            0.000612785488           
       1.390161              0.0101837237            0.000539172851           
       1.392801              0.0114230999            0.000594968561           
       1.395442              0.0125287739            0.000631608032           
       1.398082               0.011441336            0.000565222318           
       1.400722              0.0108980887            0.000577830702           
       1.403363              0.0117744211            0.000632218881           
       1.406003              0.0117731939            0.000591641119           
       1.408644              0.0102049699            0.000577029553           
       1.411284              0.0110017603            0.000567325847           
       1.413924              0.0106691187            0.000556612196           
       1.416565              0.0117794392            0.000582561036           
       1.419205              0.0108128428            0.000582237024           
       1.421845              0.0110141815            0.000587287696           
       1.424486              0.0102069113            0.000543437011           
       1.427126              0.0111004696             0.00058871815           
       1.429767               0.010431565            0.000536963791           
       1.432407              0.0116421932            0.000593658371           
       1.435047               0.010755507            0.000535891651           
       1.437688              0.0106141633            0.000540318488           
       1.440328               0.010160515            0.000539542404           
       1.442968              0.0115776152            0.000588844309           
       1.445609             0.00963746833            0.000520202179           
       1.448249              0.0107792261             0.00056408379           
       1.450890             0.00951369619            0.000526478396           
       1.453530              0.0108900952            0.000589300675           
       1.456170               0.010774059            0.000568874953           
       1.458811              0.0111025827             0.00055220145           
       1.461451              0.0110197956            0.000551581987           
       1.464092              0.0101511608            0.000532857713           
       1.466732              0.0111879234            0.000554600191           
       1.469372              0.0109584334            0.000536037119           
       1.472013              0.0110074102            0.000579417224           
       1.474653              0.0107900356            0.000564817974           
       1.477293             0.00976081914            0.000548527687           
       1.479934              0.0120156661            0.000580728062           
       1.482574              0.0110214668            0.000538021237           
       1.485215              0.0110662142            0.000549153411           
       1.487855              0.0106545015            0.000545949307           
       1.490495              0.0105710542            0.000541804341           
       1.493136              0.0112812839            0.000552037522           
       1.495776              0.0101685034            0.000521718035           
       1.498416              0.0102078139            0.000539827612           
       1.501057              0.0124600203            0.000583270282           
       1.503697              0.0113479928            0.000544198859           
       1.506338              0.0113499313            0.000554190605           
       1.508978              0.0108671431            0.000536942913           
       1.511618              0.0111197834            0.000578450504           
       1.514259              0.0106627535            0.000546869788           
       1.516899              0.0117296501            0.000558473922           
       1.519540              0.0115889818            0.000564066706           
       1.522180              0.0102131163            0.000534177213           
       1.524820              0.0104553009            0.000537441294           
       1.527461              0.0102655562            0.000535175954           
       1.530101              0.0106670425            0.000540084964           
       1.532741               0.011350277            0.000553879878           
       1.535382              0.0110303655            0.000554808668           
       1.538022              0.0103353271            0.000505924495           
       1.540663              0.0105698747            0.000550292842           
       1.543303             0.00992192809              0.0004950471           
       1.545943              0.0102537894            0.000532661426           
       1.548584              0.0108858871            0.000558685853           
       1.551224              0.0110312631            0.000519995625           
       1.553864              0.0103283374             0.00053167787           
       1.556505             0.00960192537            0.000495223568           
       1.559145              0.0109766487            0.000535975291           
       1.561786              0.0110306427            0.000537705699           
       1.564426              0.0100835377            0.000498112912           
       1.567066              0.0102504005            0.000526227407           
       1.569707              0.0103069821            0.000518199028           
       1.572347              0.0100556007            0.000528782647           
       1.574988             0.00918481014            0.000481026199           
       1.577628              0.0107066226            0.000541553681           
       1.580268             0.00968533786            0.000499055327           
       1.582909                0.01121529            0.000569227841           
       1.585549              0.0100335947            0.000522774134           
       1.588189              0.0117276107            0.000552849569           
       1.590830             0.00891145633            0.000481316907           
       1.593470              0.0111826996            0.000560524572           
       1.596111              0.0107353102            0.000536187462           
       1.598751             0.00933020268            0.000484354846           
       1.601391             0.00885625137            0.000482303753           
       1.604032             0.00899783186            0.000496306555           
       1.606672             0.00883916638            0.000477938451           
       1.609312             0.00959523061            0.000519811485           
       1.611953             0.00897740468            0.000492019211           
       1.614593             0.00929213422            0.000491019049           
       1.617234             0.00911456241            0.000503994935           
       1.619874              0.0104441989            0.000537374254           
       1.622514             0.00916861575            0.000496622027           
       1.625155             0.00898754159            0.000494598271           
       1.627795             0.00882034599            0.000477970863           
       1.630436             0.00880861462            0.000475158753           
       1.633076             0.00973412715            0.000506048747           
       1.635716             0.00941751681            0.000490006314           
       1.638357              0.0100686424            0.000507998182           
       1.640997             0.00944211313            0.000506840885           
       1.643637             0.00895654899            0.000480364096           
       1.646278             0.00908017843            0.000498864923           
       1.648918             0.00854526326            0.000485267957           
       1.651559             0.00918582022            0.000507032288           
       1.654199              0.0103401149            0.000523200514           
       1.656839               0.010122842            0.000517855128           
       1.659480             0.00941555741            0.000518191025           
       1.662120             0.00920978888            0.000482688167           
       1.664761             0.00865751523            0.000486122912           
       1.667401              0.0102521079            0.000505611164           
       1.670041             0.00845261096            0.000466098327           
       1.672682             0.00854282585            0.000466653123           
       1.675322              0.0088598677            0.000472177488           
       1.677962             0.00947969221            0.000483026916           
       1.680603             0.00815378711            0.000449353655           
       1.683243             0.00890018471            0.000489804682           
       1.685884              0.0095981561            0.000512404165           
       1.688524             0.00903336807            0.000487490806           
       1.691164             0.00907707823            0.000488779719           
       1.693805             0.00864259339            0.000482177633           
       1.696445             0.00833323675            0.000476215822           
       1.699085             0.00870092594            0.000470303172           
       1.701726             0.00813004343            0.000437940017           
       1.704366             0.00869928317            0.000477235971           
       1.707007              0.0083823735             0.00045802008           
       1.709647              0.0083685022            0.000462809131           
       1.712287             0.00885204041            0.000480135253           
       1.714928              0.0093289512            0.000496873472           
       1.717568             0.00913359341            0.000463130059           
       1.720209             0.00801278655            0.000454359059           
       1.722849             0.00806189629            0.000453406245           
       1.725489             0.00926918672            0.000486579972           
       1.728130             0.00861604034            0.000498546919           
       1.730770             0.00839108014            0.000467263476           
       1.733410             0.00791473955            0.000446673619           
       1.736051              0.0078184203            0.000447037455           
       1.738691             0.00878753815            0.000464326905           
       1.741332             0.00841742371            0.000467731657           
       1.743972             0.00898717366            0.000499091555           
       1.746612             0.00765497054            0.000442310209           
       1.749253             0.00803312167            0.000462051518           
       1.751893             0.00833366385            0.000467161088           
       1.754533             0.00772873323            0.000449466224           
       1.757174              0.0090462888            0.000481717052           
       1.759814             0.00765259168            0.000436342585           
       1.762455             0.00831967463            0.000463317533           
       1.765095             0.00823320602            0.000440910285           
       1.767735             0.00931522321            0.000483456985           
       1.770376             0.00827013723            0.000456731513           
       1.773016              0.0085980343            0.000462578451           
       1.775657             0.00717492649            0.000416485841           
       1.778297             0.00874073551            0.000455732138           
       1.780937             0.00841174573            0.000471885706           
       1.783578             0.00888215573            0.000472776275           
       1.786218             0.00748035673            0.000452788745           
       1.788858             0.00883290407            0.000467304012           
       1.791499             0.00860012598            0.000455926708           
       1.794139             0.00870100248            0.000454872195           
       1.796780             0.00916617168            0.000464622227           
       1.799420             0.00795635778            0.000430478475           
       1.802060             0.00917202229            0.000465929999           
       1.804701             0.00885109482            0.000439235519           
       1.807341             0.00890197048             0.00046286555           
       1.809981             0.00935824982            0.000476161906           
       1.812622             0.00872154137            0.000451402549           
       1.815262             0.00935602435            0.000477465342           
       1.817903             0.00844537461            0.000446912607           
       1.820543             0.00887729693            0.000465338112           
       1.823183             0.00881772742            0.000463519241           
       1.825824             0.00856069544            0.000436325684           
       1.828464             0.00835781538            0.000449465866           
       1.831105             0.00752101519            0.000414583615           
       1.833745             0.00879864409             0.00045799352           
       1.836385             0.00819660355            0.000454662308           
       1.839026             0.00806706765            0.000449630262           
       1.841666              0.0087246406            0.000465938655           
       1.844306             0.00871274304            0.000452916161           
       1.846947             0.00825799248            0.000444803225           
       1.849587             0.00858903981            0.000500918902           
       1.852228             0.00820844971            0.000442805645           
       1.854868             0.00865808477            0.000480399113           
       1.857508             0.00809015147            0.000459821279           
       1.860149             0.00788485958            0.000462197303           
       1.862789             0.00822800606            0.000455731562           
       1.865429             0.00758225413            0.000456665098           
       1.868070             0.00852968218            0.000477900817           
       1.870710             0.00829608447            0.000460445498           
       1.873351             0.00815293161            0.000462098442           
       1.875991             0.00781215908            0.000459720324           
       1.878631             0.00824325252            0.000463189905           
       1.881272             0.00868885449            0.000472358091           
       1.883912             0.00820809712            0.000477794022           
       1.886553             0.00734458546            0.000446910284           
       1.889193             0.00722143695            0.000442390526           
       1.891833             0.00863860919             0.00050250308           
       1.894474             0.00833102203            0.000489178231           
       1.897114             0.00773908478            0.000456240838           
       1.899754             0.00815153949             0.00047019987           
       1.902395             0.00791994451            0.000454410832           
       1.905035              0.0076139098            0.000471906717           
       1.907676             0.00781659749             0.00045065468           
       1.910316              0.0078270318            0.000462929001           
       1.912956             0.00790739185            0.000455062733           
       1.915597             0.00787702419            0.000456726473           
       1.918237             0.00867206952            0.000494919408           
       1.920878             0.00856000146            0.000489698227           
       1.923518             0.00857674506            0.000490384904           
       1.926158             0.00763283845            0.000456611009           
       1.928799             0.00794102628            0.000460346939           
       1.931439             0.00836364763            0.000484829548           
       1.934079             0.00720230507            0.000469021539           
       1.936720             0.00854792627             0.00047341984           
       1.939360             0.00766705146            0.000478341342           
       1.942001             0.00838750798            0.000458560824           
       1.944641             0.00729156237            0.000435975653           
       1.947281             0.00846762748            0.000465490841           
       1.949922             0.00779374522            0.000461281993           
       1.952562             0.00712295838            0.000454807725           
       1.955202             0.00772776176             0.00047314557           
       1.957843             0.00721888288            0.000445442651           
       1.960483             0.00801093431            0.000490593586           
       1.963124              0.0079246026            0.000477932571           
       1.965764             0.00799344866            0.000452657344           
       1.968404             0.00806312359            0.000450330377           
       1.971045             0.00786126559            0.000453351909           
       1.973685             0.00762330242            0.000468279741           
       1.976326             0.00782797439            0.000468002605           
       1.978966             0.00657009353             0.00043251784           
       1.981606             0.00785490123            0.000482784087           
       1.984247             0.00702712617             0.00045363521           
       1.986887             0.00794769449            0.000476655612           
       1.989527             0.00811857874            0.000476564492           
       1.992168             0.00837474409            0.000502216562           
       1.994808             0.00800570665            0.000488921859           
       1.997449             0.00790003337            0.000475710049           
       2.000089             0.00693184089            0.000443840469           
       2.002729             0.00770647103            0.000468263897           
       2.005370              0.0076516686            0.000461575532           
       2.008010             0.00815320465            0.000497257087           
       2.010650             0.00703651396            0.000465397654           
       2.013291             0.00773659702            0.000468209614           
       2.015931             0.00828284842             0.00048103238           
       2.018572             0.00715178074            0.000478091188           
       2.021212             0.00698693011            0.000464058835           
       2.023852             0.00717661782            0.000445131942           
       2.026493             0.00722395323            0.000466550572           
       2.029133              0.0074811889            0.000465229964           
       2.031774             0.00774785262            0.000496874021           
       2.034414             0.00766941121            0.000454872861           
       2.037054             0.00737560385            0.000457381454           
       2.039695             0.00782740744             0.00046762341           
       2.042335             0.00677740596            0.000452195592           
       2.044975             0.00815358947            0.000489970571           
       2.047616             0.00776494496             0.00047696291           
       2.050256             0.00769371134            0.000479263118           
       2.052897             0.00680335039            0.000458987701           
       2.055537             0.00693048499            0.000447719713           
       2.058177             0.00768042787            0.000461550692           
       2.060818             0.00812338432            0.000497257499           
       2.063458              0.0071966664            0.000487739182           
       2.066098             0.00714699517             0.00045851088           
       2.068739             0.00739673067            0.000473703444           
       2.071379             0.00766852235             0.00049490728           
       2.074020             0.00693145369            0.000460296489           
       2.076660             0.00788533988            0.000494917042           
       2.079300             0.00676546625            0.000469660331           
       2.081941             0.00772767495            0.000459591326           
       2.084581             0.00726961624             0.00047050625           
       2.087222             0.00721970681            0.000452197991           
       2.089862              0.0086011137            0.000537569871           
       2.092502             0.00767168154            0.000492137794           
       2.095143             0.00753588179            0.000503687808           
       2.097783             0.00735703478            0.000481833145           
       2.100423             0.00766709411            0.000473973293           
       2.103064             0.00776229031             0.00049485478           
       2.105704             0.00762224362            0.000487941463           
       2.108345             0.00668433009             0.00043899319           
       2.110985             0.00719784303            0.000486553614           
       2.113625             0.00706615516            0.000486289073           
       2.116266             0.00726583697            0.000500108303           
       2.118906             0.00711986749            0.000461367503           
       2.121546             0.00720813206            0.000455355108           
       2.124187             0.00778131758            0.000496623142           
       2.126827             0.00761175391            0.000496664311           
       2.129468              0.0080589364             0.00051235074           
       2.132108              0.0071636234             0.00046997391           
       2.134748             0.00700318864            0.000462878536           
       2.137389             0.00708654565            0.000485762684           
       2.140029              0.0079366418            0.000460230002           
       2.142670                0.00746561            0.000477038852           
       2.145310             0.00777115123            0.000473716486           
       2.147950              0.0086381311            0.000514062695           
       2.150591             0.00753259314            0.000475189803           
       2.153231             0.00766240722            0.000493330802           
       2.155871             0.00741265537            0.000468758921           
       2.158512             0.00719860906             0.00048200315           
       2.161152             0.00733200583             0.00047120449           
       2.163793             0.00690542454            0.000455232907           
       2.166433             0.00843177351            0.000516563617           
       2.169073             0.00721040668            0.000467052932           
       2.171714             0.00700397418            0.000456877464           
       2.174354             0.00787205593            0.000506115285           
       2.176995             0.00718953393            0.000481642137           
       2.179635             0.00729845323            0.000512799352           
       2.182275             0.00672707505             0.00046482575           
       2.184916             0.00764872424            0.000478729592           
       2.187556             0.00666794639            0.000442503788           
       2.190196             0.00731627876            0.000484369464           
       2.192837             0.00732251845            0.000481939478           
       2.195477             0.00741462069            0.000462352628           
       2.198118             0.00785887225            0.000488199079           
       2.200758              0.0080743865            0.000507683764           
       2.203398             0.00710690952            0.000479345204           
       2.206039             0.00769922533            0.000472186189           
       2.208679             0.00688171013            0.000456803449           
       2.211319             0.00765584274            0.000484590209           
       2.213960             0.00668908068            0.000459030491           
       2.216600             0.00715100632            0.000490979129           
       2.219241             0.00709402173            0.000467369996           
       2.221881              0.0076813576            0.000487332732           
       2.224521             0.00722336176            0.000478371953           
       2.227162             0.00688491826            0.000457679645           
       2.229802             0.00724479007            0.000484185521           
       2.232443             0.00744639409            0.000483133575           
       2.235083             0.00716286427            0.000487823559           
       2.237723             0.00770524281            0.000485538042           
       2.240364             0.00745667745            0.000489409369           
       2.243004             0.00702280002             0.00047116615           
       2.245644             0.00733449105            0.000486328086           
       2.248285             0.00682579932            0.000459761485           
       2.250925             0.00731584764            0.000478870782           
       2.253566             0.00661788782             0.00048691653           
       2.256206             0.00723561459            0.000498954325           
       2.258846             0.00682295767            0.000460910113           
       2.261487             0.00669276218            0.000479130066           
       2.264127             0.00769190219            0.000496075397           
       2.266767             0.00708621297            0.000488829326           
       2.269408             0.00746768261            0.000503869293           
       2.272048             0.00718505988            0.000491292389           
       2.274689             0.00672452502            0.000481549217           
       2.277329              0.0073024602            0.000472492071           
       2.279969             0.00711832964            0.000496559476           
       2.282610             0.00655456493             0.00046323791           
       2.285250             0.00738272962             0.00047055917           
       2.287891             0.00655291852            0.000475312344           
       2.290531             0.00680653991            0.000490935119           
       2.293171             0.00648930012             0.00046693788           
       2.295812             0.00695945464            0.000481613384           
       2.298452             0.00769294321            0.000529515332           
       2.301092             0.00771609215            0.000492724471           
       2.303733             0.00735220284            0.000500372418           
       2.306373             0.00720444624             0.00050311946           
       2.309014             0.00762248462            0.000507414952           
       2.311654             0.00707108044            0.000509999882           
       2.314294             0.00709858185            0.000470777603           
       2.316935             0.00690067668            0.000466086361           
       2.319575             0.00659653798            0.000477467643           
       2.322215             0.00649109243            0.000493608788           
       2.324856              0.0065858371            0.000457122108           
       2.327496             0.00695208066            0.000499396706           
       2.330137                0.00779448            0.000506010854           
       2.332777             0.00778622709            0.000521474846           
       2.335417             0.00651205202             0.00046266584           
       2.338058             0.00725064821            0.000502782614           
       2.340698             0.00762045261            0.000511394289           
       2.343339             0.00673467773            0.000491334564           
       2.345979             0.00732265841            0.000484708845           
       2.348619             0.00748261443            0.000507884544           
       2.351260             0.00783743514             0.00051675845           
       2.353900             0.00687518731            0.000482464026           
       2.356540             0.00770037968            0.000509872759           
       2.359181             0.00803769973            0.000513617669           
       2.361821             0.00666760526            0.000451881073           
       2.364462             0.00724898105            0.000492784938           
       2.367102             0.00668199544            0.000486207291           
       2.369742             0.00764728168            0.000547485379           
       2.372383             0.00764729891             0.00049574722           
       2.375023             0.00736161767            0.000511310995           
       2.377663             0.00740074581            0.000490185926           
       2.380304             0.00773715308            0.000509559991           
       2.382944             0.00764856663            0.000482553318           
       2.385585             0.00626527151            0.000465793158           
       2.388225             0.00610979731            0.000457816054           
       2.390865             0.00716956832            0.000490839919           
       2.393506             0.00632630156            0.000452372887           
       2.396146             0.00718542174            0.000521281023           
       2.398787             0.00696749864            0.000473059906           
       2.401427              0.0075145527            0.000474198655           
       2.404067             0.00697967196            0.000467204476           
       2.406708             0.00809875656            0.000497232246           
       2.409348             0.00724278461            0.000498762365           
       2.411988             0.00798045101            0.000512958983           
       2.414629             0.00726162932            0.000504551163           
       2.417269             0.00754049933            0.000520150908           
       2.419910             0.00703190855            0.000503468736           
       2.422550              0.0074988702              0.0004974243           
       2.425190             0.00690048073            0.000502981937           
       2.427831             0.00743948259            0.000519320985           
       2.430471             0.00810359295            0.000516364486           
       2.433112              0.0070597063            0.000469314024           
       2.435752             0.00706021192            0.000496698547           
       2.438392             0.00731581543            0.000488016673           
       2.441033             0.00735329838            0.000518522836           
       2.443673             0.00566188671            0.000455345584           
       2.446313             0.00674607665            0.000497472322           
       2.448954             0.00680789413            0.000475828441           
       2.451594             0.00730004136            0.000529797027           
       2.454235              0.0070711775            0.000489230766           
       2.456875             0.00744048376            0.000525108381           
       2.459515             0.00736605104            0.000536000748           
       2.462156             0.00740276482            0.000507318935           
       2.464796             0.00806981111            0.000522848909           
       2.467436             0.00706299275            0.000505834873           
       2.470077             0.00810627877            0.000513629942           
       2.472717             0.00832369277            0.000522726834           
       2.475358             0.00742419729            0.000498823031           
       2.477998             0.00738252329            0.000489035239           
       2.480638             0.00827566262            0.000526973019           
       2.483279             0.00766388656            0.000530022201           
       2.485919             0.00704220689             0.00048964202           
       2.488560             0.00713881196             0.00049161155           
       2.491200             0.00815689175            0.000541124546           
       2.493840             0.00634876631            0.000505148393           
       2.496481             0.00699328807            0.000521497413           
       2.499121             0.00735339849            0.000520135416           
       2.501761             0.00713200927            0.000519032705           
       2.504402             0.00673776719            0.000497112805           
       2.507042             0.00661632626            0.000488963239           
       2.509683             0.00661504268            0.000481443462           
       2.512323             0.00695553969            0.000518485277           
       2.514963              0.0067431402            0.000504200428           
       2.517604             0.00779507448            0.000562515801           
       2.520244             0.00684679866            0.000494242962           
       2.522884             0.00829530402            0.000551797463           
       2.525525               0.011089519             0.00064524027           
       2.528165             0.00730686738            0.000515593883           
       2.530806             0.00764273421            0.000536501774           
       2.533446             0.00701906913            0.000503171992           
       2.536086              0.0072298576            0.000506100737           
       2.538727             0.00720943174            0.000484840386           
       2.541367             0.00743894121             0.00049734861           
       2.544008             0.00750924899            0.000516061286           
       2.546648             0.00723121273            0.000515103793           
       2.549288             0.00694751488             0.00051518604           
       2.551929             0.00687473585            0.000504311487           
       2.554569             0.00747638362            0.000506676348           
       2.557209             0.00769465855             0.00051874005           
       2.559850             0.00653877599            0.000479728709           
       2.562490             0.00672403367            0.000502800225           
       2.565131             0.00638739315            0.000508108192           
       2.567771             0.00725270029            0.000522022122           
       2.570411             0.00677018553            0.000498901389           
       2.573052             0.00659120069            0.000498461795           
       2.575692             0.00736850863            0.000523843481           
       2.578332             0.00716999438            0.000518875744           
       2.580973             0.00545354507            0.000448220238           
       2.583613             0.00691660376            0.000492756536           
       2.586254               0.007221548            0.000502802132           
       2.588894             0.00659648024            0.000499027676           
       2.591534             0.00720584343            0.000539920716           
       2.594175             0.00755605314            0.000542452101           
       2.596815             0.00752277204            0.000544447531           
       2.599456              0.0064878147            0.000479468327           
       2.602096             0.00694533157            0.000499861634           
       2.604736             0.00723519141            0.000522283371           
       2.607377             0.00696402022            0.000498898972           
       2.610017             0.00648928255            0.000473166138           
       2.612657             0.00662951554            0.000508692432           
       2.615298             0.00709869842            0.000513917637           
       2.617938             0.00741620417            0.000561920707           
       2.620579             0.00658915049            0.000508470267           
       2.623219             0.00740270881            0.000538178899           
       2.625859             0.00599034771            0.000470705118           
       2.628500             0.00653143802             0.00048828267           
       2.631140             0.00786246596            0.000543985097           
       2.633780             0.00766824336            0.000536757167           
       2.636421              0.0078152573            0.000555203854           
       2.639061             0.00754732251            0.000513623147           
       2.641702             0.00748924034            0.000523487828           
       2.644342             0.00675140019             0.00049915016           
       2.646982             0.00700974947            0.000501007139           
       2.649623             0.00758422955             0.00054612624           
       2.652263             0.00723255269             0.00052796237           
       2.654904             0.00687154355            0.000515134946           
       2.657544             0.00773824736             0.00051489449           
       2.660184             0.00714292014            0.000523528131           
       2.662825             0.00582243405            0.000483631831           
       2.665465             0.00717404391            0.000519212386           
       2.668105              0.0063401646            0.000514481428           
       2.670746             0.00690770232            0.000496087142           
       2.673386             0.00845466033            0.000565615141           
       2.676027             0.00837045978            0.000553759189           
       2.678667             0.00902502846            0.000561059791           
       2.681307              0.0110311937            0.000609472074           
       2.683948              0.0148885858            0.000727497521           
       2.686588              0.0104293094            0.000598783767           
       2.689229             0.00927565895            0.000551797473           
       2.691869               0.010067013            0.000607563626           
       2.694509             0.00926577526            0.000583204553           
       2.697150             0.00739038195             0.00051240067           
       2.699790             0.00716961804            0.000529094422           
       2.702430             0.00676795764            0.000491379766           
       2.705071             0.00752279548            0.000535314798           
       2.707711             0.00674975808            0.000492144684           
       2.710352             0.00696859118            0.000528374848           
       2.712992             0.00660886779             0.00052407079           
       2.715632              0.0075846493            0.000520893926           
       2.718273             0.00709643367            0.000522173137           
       2.720913             0.00710504021            0.000521003034           
       2.723553             0.00673876053            0.000510800326           
       2.726194             0.00638627906             0.00051980249           
       2.728834              0.0075417036            0.000565135839           
       2.731475             0.00836483776             0.00054929712           
       2.734115             0.00735238514            0.000530965465           
       2.736755             0.00772243113            0.000548642104           
       2.739396             0.00734766296            0.000532063138           
       2.742036             0.00662663294            0.000528811142           
       2.744677             0.00667503333            0.000514962967           
       2.747317             0.00641404575            0.000501195742           
       2.749957             0.00698203133            0.000526586114           
       2.752598             0.00783036151            0.000563711928           
       2.755238             0.00744088611             0.00055943382           
       2.757878             0.00819397719              0.0005819289           
       2.760519             0.00873334792            0.000594406321           
       2.763159              0.0110517108            0.000661981653           
       2.765800             0.00755414468            0.000521566439           
       2.768440             0.00806876856            0.000543010578           
       2.771080             0.00894640953            0.000576552823           
       2.773721              0.0069982409            0.000523082573           
       2.776361             0.00734935979            0.000543439411           
       2.779001             0.00764474411            0.000573984876           
       2.781642             0.00696299723            0.000543756793           
       2.784282             0.00664676934             0.00054000194           
       2.786923             0.00705914542            0.000561401043           
       2.789563             0.00641329037            0.000515367296           
       2.792203             0.00732276513            0.000526074401           
       2.794844             0.00685220574            0.000557736279           
       2.797484             0.00666199699             0.00051900991           
       2.800125             0.00691886336             0.00055616062           
       2.802765             0.00651036519            0.000530211553           
       2.805405             0.00637028852            0.000526251684           
       2.808046             0.00732023427             0.00057404349           
       2.810686             0.00690763022            0.000512397968           
       2.813326              0.0063559211            0.000510542946           
       2.815967             0.00736860075            0.000565342322           
       2.818607             0.00701698373            0.000526462419           
       2.821248             0.00764748694            0.000538195722           
       2.823888             0.00659758995            0.000518897391           
       2.826528             0.00717669266            0.000524117269           
       2.829169             0.00733395241            0.000554965687           
       2.831809             0.00764237038            0.000574220462           
       2.834449             0.00667474191            0.000540029941           
       2.837090             0.00740770287            0.000549475326           
       2.839730             0.00653494835            0.000513572651           
       2.842371             0.00672378511            0.000521691864           
       2.845011               0.006774776            0.000527840432           
       2.847651             0.00656488544            0.000520237689           
       2.850292             0.00743938328            0.000559239899           
       2.852932             0.00710661319            0.000558501173           
       2.855573             0.00639604952            0.000513964375           
       2.858213             0.00746680969            0.000583155141           
       2.860853             0.00822838847            0.000569461252           
       2.863494             0.00730568065             0.00055555711           
       2.866134             0.00734966261            0.000579168285           
       2.868774             0.00590381488            0.000510152928           
       2.871415             0.00617740487            0.000529968034           
       2.874055              0.0072724384            0.000549652324           
       2.876696             0.00693262753            0.000551173043           
       2.879336             0.00697443569            0.000532824249           
       2.881976             0.00749083084            0.000569553657           
       2.884617             0.00859756182            0.000601217657           
       2.887257             0.00746563042            0.000563135866           
       2.889897             0.00732866702            0.000546463263           
       2.892538             0.00714450411            0.000591082837           
       2.895178             0.00714749481            0.000534115713           
       2.897819             0.00695621092              0.0005375089           
       2.900459             0.00626632777            0.000500235129           
       2.903099             0.00712608636            0.000527988872           
       2.905740             0.00695429644            0.000535080465           
       2.908380              0.0074896078            0.000561602203           
       2.911021             0.00713729704            0.000557147636           
       2.913661             0.00782942729            0.000583362183           
       2.916301             0.00662255635            0.000537031882           
       2.918942             0.00688836614            0.000523891666           
       2.921582             0.00724781109            0.000562261174           
       2.924222             0.00548110842             0.00047370332           
       2.926863             0.00671806808            0.000546263062           
       2.929503             0.00704177577            0.000565894878           
       2.932144             0.00682300358            0.000534719513           
       2.934784             0.00762362914            0.000555954051           
       2.937424             0.00669975792             0.00052653065           
       2.940065              0.0062142944            0.000483721483           
       2.942705             0.00718125263            0.000519343097           
       2.945346             0.00638849361            0.000519843307           
       2.947986             0.00726648281             0.00056531193           
       2.950626             0.00708419718            0.000555033509           
       2.953267             0.00737877933            0.000557303538           
       2.955907             0.00670097863            0.000550933561           
       2.958547             0.00751121911            0.000550656696           
       2.961188             0.00730210747             0.00056643538           
       2.963828             0.00823606999             0.00058844681           
       2.966469             0.00811000166            0.000572829195           
       2.969109             0.00692155576            0.000537036824           
       2.971749              0.0077400462             0.00056435999           
       2.974390             0.00706858453             0.00052998565           
       2.977030              0.0074814217             0.00055742802           
       2.979670             0.00843442107            0.000575704938           
       2.982311             0.00759803485            0.000566332101           
       2.984951             0.00775588292            0.000544197889           
       2.987592              0.0074746035            0.000544939016           
       2.990232             0.00864467051             0.00060947639           
       2.992872             0.00773412622            0.000543016641           
       2.995513             0.00881813629            0.000567258366           
       2.998153             0.00942149016            0.000596195079           
       3.000794              0.0118965814            0.000648911343           
       3.003434              0.0119827866            0.000652241496           
       3.006074              0.0460606249             0.00126085262           
       3.008715               0.123023466             0.00198912376           
       3.011355               0.179245613             0.00231533924           
       3.013995              0.0937816113             0.00167930357           
       3.016636              0.0622337551             0.00133958771           
       3.019276               0.128468563             0.00189191278           
       3.021917               0.499403517             0.00358673811           
       3.024557                1.67056788             0.00644964649           
       3.027197                1.13212733             0.00517645752           
       3.029838               0.512446191             0.00353204436           
       3.032478               0.258964116             0.00251340901           
       3.035118              0.0703535479             0.00132762114           
       3.037759              0.0961517592             0.00155006203           
       3.040399                0.13488565             0.00189379555           
       3.043040               0.539975627             0.00383555523           
       3.045680               0.390781182             0.00306995592           
       3.048320              0.0874946852             0.00148423723           
       3.050961               0.106257892              0.0016644809           
       3.053601              0.0867932493             0.00144884575           
       3.056242              0.0524003983             0.00119692387           
       3.058882              0.0461186512             0.00120452843           
       3.061522              0.0362755663             0.00104811186           
       3.064163              0.0419909481             0.00111346058           
       3.066803               0.100878154             0.00181691713           
       3.069443               0.100762267             0.00189986856           
       3.072084              0.0559191518             0.00137814467           
       3.074724              0.0417655785             0.00133011181           
       3.077365              0.0821243004             0.00193076015           
       3.080005              0.0181963886            0.000913984993           
       3.082645              0.0101889645            0.000718484174           
       3.085286              0.0137242567            0.000840445556           
       3.087926             0.00810813278            0.000641010956           
       3.090566              0.0102401845            0.000705828928           
       3.093207              0.0114779195            0.000777611052           
       3.095847             0.00833251808            0.000635044471           
       3.098488             0.00940172181            0.000747970073           
       3.101128             0.00929227268            0.000748385797           
       3.103768             0.00833477028            0.000695445219           
       3.106409             0.00847236248            0.000746224975           
       3.109049             0.00876798271            0.000728501486           
       3.111690             0.00782339026            0.000676328811           
       3.114330              0.0085779976            0.000723261463           
       3.116970             0.00818461888            0.000711906566           
       3.119611              0.0119767322            0.000916667198           
       3.122251              0.0213146407             0.00127916673           
       3.124891              0.0340546213              0.0016319347           
       3.127532              0.0251360316             0.00137161177           
       3.130172              0.0151889191             0.00108464228           
       3.132813             0.00919952762            0.000831010217           
       3.135453             0.00728629805             0.00073347427           
       3.138093             0.00727359011            0.000794051968           
       3.140734             0.00752987864            0.000745368646           
       3.143374              0.0076778407            0.000795966912           
       3.146014             0.00783927281             0.00086585623           
       3.148655             0.00825918831            0.000826169651           
       3.151295             0.00504852806            0.000688335395           
       3.153936             0.00570281993             0.00070668539           
       3.156576             0.00612549819            0.000722443949           
       3.159216             0.00610785902            0.000725011325           
       3.161857             0.00680291793            0.000762038327           
       3.164497             0.00819414355            0.000878748539           
       3.167138             0.00712337852             0.00084656198           
       3.169778             0.00678969385             0.00081286615           
       3.172418             0.00637396986            0.000779576694           
       3.175059             0.00710373629            0.000729620014           
       3.177699             0.00663978178            0.000746966933           
       3.180339             0.00645002158            0.000788798004           
       3.182980             0.00535449745            0.000743057522           
       3.185620             0.00663235591            0.000842212576           
       3.188261             0.00630838596             0.00083604325           
       3.190901             0.00439700165            0.000641946346           
       3.193541             0.00483766702            0.000707524449           
       3.196182             0.00697138142            0.000885136789           
       3.198822             0.00471637826            0.000728284093           
       3.201463             0.00619932767            0.000820580737           
       3.204103             0.00525851333            0.000751156001           
       3.206743             0.00655628696            0.000838661803           
       3.209384             0.00512495804            0.000801112475           
       3.212024             0.00695285767            0.000869945494           
       3.214664             0.00505210604             0.00084325997           
       3.217305             0.00570033191            0.000851449718           
       3.219945             0.00511943403            0.000830508741           
       3.222586             0.00563265465             0.00082974989           
       3.225226              0.0069248265             0.00102061376           
       3.227866             0.00805422985             0.00100602877           
       3.230507             0.00606398425            0.000904883122           
       3.233147              0.0071460461            0.000990236989           
       3.235787             0.00657892299            0.000972340698           
       3.238428             0.00585469374            0.000989841208           
       3.241068             0.00627923617            0.000958520793           
       3.243709             0.00624789213            0.000987829536           
       3.246349             0.00611024261            0.000890523876           
       3.248989             0.00506607152            0.000957458589           
       3.251630             0.00655239139             0.00104857197           
       3.254270             0.00587846441            0.000887638326           
       3.256911             0.00524739021            0.000915049744           
       3.259551             0.00480376482            0.000942570634           
       3.262191             0.00558692937             0.00103830935           
       3.264832             0.00500758738             0.00102708991           
       3.267472             0.00480175506            0.000943510667           
       3.270112             0.00539838966             0.00110558284           
       3.272753             0.00589284895             0.00105729606           
       3.275393              0.0069165533             0.00116876527           
       3.278034              0.0058945995               0.001079578           
       3.280674             0.00580240009             0.00116229407           
       3.283314             0.00426741952            0.000891465356           
       3.285955              0.0061681432             0.00110582476           
       3.288595             0.00441470892             0.00104081792           
       3.291235             0.00595090817             0.00124223811           
       3.293876             0.00585467653             0.00124985905           
       3.296516             0.00613845611             0.00122862838           
       3.299157             0.00502218573              0.0010973516           
       3.301797             0.00777723532             0.00155767803           
       3.304437             0.00421592673            0.000993620362           
       3.307078             0.00652792448             0.00136197866           
       3.309718             0.00633458844             0.00138483249           
       3.312359             0.00424417588             0.00113380373           
       3.314999               0.006763559             0.00140922605           
       3.317639             0.00458759875             0.00110997938           
       3.320280             0.00726207811             0.00148480775           
       3.322920             0.00627064599             0.00140295801           
       3.325560             0.00467991785             0.00121283744           
       3.328201             0.00635724339             0.00127309186           
       3.330841             0.00336760218             0.00112771304           
       3.333482             0.00437540988             0.00121502407           
       3.336122              0.0063953889             0.00146963193           
       3.338762             0.00535806079             0.00155388594           
       3.341403             0.00572461135             0.00153474843           
       3.344043             0.00413984568             0.00125303964           
       3.346683             0.00789924775             0.00176708186           
       3.349324             0.00551161539              0.0016595742           
       3.351964             0.00387235506             0.00147099049           
       3.354605             0.00220278223              0.0012688266           
       3.357245              0.0035595501             0.00145502952           
       3.359885             0.00534066493             0.00142645307           
       3.362526             0.00474232586             0.00168094596           
       3.365166             0.00532937209             0.00168072596           
       3.367807             0.00699259519             0.00246387734           
       3.370447             0.00533847499             0.00178579713           
       3.373087             0.00341424329             0.00152720734           
       3.375728             0.00347907547             0.00173989053           
       3.378368              0.0133219143             0.00505292923           
       3.381008             0.00632296723             0.00259536534           
       3.383649             0.00745873578             0.00226128398           
       3.386289             0.00477610587             0.00214160813           
       3.388930             0.00477539128             0.00338727792           
       3.391570             0.00231942972             0.00166993454           
       3.394210             0.00192659161             0.00192607697           
       3.396851              0.0071567632             0.00415251229           
       3.399491             0.00239156588             0.00240113107           
       3.402131             0.00476535746             0.00479533469           
       3.404772           -2.57921972e-05                         0           
       3.407412                       nan                       nan           
       3.410053           -2.58557236e-05                         0           
       3.412693                       nan                       nan           
       3.415333             0.00877740376             0.00922619745           
