################################################################################
# EDF_DataBlockID                     0.Image.Psd
# EDF_BinarySize                      2105344
# EDF_HeaderSize                      2560
# ByteOrder                           LowByteFirst
# DataType                            FloatValue
# Dim_1                               512
# Dim_2                               1028
# Image                               0
# HeaderID                            EH:000000:000000:000000
# Size                                2105344
# Center_1                            304.9000
# Center_2                            588.7000
# Comment                             Xenocs_Cell_Window - 20251028_20perc_iodine_1.23mg
# DDummy                              0.6
# Date                                2025-10-28T16:49:53
# Delta                               21.910000
# Dummy                               -1.5
# ExposureTime                        360
# Gamma                               15.360000
# Intensity1                          8.50978e-10
# PSize_1                             7.5e-05
# PSize_2                             7.5e-05
# Pressure                            0.0367861
# SampleDistance                      0.115750
# SampleEnvKind                       large
# SampleEnvPN                         ElectroChemical cell
# SampleEnvSN                         1141
# Thickness                           0
# Wavelength                          1.541891e-10
# Wavelength                          1.54189e-10
# aux                                 0
# aux_dial                            0.002375
# beamx                               588.434
# beamx_dial                          588.434
# beamz                               657.808
# beamz_dial                          657.808
# det0x                               0
# det0x_dial                          6.36945
# det0xvd                             0
# det0xvd_dial                        0
# det0y                               450.002
# det0y_dial                          481.635
# det0z                               0
# det0z_dial                          1.23302
# det0zvd                             0
# det0zvd_dial                        0
# mag                                 1.818
# mag_dial                            1.818
# om                                  0.2499
# om_dial                             -0.610199
# phi                                 -0.0120535
# phi_dial                            0
# ry                                  0.599993
# ry_dial                             0.599993
# s1bot                               0.8
# s1bot_dial                          -1.66094
# s1hl                                0.8
# s1hl_dial                           -0.608437
# s1hr                                0.8
# s1hr_dial                           0.970938
# s1top                               0.8
# s1top_dial                          -0.461562
# s2bot                               0.45
# s2bot_dial                          1.36109
# s2hl                                0.45
# s2hl_dial                           -0.83375
# s2hr                                0.45
# s2hr_dial                           -0.118594
# s2top                               0.45
# s2top_dial                          1.44734
# w2theta                             32
# w2theta_dial                        32
# waxsch                              19.2605
# waxsch_dial                         -32.7355
# waxsh                               137.085
# waxsh_dial                          -43.5338
# waxsth                              26.0607
# waxsth_dial                         -19.4086
# waxsz                               67.0407
# waxsz_dial                          -23.7954
# wind                                65.9854
# wind_dial                           66.0041
# wpsi                                124
# wpsi_dial                           124
# wstod                               115
# wstod_dial                          115
# x                                   0
# x_dial                              1.00969
# z                                   0
# z_dial                              13.3172
# CountCutoff                         6807993
# DetectorModel                       Dectris EIGER2 Si 500K, S/N E-01-0554
# ThresholdSetting                    4023.88989258
# Saturation                          0
# FlatField                           Corrected
# BackgroundReductionExtra            0.02
# BackgroundCorrectionConstant        0.0026712
# Detector                            0
# Monitor                             0
# Pil_Roi0                            0
# SumForIntensity1                    3.06352e+08
# TransmittedFlux                     850978
# det                                 0
# mon                                 0
# pilai0                              3.06352e+08
# pilai1                              808356
# pilct0                              5.31104e+08
# pilct1                              808356
# pilroi0                             0
# pilroi1                             0
# sec                                 1
# title                               20251028_20perc_iodine_1.23mg_1_00022.edf
# usaxs0                              0
# Operation                           Azimuthal average I(q)
# Error_model                         ErrorModel.poisson
# Geometrical_correction              True
# Transmission_correction             True
# Thickness_correction                False
# Binning mode                        Uniform
# Binning factor                      1.0
# Psi                                 0.0
# Omega                               0.2499
# MaskInvalidPixels                   True
# DetectorEdge                        3
# MaskFiles                           ['WAXS_corrected.edf']
################################################################################
    q(A⁻¹)                Intensity(a.u.)            Sigma_I(a.u.)            
       0.693100             0.00413854837             0.00429911359           
       0.695741             0.00558338851             0.00407484924           
       0.698381              0.0129224904             0.00759361522           
       0.701021             0.00885787807             0.00888776395           
       0.703662             0.00564246956             0.00409450814           
       0.706302             0.00336043582             0.00244636967           
       0.708942              0.0174244402              0.0071899315           
       0.711583              0.0110365333             0.00495504347           
       0.714223             0.00586110897              0.0041688949           
       0.716864              0.0112642661             0.00378140578           
       0.719504              0.0088351739             0.00361390922           
       0.722144             0.00754291449             0.00309233188           
       0.724785             0.00964888756             0.00278988648           
       0.727425             0.00444169388             0.00256072104           
       0.730065             0.00807188844             0.00244183745           
       0.732706              0.0103653525             0.00232364595           
       0.735346             0.00878343065             0.00278826546           
       0.737987             0.00748295238             0.00181859332           
       0.740627             0.00389648918             0.00195804344           
       0.743267             0.00613386749             0.00164548883           
       0.745908             0.00571781633             0.00172365986           
       0.748548             0.00610322893             0.00164146162           
       0.751189             0.00563312886             0.00212491848           
       0.753829             0.00881309642              0.0024431875           
       0.756469             0.00439904205             0.00139189008           
       0.759110              0.0068066963             0.00182458712           
       0.761750             0.00804076253             0.00175349972           
       0.764390              0.0087510188             0.00191466085           
       0.767031             0.00623145637             0.00139912491           
       0.769671             0.00535413604             0.00161778591           
       0.772312             0.00680756455             0.00138874844           
       0.774952             0.00721086076             0.00193010516           
       0.777592             0.00792680368             0.00147398702           
       0.780233             0.00596459415             0.00154261954           
       0.782873             0.00836171192             0.00174686205           
       0.785513             0.00542920367              0.0015048141           
       0.788154             0.00726538026             0.00145622281           
       0.790794             0.00624621961             0.00161423334           
       0.793435             0.00433269402             0.00120777745           
       0.796075             0.00717165141             0.00149686852           
       0.798715             0.00782014602             0.00184711632           
       0.801356             0.00899898933             0.00170537384           
       0.803996             0.00668468572             0.00149849722           
       0.806637              0.0104203337             0.00148891011           
       0.809277             0.00847870776             0.00145369679           
       0.811917             0.00653586416             0.00119315854           
       0.814558             0.00704612362             0.00128757233           
       0.817198             0.00747500518             0.00125993254           
       0.819838             0.00931144106             0.00142318778           
       0.822479             0.00812335249             0.00156095544           
       0.825119             0.00780692923             0.00130243692           
       0.827760             0.00467963237              0.0010214457           
       0.830400             0.00903006431              0.0013354574           
       0.833040             0.00842861701             0.00135175019           
       0.835681             0.00585525721             0.00128081486           
       0.838321             0.00748831075             0.00121573527           
       0.840961             0.00699084769             0.00127984683           
       0.843602             0.00866681802             0.00130680743           
       0.846242              0.0090493994             0.00133514014           
       0.848883             0.00661381085             0.00116807206           
       0.851523              0.0068351161             0.00117270336           
       0.854163             0.00934216906             0.00145800245           
       0.856804             0.00718145211             0.00114938749           
       0.859444             0.00582151813             0.00101395551           
       0.862085             0.00728613988             0.00118228331           
       0.864725             0.00622464985             0.00111834119           
       0.867365             0.00741222736             0.00113163696           
       0.870006             0.00657220734              0.0010154213           
       0.872646             0.00774814714             0.00115615304           
       0.875286             0.00779662057             0.00111576466           
       0.877927             0.00711887643             0.00102880119           
       0.880567             0.00688080507             0.00104788502           
       0.883208             0.00655320376              0.0010130013           
       0.885848             0.00775000467              0.0011438192           
       0.888488             0.00827758427             0.00110874702           
       0.891129             0.00735319552             0.00107300292           
       0.893769             0.00731151162             0.00102397693           
       0.896410             0.00832540276             0.00101875177           
       0.899050             0.00602608495            0.000953166365           
       0.901690             0.00748630599              0.0011572538           
       0.904331              0.0073104659             0.00101384851           
       0.906971             0.00843842222             0.00115879218           
       0.909611             0.00712664526            0.000969419196           
       0.912252             0.00730829753             0.00101398918           
       0.914892              0.0080327524             0.00116169696           
       0.917533             0.00688250694             0.00101724005           
       0.920173              0.0072311509            0.000967408261           
       0.922813             0.00696284234            0.000996173957           
       0.925454             0.00924876015             0.00103384181           
       0.928094             0.00852555926             0.00105968297           
       0.930734              0.0054636173             0.00091329967           
       0.933375             0.00729947792             0.00104527016           
       0.936015              0.0077748192            0.000979751494           
       0.938656             0.00797751647             0.00106465455           
       0.941296             0.00747229812            0.000933817756           
       0.943936             0.00649384869            0.000853694263           
       0.946577              0.0081868305            0.000952200611           
       0.949217             0.00747538831             0.00083672357           
       0.951858             0.00625384974            0.000801129519           
       0.954498              0.0075653784             0.00101990264           
       0.957138             0.00789135731            0.000986814952           
       0.959779             0.00683119583            0.000905095927           
       0.962419             0.00769963557            0.000954515301           
       0.965059               0.009163557             0.00109518519           
       0.967700             0.00915888339             0.00112140089           
       0.970340             0.00794567779            0.000924272021           
       0.972981             0.00811300316            0.000850921055           
       0.975621             0.00808709338             0.00090378674           
       0.978261             0.00774109546            0.000840185028           
       0.980902             0.00926155023             0.00109953781           
       0.983542             0.00747580889            0.000874818474           
       0.986182             0.00760950273            0.000866537376           
       0.988823             0.00660692136            0.000784022877           
       0.991463             0.00803653783            0.000922540866           
       0.994104              0.0082753277            0.000913225114           
       0.996744             0.00838571902            0.000937674631           
       0.999384             0.00889255692              0.0008635656           
       1.002025              0.0081559979            0.000923073246           
       1.004665             0.00750844887            0.000809394271           
       1.007306             0.00873322934            0.000868447915           
       1.009946             0.00826232644             0.00086148579           
       1.012586             0.00861188877             0.00085660153           
       1.015227             0.00765099671            0.000867400176           
       1.017867             0.00827096698            0.000866748863           
       1.020507             0.00716177753            0.000781242948           
       1.023148             0.00773050991            0.000875814674           
       1.025788             0.00783358295             0.00080838893           
       1.028429             0.00695552733            0.000798044994           
       1.031069              0.0072982536            0.000769270691           
       1.033709             0.00878268548             0.00089705206           
       1.036350             0.00827308867            0.000781952314           
       1.038990             0.00696956698             0.00073089947           
       1.041630             0.00851349112            0.000842552767           
       1.044271             0.00721800327            0.000729615128           
       1.046911             0.00718064305            0.000765471182           
       1.049552             0.00729046062            0.000810350991           
       1.052192             0.00662302337            0.000705269167           
       1.054832             0.00948663232            0.000851756861           
       1.057473             0.00877944871            0.000807750325           
       1.060113             0.00701143936            0.000704000277           
       1.062754             0.00854103439            0.000793309613           
       1.065394             0.00798147962            0.000810793712           
       1.068034             0.00872289074            0.000771213868           
       1.070675             0.00914466646            0.000823690414           
       1.073315             0.00863395243            0.000811831222           
       1.075955             0.00891339398            0.000778718997           
       1.078596             0.00842689247            0.000804720654           
       1.081236             0.00958583592             0.00082185424           
       1.083877             0.00955845765             0.00081331773           
       1.086517             0.00970250046             0.00087866129           
       1.089157             0.00795986663            0.000825786069           
       1.091798             0.00913588183            0.000775620116           
       1.094438             0.00817610133            0.000731379831           
       1.097078               0.008975546            0.000734964579           
       1.099719             0.00731100091            0.000717484141           
       1.102359              0.0086522218            0.000730972497           
       1.105000             0.00856858616            0.000813409609           
       1.107640             0.00825955458            0.000763598005           
       1.110280             0.00875106803            0.000717155897           
       1.112921              0.0086814829            0.000767311503           
       1.115561             0.00766398614            0.000685197818           
       1.118202             0.00842321902            0.000719012917           
       1.120842             0.00867842522            0.000767049692           
       1.123482             0.00818668378            0.000741747441           
       1.126123             0.00760037026            0.000685510167           
       1.128763             0.00870787442             0.00073878846           
       1.131403             0.00918881732            0.000731280775           
       1.134044             0.00912906153            0.000750038951           
       1.136684               0.010089492            0.000840684888           
       1.139325             0.00819816522            0.000698088242           
       1.141965             0.00909442316            0.000740118382           
       1.144605             0.00991245775            0.000736760495           
       1.147246             0.00995772357            0.000755730293           
       1.149886             0.00809583992            0.000679005496           
       1.152527                0.01072423            0.000792858023           
       1.155167             0.00986822391            0.000723405704           
       1.157807             0.00896330787            0.000739202704           
       1.160448             0.00814898109            0.000688279253           
       1.163088             0.00984068283            0.000721451301           
       1.165728             0.00935400784            0.000722178951           
       1.168369             0.00883891986            0.000708499269           
       1.171009             0.00881798527            0.000686764589           
       1.173650             0.00821473545            0.000680249569           
       1.176290             0.00826988481            0.000666984104           
       1.178930             0.00987173778            0.000714215021           
       1.181571             0.00950609406            0.000714761521           
       1.184211             0.00988625884            0.000731498097           
       1.186851              0.0101203881            0.000723594086           
       1.189492              0.0105324157            0.000733210752           
       1.192132             0.00971077448            0.000696131728           
       1.194773              0.0096721465             0.00069778132           
       1.197413             0.00907703149             0.00064767855           
       1.200053             0.00996173312            0.000695747967           
       1.202694             0.00971058913            0.000653223302           
       1.205334              0.0093309388             0.00069007167           
       1.207975             0.00960903952            0.000668436694           
       1.210615             0.00892963999            0.000710852794           
       1.213255              0.0112926228             0.00071583765           
       1.215896             0.00978453922            0.000678400023           
       1.218536             0.00923935741            0.000633877253           
       1.221176             0.00847749865            0.000660130284           
       1.223817              0.0103914509              0.0006860702           
       1.226457             0.00837284017            0.000628245392           
       1.229098             0.00932071287            0.000662821088           
       1.231738             0.00956610785            0.000674794582           
       1.234378             0.00985550628            0.000643590575           
       1.237019               0.010625064            0.000688620569           
       1.239659              0.0112219726            0.000701534602           
       1.242299               0.010062833            0.000655875648           
       1.244940              0.0101838157            0.000641703263           
       1.247580              0.0107277516            0.000678759298           
       1.250221             0.00973967002            0.000642755059           
       1.252861              0.0105189788            0.000635915358           
       1.255501              0.0108324903            0.000700696679           
       1.258142              0.0104713421             0.00064736139           
       1.260782              0.0110646759            0.000679847787           
       1.263423             0.00944483936            0.000603548116           
       1.266063              0.0108052768             0.00066167432           
       1.268703             0.00978556475            0.000624453988           
       1.271344              0.0111132629            0.000688022959           
       1.273984              0.0100449316            0.000631748262           
       1.276624             0.00889768675            0.000583408322           
       1.279265              0.0105071578            0.000644509913           
       1.281905             0.00852304979            0.000583052534           
       1.284546              0.0114731811            0.000653874957           
       1.287186              0.0106080066            0.000616858638           
       1.289826              0.0105562235            0.000648529778           
       1.292467              0.0107130406            0.000638938996           
       1.295107              0.0119495861            0.000668103543           
       1.297747               0.011624288            0.000630557606           
       1.300388              0.0118961313            0.000695378495           
       1.303028              0.0107043677            0.000629720203           
       1.305669               0.010786535            0.000647184118           
       1.308309              0.0113840871             0.00065832144           
       1.310949              0.0113022487             0.00065529168           
       1.313590              0.0115371837            0.000641371805           
       1.316230             0.00995833691            0.000635878737           
       1.318871              0.0107181135            0.000646085608           
       1.321511              0.0110664647            0.000644332499           
       1.324151                0.01136243            0.000633535934           
       1.326792              0.0100810691            0.000600434523           
       1.329432              0.0110220038            0.000623400349           
       1.332072              0.0107591501            0.000606742918           
       1.334713              0.0112043365            0.000639043268           
       1.337353              0.0115442271            0.000622081467           
       1.339994               0.011867505            0.000661889913           
       1.342634              0.0122146086            0.000643926047           
       1.345274              0.0108896061            0.000629221013           
       1.347915              0.0107818778            0.000608811209           
       1.350555              0.0107863884            0.000619603399           
       1.353195              0.0101449146              0.0006038482           
       1.355836              0.0108204635            0.000613904972           
       1.358476              0.0114230654            0.000612571349           
       1.361117              0.0115836038            0.000617707549           
       1.363757              0.0116367161            0.000638026678           
       1.366397              0.0116758482            0.000619758663           
       1.369038              0.0110311658            0.000608404018           
       1.371678              0.0113594964            0.000611948909           
       1.374319               0.011453617             0.00060918768           
       1.376959              0.0117169837             0.00060995541           
       1.379599              0.0111331405            0.000637193159           
       1.382240              0.0115783763            0.000610723432           
       1.384880              0.0116884478            0.000649962511           
       1.387520              0.0110924086            0.000601344529           
       1.390161              0.0112824786            0.000576005281           
       1.392801              0.0107155881            0.000584870248           
       1.395442               0.011223998            0.000606759578           
       1.398082               0.011897976            0.000585014957           
       1.400722              0.0120188223            0.000615893887           
       1.403363              0.0111065837            0.000623214313           
       1.406003              0.0107054766            0.000572616291           
       1.408644              0.0114956176            0.000621595469           
       1.411284              0.0116956075            0.000593693599           
       1.413924              0.0116790989            0.000591075022           
       1.416565              0.0113651398            0.000580785828           
       1.419205              0.0114613747             0.00060841193           
       1.421845               0.011221555            0.000601659533           
       1.424486              0.0114948053            0.000585332107           
       1.427126              0.0109190276             0.00059262262           
       1.429767              0.0109072977             0.00055728627           
       1.432407                0.01146696            0.000597988508           
       1.435047              0.0119572657            0.000573491494           
       1.437688              0.0116827399            0.000575345595           
       1.440328              0.0101462547            0.000547230248           
       1.442968              0.0111133423            0.000585548356           
       1.445609              0.0117578512            0.000583182064           
       1.448249              0.0112139311              0.0005839535           
       1.450890              0.0107429137            0.000567827539           
       1.453530              0.0113534875            0.000610710289           
       1.456170              0.0117473942            0.000602902941           
       1.458811              0.0112296661            0.000563661601           
       1.461451              0.0119399247            0.000582738341           
       1.464092              0.0112365053            0.000569008204           
       1.466732               0.011127793            0.000561383037           
       1.469372              0.0101978607            0.000524837259           
       1.472013              0.0104893085            0.000574079115           
       1.474653              0.0103877532            0.000562480373           
       1.477293              0.0113296864            0.000599810215           
       1.479934              0.0115974121            0.000579067144           
       1.482574              0.0114455925            0.000556478455           
       1.485215              0.0107156423            0.000548469835           
       1.487855              0.0110665513            0.000564730699           
       1.490495              0.0112026489            0.000566100041           
       1.493136              0.0110604046            0.000554784519           
       1.495776                0.01135395            0.000559538936           
       1.498416              0.0100256284            0.000542992733           
       1.501057              0.0121435103            0.000584429446           
       1.503697              0.0104004944            0.000528779473           
       1.506338              0.0110322442            0.000554554164           
       1.508978                0.01070637            0.000540929965           
       1.511618              0.0118051128            0.000604926492           
       1.514259             0.00982488074            0.000532797752           
       1.516899              0.0106878079            0.000541070908           
       1.519540              0.0105527845            0.000546312143           
       1.522180              0.0101183201            0.000539647191           
       1.524820              0.0100904901            0.000535881035           
       1.527461              0.0109728604            0.000561584056           
       1.530101              0.0102335373            0.000536911191           
       1.532741              0.0107239337            0.000546435507           
       1.535382              0.0100640299            0.000537877946           
       1.538022              0.0108241565            0.000525496852           
       1.540663              0.0106852409            0.000561565731           
       1.543303             0.00986219935            0.000500939024           
       1.545943               0.010609575            0.000549930157           
       1.548584              0.0102219903            0.000549481387           
       1.551224              0.0101154939            0.000505394032           
       1.553864              0.0115241192            0.000570015598           
       1.556505              0.0100939111            0.000515348923           
       1.559145              0.0115240497            0.000557393552           
       1.561786              0.0108849104            0.000542133387           
       1.564426             0.00995792442            0.000502406493           
       1.567066              0.0106295563             0.00054388879           
       1.569707              0.0110815526            0.000545356676           
       1.572347             0.00997342287            0.000534496414           
       1.574988             0.00959634194            0.000499040726           
       1.577628             0.00933065965            0.000513122353           
       1.580268              0.0105012609            0.000527425989           
       1.582909              0.0104838735             0.00055858756           
       1.585549              0.0100397605            0.000530758531           
       1.588189             0.00857891056            0.000479918805           
       1.590830              0.0099793762            0.000516961221           
       1.593470               0.010409216            0.000548883064           
       1.596111              0.0100593499            0.000526797622           
       1.598751              0.0102835568            0.000516106441           
       1.601391             0.00892473165            0.000491408598           
       1.604032             0.00946766383            0.000516716087           
       1.606672             0.00923956949            0.000495954321           
       1.609312              0.0106971718            0.000557060213           
       1.611953             0.00961013086            0.000516678991           
       1.614593             0.00925173674            0.000497280844           
       1.617234             0.00945978978            0.000521132906           
       1.619874             0.00963768719            0.000523932327           
       1.622514             0.00938396899            0.000509937403           
       1.625155               0.009561622            0.000517782557           
       1.627795               0.010314431            0.000524602967           
       1.630436             0.00989282397            0.000511086681           
       1.633076             0.00942045535            0.000505276718           
       1.635716              0.0102194552            0.000518080014           
       1.638357             0.00988193308            0.000510795601           
       1.640997             0.00938530772            0.000512874129           
       1.643637             0.00923360754            0.000495034408           
       1.646278             0.00963821376            0.000521655208           
       1.648918             0.00957786939            0.000521438196           
       1.651559              0.0105597501            0.000551763489           
       1.654199             0.00942119233            0.000506883214           
       1.656839             0.00936807312            0.000505628658           
       1.659480             0.00881013982            0.000508753914           
       1.662120             0.00982423738            0.000505988601           
       1.664761             0.00891297897            0.000500622533           
       1.667401             0.00863099435            0.000470858029           
       1.670041             0.00929508811            0.000496087578           
       1.672682             0.00905564498            0.000487643666           
       1.675322             0.00964636153            0.000500060925           
       1.677962             0.00872117724            0.000470231008           
       1.680603              0.0100846721            0.000507211367           
       1.683243             0.00958459684            0.000515893244           
       1.685884              0.0091230436            0.000507035206           
       1.688524             0.00900436107            0.000493989275           
       1.691164              0.0088963975            0.000491130292           
       1.693805             0.00820708603             0.00047690185           
       1.696445             0.00972446117            0.000522130697           
       1.699085             0.00836133356             0.00046793167           
       1.701726             0.00806732072            0.000442774247           
       1.704366             0.00915375614             0.00049686751           
       1.707007             0.00994729448            0.000506410842           
       1.709647             0.00835052821            0.000469228648           
       1.712287             0.00893038183            0.000489470371           
       1.714928             0.00892335977            0.000493222744           
       1.717568             0.00823643683            0.000446376489           
       1.720209               0.008725698            0.000481234758           
       1.722849             0.00907552196            0.000488263425           
       1.725489             0.00983853299            0.000508801146           
       1.728130             0.00813849541            0.000491783247           
       1.730770             0.00904953318            0.000492510488           
       1.733410             0.00883029048             0.00047886046           
       1.736051              0.0090522759            0.000488216878           
       1.738691             0.00839160999            0.000460534719           
       1.741332             0.00845785964            0.000475868437           
       1.743972             0.00788252791            0.000474406802           
       1.746612             0.00866224654            0.000477551227           
       1.749253             0.00856831579            0.000484334554           
       1.751893              0.0083357989            0.000474211171           
       1.754533             0.00801226484            0.000464483237           
       1.757174             0.00940617529            0.000498554709           
       1.759814             0.00888324582            0.000477154104           
       1.762455             0.00847469148            0.000474610133           
       1.765095             0.00780094473            0.000435600964           
       1.767735             0.00814064627            0.000458712043           
       1.770376             0.00872197879            0.000476059927           
       1.773016             0.00853384502            0.000467743413           
       1.775657             0.00851605068            0.000460532332           
       1.778297             0.00854380791             0.00045731021           
       1.780937             0.00815113759            0.000471468151           
       1.783578             0.00780106905            0.000449700155           
       1.786218             0.00937398744            0.000514453523           
       1.788858             0.00847963063            0.000464713955           
       1.791499             0.00894872589            0.000472033394           
       1.794139             0.00908818456            0.000471837883           
       1.796780             0.00906039402            0.000468844714           
       1.799420               0.009059156            0.000466216512           
       1.802060             0.00941909525            0.000479228029           
       1.804701              0.0087559282            0.000443403938           
       1.807341             0.00957445756            0.000487212438           
       1.809981              0.0101068359            0.000502243623           
       1.812622             0.00835600375            0.000448452234           
       1.815262             0.00918443454            0.000480144421           
       1.817903             0.00962219958            0.000484172167           
       1.820543             0.00899743965            0.000475485432           
       1.823183             0.00812608679            0.000451626746           
       1.825824             0.00916041364            0.000458103164           
       1.828464             0.00862607483            0.000463453785           
       1.831105             0.00814201878            0.000437813798           
       1.833745             0.00836808891            0.000453329618           
       1.836385             0.00837605478            0.000466488815           
       1.839026             0.00823110877            0.000460973911           
       1.841666             0.00821515382            0.000458893929           
       1.844306              0.0084381183            0.000452389652           
       1.846947             0.00887115343             0.00046791851           
       1.849587             0.00824177507            0.000498029404           
       1.852228             0.00818978142            0.000448919249           
       1.854868             0.00800728685            0.000468903492           
       1.857508             0.00779635574            0.000458148275           
       1.860149             0.00797775396            0.000471867687           
       1.862789             0.00884469304            0.000479570744           
       1.865429              0.0088330376            0.000500268532           
       1.868070             0.00816527109            0.000474576409           
       1.870710             0.00805750896            0.000460565646           
       1.873351             0.00841337001            0.000476444253           
       1.875991              0.0079657791            0.000471163662           
       1.878631             0.00762387732            0.000452113242           
       1.881272              0.0087972743            0.000482407062           
       1.883912             0.00841386088            0.000490983193           
       1.886553              0.0084688793            0.000487078735           
       1.889193             0.00857621657              0.0004893182           
       1.891833             0.00821043915            0.000497221045           
       1.894474              0.0078686599            0.000482522825           
       1.897114             0.00788749251            0.000467485696           
       1.899754             0.00744882354            0.000456200779           
       1.902395             0.00786130249             0.00045949877           
       1.905035             0.00864878572            0.000510480736           
       1.907676             0.00810518638            0.000465764096           
       1.910316             0.00735596386            0.000455496587           
       1.912956             0.00814785042             0.00046884108           
       1.915597             0.00833604837            0.000476875162           
       1.918237             0.00806143005            0.000484315811           
       1.920878             0.00781692338            0.000474962184           
       1.923518             0.00834153049            0.000490849334           
       1.926158             0.00770289964            0.000465564606           
       1.928799             0.00797058508            0.000468103121           
       1.931439             0.00783759826            0.000476356625           
       1.934079              0.0085861053            0.000519762125           
       1.936720             0.00818223923             0.00047011234           
       1.939360             0.00743963765            0.000478243542           
       1.942001              0.0080247531            0.000455245655           
       1.944641              0.0076181422            0.000452299357           
       1.947281               0.007635918            0.000448652807           
       1.949922             0.00778093041            0.000467798321           
       1.952562             0.00639094802            0.000437249947           
       1.955202             0.00885769605            0.000514135742           
       1.957843             0.00740554927            0.000457915065           
       1.960483               0.007976499             0.00049686217           
       1.963124              0.0075868175            0.000474632196           
       1.965764             0.00783920961            0.000454975602           
       1.968404             0.00812925695            0.000458938513           
       1.971045               0.007782101            0.000457811965           
       1.973685             0.00782547538            0.000481546969           
       1.976326             0.00869504815            0.000500620998           
       1.978966             0.00723645502            0.000460713222           
       1.981606             0.00815972395            0.000499424461           
       1.984247             0.00718051292            0.000465420071           
       1.986887             0.00697400471            0.000453184179           
       1.989527             0.00818972695            0.000485809364           
       1.992168              0.0077802375            0.000491304994           
       1.994808             0.00752971392             0.00048125843           
       1.997449             0.00745884013            0.000469151388           
       2.000089             0.00799668604            0.000483845963           
       2.002729             0.00775771562            0.000476847292           
       2.005370              0.0078548407            0.000474660276           
       2.008010             0.00836515854            0.000511214769           
       2.010650             0.00802363249            0.000504406206           
       2.013291             0.00749485349            0.000467731271           
       2.015931             0.00839743124            0.000491594682           
       2.018572             0.00742474668             0.00049441764           
       2.021212             0.00729774033            0.000481363928           
       2.023852             0.00891939795            0.000503670035           
       2.026493             0.00788235805            0.000494639547           
       2.029133             0.00767660338            0.000478317657           
       2.031774             0.00736690454            0.000491753693           
       2.034414             0.00765046308            0.000461107695           
       2.037054             0.00849309183            0.000498152327           
       2.039695              0.0071044845            0.000452171362           
       2.042335             0.00729327819            0.000476107977           
       2.044975              0.0086274239            0.000511547112           
       2.047616             0.00724667438            0.000467664372           
       2.050256             0.00793104134             0.00049387912           
       2.052897             0.00758953913            0.000492035938           
       2.055537             0.00798352042             0.00048772062           
       2.058177             0.00690735079            0.000444254615           
       2.060818             0.00829778311            0.000510085966           
       2.063458             0.00737389649            0.000501094887           
       2.066098              0.0079874393            0.000491972899           
       2.068739             0.00758659206            0.000486922115           
       2.071379             0.00831597478            0.000523087177           
       2.074020             0.00833561079            0.000512322827           
       2.076660             0.00751519153             0.00049039013           
       2.079300             0.00714234482            0.000489784362           
       2.081941             0.00694751822            0.000442294706           
       2.084581             0.00749342531            0.000484841001           
       2.087222             0.00738640847            0.000464231924           
       2.089862             0.00775033157              0.0005179254           
       2.092502             0.00858688869            0.000528456014           
       2.095143             0.00840006198            0.000539740664           
       2.097783             0.00666520003            0.000465480353           
       2.100423             0.00691245604            0.000456776928           
       2.103064             0.00662751934            0.000464095999           
       2.105704             0.00768650944             0.00049732511           
       2.108345             0.00665016835            0.000444421082           
       2.110985             0.00772414946            0.000511569148           
       2.113625             0.00768857293            0.000514843565           
       2.116266             0.00780943169            0.000526235872           
       2.118906             0.00767678914            0.000486239622           
       2.121546             0.00757315087            0.000473725369           
       2.124187             0.00769703142            0.000501315932           
       2.126827             0.00854722664            0.000534173928           
       2.129468             0.00846402129             0.00053292534           
       2.132108             0.00727621133            0.000480739184           
       2.134748             0.00670364919            0.000459646824           
       2.137389             0.00806016543            0.000525809376           
       2.140029             0.00732800758             0.00044884768           
       2.142670             0.00693852811            0.000466771436           
       2.145310             0.00665970639            0.000445095142           
       2.147950             0.00762662243             0.00049025475           
       2.150591              0.0068880535            0.000461203513           
       2.153231             0.00710916489            0.000482296827           
       2.155871             0.00787212576            0.000490295771           
       2.158512             0.00681309688            0.000475934687           
       2.161152             0.00840361314            0.000512012471           
       2.163793             0.00755299793            0.000483223039           
       2.166433             0.00714052266            0.000482479475           
       2.169073             0.00836209129            0.000510496969           
       2.171714             0.00721132672            0.000470526999           
       2.174354             0.00684359825            0.000478957651           
       2.176995             0.00714595779            0.000487364423           
       2.179635             0.00837593499            0.000557568455           
       2.182275             0.00753197899            0.000499207482           
       2.184916             0.00716298576            0.000470210485           
       2.187556             0.00729592155            0.000469797297           
       2.190196             0.00819585737             0.00052032935           
       2.192837             0.00715553337            0.000483540399           
       2.195477             0.00744447228            0.000470213738           
       2.198118             0.00767502294             0.00048967302           
       2.200758             0.00770987322             0.00050351408           
       2.203398             0.00685765336            0.000477909047           
       2.206039              0.0070664242            0.000459133637           
       2.208679             0.00743804594            0.000482014506           
       2.211319             0.00691610092             0.00046747489           
       2.213960             0.00692323684            0.000473982607           
       2.216600             0.00828204148            0.000536287463           
       2.219241             0.00749862745            0.000487702469           
       2.221881              0.0073918482            0.000485213196           
       2.224521             0.00754043055            0.000496070717           
       2.227162             0.00793151902            0.000498585774           
       2.229802             0.00730527948            0.000493476876           
       2.232443             0.00680356519            0.000468718376           
       2.235083             0.00701892578            0.000490122035           
       2.237723             0.00667329971            0.000458616744           
       2.240364             0.00738113772            0.000494209112           
       2.243004             0.00847401914            0.000525306948           
       2.245644             0.00738439523            0.000495280603           
       2.248285             0.00632813323            0.000449306943           
       2.250925             0.00706994942            0.000477797267           
       2.253566              0.0069300634            0.000505723245           
       2.256206             0.00688131472            0.000493865038           
       2.258846             0.00738196808            0.000486592571           
       2.261487             0.00721582838             0.00050494412           
       2.264127             0.00755765091            0.000499084083           
       2.266767             0.00865824245            0.000548421556           
       2.269408             0.00683062884            0.000489108042           
       2.272048             0.00736908299               0.000504988           
       2.274689             0.00721085308            0.000506119059           
       2.277329             0.00710849507            0.000473149355           
       2.279969             0.00760424315            0.000520906429           
       2.282610             0.00761806103            0.000506878506           
       2.285250             0.00695029719            0.000463400972           
       2.287891             0.00810137609            0.000536402261           
       2.290531             0.00703611725            0.000506613701           
       2.293171             0.00685500688            0.000487094941           
       2.295812             0.00745039027             0.00050576637           
       2.298452             0.00671359844            0.000502064427           
       2.301092             0.00678094194            0.000468813312           
       2.303733             0.00792926044            0.000527412546           
       2.306373             0.00796892294            0.000537056677           
       2.309014             0.00670648021            0.000483071926           
       2.311654             0.00720779178            0.000522610097           
       2.314294             0.00756010006            0.000493109378           
       2.316935             0.00768945386             0.00049936465           
       2.319575             0.00758625628            0.000519695745           
       2.322215             0.00597644315            0.000480722972           
       2.324856             0.00746055379            0.000493812137           
       2.327496             0.00672766602            0.000498620325           
       2.330137             0.00782351581            0.000514537148           
       2.332777             0.00744300586            0.000517479924           
       2.335417             0.00606953589            0.000453352213           
       2.338058             0.00769400011             0.00052567512           
       2.340698             0.00759771198            0.000518270389           
       2.343339               0.007979557            0.000542822439           
       2.345979             0.00736861125             0.00049350195           
       2.348619             0.00794611878            0.000531208888           
       2.351260             0.00782090282            0.000523936369           
       2.353900             0.00740796582              0.0005083018           
       2.356540             0.00667154194            0.000481690791           
       2.359181             0.00733739999            0.000498074901           
       2.361821             0.00716180615             0.00047533521           
       2.364462             0.00642794946            0.000470982384           
       2.367102             0.00677433766            0.000496879744           
       2.369742             0.00766448752            0.000556301251           
       2.372383             0.00655440652            0.000465824616           
       2.375023             0.00728224267            0.000516155512           
       2.377663             0.00612115378             0.00045246942           
       2.380304             0.00653108035            0.000475167505           
       2.382944             0.00763034785            0.000489189291           
       2.385585             0.00723651934            0.000508086334           
       2.388225             0.00708293723            0.000500303806           
       2.390865             0.00661440205            0.000478506851           
       2.393506             0.00686294069            0.000478218352           
       2.396146             0.00721577548             0.00053019641           
       2.398787             0.00661829373            0.000467950814           
       2.401427             0.00671484957            0.000454963324           
       2.404067             0.00690615385            0.000471690476           
       2.406708             0.00723412039            0.000476971547           
       2.409348             0.00731369055            0.000508696412           
       2.411988             0.00657945734            0.000472730314           
       2.414629              0.0070841095            0.000505801717           
       2.417269             0.00615897199            0.000477125816           
       2.419910             0.00643815881            0.000488952011           
       2.422550              0.0072765681             0.00049732681           
       2.425190             0.00729413918            0.000524866956           
       2.427831             0.00792543027            0.000544033226           
       2.430471             0.00676008184            0.000478677513           
       2.433112             0.00748326235            0.000490416636           
       2.435752             0.00651622459            0.000484319033           
       2.438392             0.00757421348            0.000503989576           
       2.441033             0.00655198681            0.000496778503           
       2.443673             0.00738886199            0.000527957317           
       2.446313             0.00714024736            0.000519456769           
       2.448954             0.00684808985            0.000484371095           
       2.451594             0.00751788976            0.000545687904           
       2.454235             0.00676146924            0.000485554433           
       2.456875             0.00810814443            0.000556363454           
       2.459515             0.00779133251             0.00055950426           
       2.462156             0.00730327715            0.000511437396           
       2.464796             0.00803568564            0.000529548185           
       2.467436             0.00779726524            0.000539429924           
       2.470077             0.00801163282            0.000518262252           
       2.472717             0.00726469127            0.000495649702           
       2.475358             0.00727602311            0.000501208322           
       2.477998             0.00770647683            0.000507125179           
       2.480638             0.00829219692            0.000535391274           
       2.483279             0.00751263818            0.000532617286           
       2.485919             0.00722249674            0.000503289027           
       2.488560             0.00672442505            0.000484268453           
       2.491200             0.00758669487            0.000529676478           
       2.493840             0.00749393279             0.00055703014           
       2.496481             0.00796163681            0.000564757653           
       2.499121             0.00658661726            0.000499635264           
       2.501761             0.00634077655            0.000496717536           
       2.504402              0.0070687593            0.000516794687           
       2.507042             0.00703067908             0.00051158274           
       2.509683             0.00648990618            0.000484002574           
       2.512323             0.00683553416             0.00052168306           
       2.514963             0.00803384534            0.000558577377           
       2.517604              0.0058526663            0.000494710316           
       2.520244             0.00687079687            0.000502515848           
       2.522884             0.00744575658            0.000530600257           
       2.525525              0.0076525237            0.000544022603           
       2.528165             0.00802018249            0.000548256466           
       2.530806             0.00907444176            0.000593343565           
       2.533446             0.00869574705             0.00056843347           
       2.536086               0.007009405            0.000505780602           
       2.538727             0.00728862307            0.000494789541           
       2.541367             0.00677778806            0.000481835542           
       2.544008             0.00781136791            0.000534214987           
       2.546648             0.00699791788             0.00051430778           
       2.549288             0.00734806339            0.000537756024           
       2.551929             0.00757637582            0.000537342388           
       2.554569             0.00735427076            0.000510039891           
       2.557209             0.00665926031             0.00048979866           
       2.559850             0.00666092725            0.000491433003           
       2.562490             0.00687948221            0.000516187987           
       2.565131             0.00649888835            0.000520191683           
       2.567771             0.00866905499            0.000579261167           
       2.570411             0.00666087876            0.000502261265           
       2.573052             0.00702832092            0.000522426135           
       2.575692             0.00686354834            0.000513139666           
       2.578332              0.0068005648            0.000512892026           
       2.580973             0.00661242309             0.00050093551           
       2.583613             0.00614359075            0.000471353328           
       2.586254             0.00754566437            0.000521651181           
       2.588894             0.00742480697            0.000537354112           
       2.591534             0.00642268987            0.000517363218           
       2.594175             0.00640711548            0.000506984478           
       2.596815             0.00632821732            0.000506824112           
       2.599456             0.00807617612            0.000542954066           
       2.602096              0.0066300605            0.000495691591           
       2.604736             0.00659434019            0.000506076713           
       2.607377             0.00679559364            0.000500202423           
       2.610017             0.00636342473            0.000475565415           
       2.612657              0.0071644128            0.000536727904           
       2.615298             0.00581935576            0.000472270813           
       2.617938             0.00667292032            0.000540993018           
       2.620579             0.00706031208            0.000534210343           
       2.623219             0.00762118941            0.000554232774           
       2.625859             0.00647868212            0.000496839063           
       2.628500             0.00624208911            0.000484486167           
       2.631140             0.00723793278            0.000529741967           
       2.633780             0.00875843435            0.000582227402           
       2.636421             0.00681943055            0.000526386061           
       2.639061             0.00784479161            0.000531481721           
       2.641702             0.00787633145            0.000544877895           
       2.644342              0.0076821465            0.000540412114           
       2.646982             0.00701095157            0.000508546469           
       2.649623             0.00739975062            0.000547514146           
       2.652263             0.00725199823            0.000536581265           
       2.654904             0.00680278141            0.000520219483           
       2.657544             0.00725902227            0.000506157292           
       2.660184             0.00731368596            0.000537674912           
       2.662825             0.00669148306            0.000526227176           
       2.665465              0.0064638465             0.00050021653           
       2.668105              0.0070085183             0.00054901225           
       2.670746             0.00642476022            0.000485589312           
       2.673386             0.00858478309            0.000578478338           
       2.676027             0.00903789891            0.000584022424           
       2.678667             0.00858628573            0.000555439828           
       2.681307              0.0107117054            0.000609566875           
       2.683948              0.0134869624               0.000702767           
       2.686588              0.0119472212            0.000650466879           
       2.689229               0.010115759            0.000584865564           
       2.691869             0.00799976853             0.00054970496           
       2.694509             0.00955349131            0.000601049964           
       2.697150             0.00614251863            0.000474131688           
       2.699790              0.0086090142            0.000588452455           
       2.702430             0.00750169948            0.000525070692           
       2.705071             0.00784225636            0.000554740192           
       2.707711             0.00683898357            0.000502798495           
       2.710352              0.0064347202            0.000515328272           
       2.712992             0.00736975796            0.000561697548           
       2.715632             0.00691975338            0.000504982517           
       2.718273             0.00664197914            0.000512734688           
       2.720913             0.00616176986            0.000492446678           
       2.723553               0.007747517             0.00055589391           
       2.726194              0.0067054119            0.000540600738           
       2.728834             0.00768275861            0.000578930203           
       2.731475              0.0081140047            0.000549092715           
       2.734115             0.00783997325            0.000556492012           
       2.736755             0.00707651055            0.000533053972           
       2.739396             0.00693030429            0.000524462214           
       2.742036             0.00738510778            0.000566607152           
       2.744677             0.00687493869            0.000530436239           
       2.747317             0.00700713513            0.000531693176           
       2.749957             0.00576023447            0.000485453996           
       2.752598             0.00616809953            0.000507798598           
       2.755238             0.00731867365            0.000563121454           
       2.757878             0.00796207094            0.000582217246           
       2.760519             0.00673057343            0.000529625107           
       2.763159             0.00733752719            0.000547463983           
       2.765800             0.00764273943            0.000532464931           
       2.768440             0.00835691688            0.000560889352           
       2.771080             0.00710308351            0.000521419981           
       2.773721             0.00809447524            0.000570978362           
       2.776361             0.00748688517             0.00055670671           
       2.779001             0.00641848593            0.000533807613           
       2.781642             0.00685735429            0.000547689445           
       2.784282             0.00631510969            0.000534232075           
       2.786923             0.00657809032            0.000550042897           
       2.789563             0.00703056576            0.000547672626           
       2.792203             0.00614763397            0.000489230034           
       2.794844             0.00657001512            0.000554301911           
       2.797484              0.0061859653            0.000507605908           
       2.800125             0.00671150109            0.000555958255           
       2.802765              0.0071487041             0.00056390983           
       2.805405              0.0071074743            0.000564184421           
       2.808046              0.0069018869            0.000565738479           
       2.810686              0.0076261749            0.000546444089           
       2.813326             0.00726071027            0.000553837143           
       2.815967             0.00642306966            0.000535722387           
       2.818607              0.0062119477            0.000502753994           
       2.821248             0.00741171998            0.000537761696           
       2.823888             0.00700284756            0.000542594837           
       2.826528             0.00770936452             0.00055134708           
       2.829169             0.00631189574            0.000522548361           
       2.831809             0.00603710496            0.000517998473           
       2.834449             0.00706765404            0.000564011209           
       2.837090             0.00700263749            0.000542233985           
       2.839730             0.00581673853            0.000491779107           
       2.842371              0.0073393622            0.000553204629           
       2.845011             0.00719311527            0.000552030645           
       2.847651             0.00744070039            0.000562140193           
       2.850292              0.0065770955            0.000533698828           
       2.852932             0.00659674005            0.000546143701           
       2.855573             0.00744112938            0.000562659985           
       2.858213             0.00793088354            0.000609995803           
       2.860853             0.00607051353            0.000496442547           
       2.863494             0.00640944647            0.000528151021           
       2.866134             0.00595424427            0.000529095281           
       2.868774             0.00658364068            0.000546784975           
       2.871415             0.00726690474            0.000583405971           
       2.874055              0.0057845961            0.000497546936           
       2.876696             0.00704554664             0.00056395685           
       2.879336             0.00653236068            0.000523376256           
       2.881976             0.00676374613            0.000549304039           
       2.884617             0.00731157481            0.000562728655           
       2.887257             0.00730528115            0.000565389718           
       2.889897             0.00709734868            0.000545815722           
       2.892538             0.00628449798            0.000562661362           
       2.895178             0.00703368308            0.000537773407           
       2.897819             0.00739671016            0.000562559008           
       2.900459             0.00777292298            0.000565469661           
       2.903099             0.00700405712            0.000531280116           
       2.905740             0.00673748198            0.000534553033           
       2.908380             0.00671831158            0.000539857114           
       2.911021             0.00700147606            0.000560076956           
       2.913661             0.00743325562            0.000576915626           
       2.916301             0.00770891692            0.000588075944           
       2.918942              0.0069249922            0.000533141533           
       2.921582             0.00547893816            0.000496172117           
       2.924222             0.00598496525            0.000502403369           
       2.926863             0.00752369175            0.000586738552           
       2.929503             0.00810669313            0.000616262907           
       2.932144             0.00642219195            0.000526537574           
       2.934784             0.00714972256             0.00054645211           
       2.937424             0.00716246755            0.000552554257           
       2.940065             0.00675705476            0.000511950152           
       2.942705              0.0068524079            0.000514902924           
       2.945346             0.00658854532            0.000535818232           
       2.947986             0.00716754941            0.000569850412           
       2.950626             0.00671713276            0.000548548893           
       2.953267             0.00720344895            0.000558880908           
       2.955907             0.00722468626            0.000580616137           
       2.958547             0.00736156754            0.000553299596           
       2.961188             0.00807382679            0.000604526676           
       2.963828             0.00688366664            0.000546017556           
       2.966469             0.00679564529            0.000532205695           
       2.969109             0.00747814177            0.000566563439           
       2.971749             0.00677975073            0.000536093816           
       2.974390             0.00847439498              0.0005889816           
       2.977030             0.00706567588            0.000549823221           
       2.979670             0.00782001244            0.000562633428           
       2.982311             0.00782179312            0.000583207626           
       2.984951             0.00708171275            0.000527788445           
       2.987592               0.007430514            0.000551458386           
       2.990232             0.00762491432            0.000580964562           
       2.992872             0.00910025187            0.000597838268           
       2.995513              0.0100051843             0.00061327399           
       2.998153              0.0105231066            0.000639514014           
       3.000794               0.010191435            0.000609595059           
       3.003434             0.00891971532            0.000571155684           
       3.006074              0.0116099063            0.000642485402           
       3.008715              0.0307271842             0.00100897104           
       3.011355               0.221401411             0.00261174066           
       3.013995               0.328356797              0.0031892816           
       3.016636               0.304350687             0.00300673246           
       3.019276               0.189528635              0.0023323278           
       3.021917               0.657864408             0.00417822244           
       3.024557               0.936135569             0.00490030051           
       3.027197                0.93868603             0.00478403873           
       3.029838                1.03146083             0.00508601783           
       3.032478                0.28608808             0.00268128357           
       3.035118              0.0789862139             0.00142776358           
       3.037759              0.0583453792             0.00122552786           
       3.040399              0.0747805301             0.00143117908           
       3.043040               0.186667196             0.00228888861           
       3.045680               0.209130446             0.00227941522           
       3.048320               0.189673334             0.00221801826           
       3.050961               0.256755332             0.00262607695           
       3.053601               0.156235866             0.00197296346           
       3.056242               0.230993008             0.00255063401           
       3.058882               0.497139374             0.00401390723           
       3.061522               0.432524903             0.00367329315           
       3.064163               0.321220333             0.00312570518           
       3.066803               0.126910166             0.00206839871           
       3.069443               0.119595252             0.00210078232           
       3.072084              0.0629400009             0.00148397774           
       3.074724              0.0156743367            0.000827033268           
       3.077365              0.0117361974            0.000740808029           
       3.080005              0.0123082086            0.000762945264           
       3.082645               0.034169811             0.00133543564           
       3.085286               0.016935005            0.000947561327           
       3.087926             0.00932259426            0.000697626407           
       3.090566              0.0114988763            0.000759141541           
       3.093207             0.00905763635            0.000701112598           
       3.095847              0.0100970871            0.000709518219           
       3.098488             0.00847006127            0.000720565215           
       3.101128              0.0104330427            0.000804858527           
       3.103768              0.0104027911            0.000788570526           
       3.106409              0.0103588147            0.000837475367           
       3.109049             0.00940699086            0.000765870698           
       3.111690             0.00787968082             0.00068891271           
       3.114330             0.00778513889            0.000699334641           
       3.116970             0.00688197763            0.000662567134           
       3.119611              0.0082491314            0.000772140134           
       3.122251              0.0125786078            0.000997364547           
       3.124891              0.0314168785             0.00159091054           
       3.127532              0.0266213208             0.00143267321           
       3.130172              0.0210294507             0.00129534828           
       3.132813              0.0109339448            0.000919520746           
       3.135453             0.00675312682            0.000716693331           
       3.138093             0.00668118587            0.000772415153           
       3.140734             0.00585013606            0.000666821523           
       3.143374             0.00791190637            0.000820097578           
       3.146014             0.00650100277            0.000800290324           
       3.148655             0.00677620037            0.000759526912           
       3.151295             0.00599234044            0.000761141581           
       3.153936             0.00557882318            0.000709417791           
       3.156576             0.00720148208            0.000795048981           
       3.159216             0.00648026227            0.000757959628           
       3.161857             0.00621835124            0.000739462777           
       3.164497             0.00737783362            0.000846304703           
       3.167138             0.00494864202            0.000716157034           
       3.169778             0.00638615365            0.000800134724           
       3.172418             0.00696547548            0.000827139426           
       3.175059             0.00640113857            0.000702961323           
       3.177699             0.00812522609            0.000838671132           
       3.180339             0.00715570976            0.000843259167           
       3.182980             0.00603409499            0.000800605634           
       3.185620             0.00716634541            0.000888558799           
       3.188261             0.00660436239             0.00086822954           
       3.190901              0.0046202236            0.000667884566           
       3.193541             0.00542797569            0.000760662325           
       3.196182             0.00578623448            0.000818461919           
       3.198822             0.00462505872            0.000731989125           
       3.201463             0.00559981167            0.000791562527           
       3.204103             0.00563696141            0.000789351932           
       3.206743             0.00585157784            0.000804162605           
       3.209384             0.00695889465            0.000947475442           
       3.212024             0.00537593473            0.000776402385           
       3.214664             0.00595139822            0.000928932708           
       3.217305             0.00665353508            0.000933651186           
       3.219945             0.00692227818            0.000980183189           
       3.222586             0.00489607569            0.000785170902           
       3.225226             0.00495839314            0.000876550505           
       3.227866             0.00491765924            0.000797860753           
       3.230507             0.00622597505             0.00093060769           
       3.233147             0.00509929372            0.000849005973           
       3.235787             0.00544349876            0.000897696683           
       3.238428             0.00516773055            0.000943871479           
       3.241068             0.00493134118            0.000862144672           
       3.243709             0.00595982736            0.000979222941           
       3.246349              0.0066907297            0.000945807114           
       3.248989             0.00912704527              0.0013043644           
       3.251630             0.00465610715            0.000897138106           
       3.254270             0.00508407894            0.000837837386           
       3.256911             0.00591713218            0.000986229872           
       3.259551              0.0057394462               0.001045701           
       3.262191             0.00732491579             0.00120667686           
       3.264832             0.00559434732             0.00110183966           
       3.267472             0.00551703343             0.00102647675           
       3.270112             0.00580461728              0.0011635779           
       3.272753             0.00487001532            0.000975547938           
       3.275393             0.00367307915            0.000864464316           
       3.278034               0.005899996             0.00109623137           
       3.280674             0.00238394733            0.000756153571           
       3.283314             0.00440900927            0.000919690712           
       3.285955             0.00656531788             0.00115794107           
       3.288595             0.00607854286             0.00123957543           
       3.291235             0.00773179596             0.00143715268           
       3.293876             0.00631370668             0.00131735031           
       3.296516             0.00633515381             0.00126683204           
       3.299157             0.00640378398             0.00125767158           
       3.301797             0.00577646241             0.00136252834           
       3.304437             0.00554929944             0.00115702443           
       3.307078             0.00701017679              0.0014325069           
       3.309718             0.00530133333             0.00128581975           
       3.312359             0.00594407421             0.00136186106           
       3.314999             0.00845283878             0.00159898285           
       3.317639             0.00526490395             0.00120688785           
       3.320280             0.00437680317             0.00116995126           
       3.322920             0.00324623217             0.00102453739           
       3.325560             0.00419053743             0.00116484419           
       3.328201               0.003409377            0.000946264027           
       3.330841             0.00464926912              0.0013448692           
       3.333482             0.00592845692             0.00143547568           
       3.336122             0.00482086272             0.00129505131           
       3.338762             0.00367210265              0.0013056363           
       3.341403             0.00679410284             0.00169699181           
       3.344043             0.00738439487             0.00169855528           
       3.346683              0.0052835056             0.00146681175           
       3.349324             0.00615706323             0.00178030135           
       3.351964             0.00799363876             0.00214508266           
       3.354605             0.00454351613             0.00184953273           
       3.357245             0.00424925466             0.00161354144           
       3.359885             0.00668594709             0.00161990962           
       3.362526             0.00489578889             0.00173348022           
       3.365166             0.00650308099             0.00188437773           
       3.367807             0.00355962851             0.00178423363           
       3.370447             0.00613334264             0.00194277104           
       3.373087              0.0104089818              0.0027064773           
       3.375728             0.00267045607             0.00154714925           
       3.378368              0.0059682391             0.00343267351           
       3.381008             0.00107664225             0.00108698422           
       3.383649             0.00283747983             0.00141559291           
       3.386289             0.00692013566              0.0026164343           
       3.388930           -2.64458846e-05                         0           
       3.391570             0.00614809856             0.00275948948           
       3.394210             0.00195849764             0.00197101453           
       3.396851             0.00486333439             0.00347431477           
       3.399491             0.00490735193             0.00349098345           
       3.402131             0.00969852962             0.00694342301           
       3.404772           -2.65697415e-05                         0           
       3.407412                       nan                       nan           
       3.410053           -2.66351829e-05                         0           
       3.412693                       nan                       nan           
       3.415333           -2.66860822e-05                         0           
