################################################################################
# EDF_DataBlockID                     0.Image.Psd
# EDF_BinarySize                      4366944
# EDF_HeaderSize                      2560
# ByteOrder                           LowByteFirst
# DataType                            FloatValue
# Dim_1                               1028
# Dim_2                               1062
# Image                               0
# HeaderID                            EH:000000:000000:000000
# Size                                4366944
# Center_1                            607.5200
# Center_2                            651.5500
# Comment                             Xenocs_Cell_Window - 20251028_20perc_iodine_1.23mg
# DDummy                              0.6
# Date                                2025-10-28T15:24:24
# Delta                               0
# Dummy                               -1.5
# ExposureTime                        360
# Gamma                               0
# Intensity1                          8.62563e-10
# PSize_1                             7.5e-05
# PSize_2                             7.5e-05
# Pressure                            0.0398312
# SampleDistance                      0.450002
# SampleEnvKind                       large
# SampleEnvPN                         ElectroChemical cell
# SampleEnvSN                         1141
# Thickness                           0
# Wavelength                          1.541891e-10
# Wavelength                          1.54189e-10
# aux                                 0
# aux_dial                            0.002375
# beamx                               588.434
# beamx_dial                          588.434
# beamz                               657.808
# beamz_dial                          657.808
# det0x                               0
# det0x_dial                          6.36945
# det0xvd                             0
# det0xvd_dial                        0
# det0y                               450.002
# det0y_dial                          481.635
# det0z                               0
# det0z_dial                          1.23302
# det0zvd                             0
# det0zvd_dial                        0
# mag                                 1.818
# mag_dial                            1.818
# om                                  0.2499
# om_dial                             -0.610199
# phi                                 -0.0120535
# phi_dial                            0
# ry                                  0.599993
# ry_dial                             0.599993
# s1bot                               0.8
# s1bot_dial                          -1.66094
# s1hl                                0.8
# s1hl_dial                           -0.608437
# s1hr                                0.8
# s1hr_dial                           0.970938
# s1top                               0.8
# s1top_dial                          -0.461562
# s2bot                               0.45
# s2bot_dial                          1.36109
# s2hl                                0.45
# s2hl_dial                           -0.83375
# s2hr                                0.45
# s2hr_dial                           -0.118594
# s2top                               0.45
# s2top_dial                          1.44734
# w2theta                             32
# w2theta_dial                        32
# waxsch                              19.2605
# waxsch_dial                         -32.7355
# waxsh                               137.085
# waxsh_dial                          -43.5338
# waxsth                              26.0607
# waxsth_dial                         -19.4086
# waxsz                               67.0407
# waxsz_dial                          -23.7954
# wind                                65.9854
# wind_dial                           66.0041
# wpsi                                124
# wpsi_dial                           124
# wstod                               115
# wstod_dial                          115
# x                                   0
# x_dial                              1.00969
# z                                   0
# z_dial                              13.3172
# CountCutoff                         15302352
# DetectorModel                       Dectris EIGER2 Si 1M, S/N E-02-0362
# ThresholdSetting                    4023.88989258
# Saturation                          0
# FlatField                           Corrected
# BackgroundReductionExtra            0.02
# BackgroundCorrectionConstant        0.0026712
# Detector                            0
# Monitor                             0
# Pil_Roi0                            0
# SumForIntensity1                    3.10523e+08
# TransmittedFlux                     862563
# det                                 0
# mon                                 0
# pilai0                              3.10523e+08
# pilai1                              815736
# pilct0                              5.36891e+08
# pilct1                              815736
# pilroi0                             0
# pilroi1                             0
# sec                                 1
# title                               20251028_20perc_iodine_1.23mg_0_00009.edf
# usaxs0                              0
# Operation                           Azimuthal average I(q)
# Error_model                         ErrorModel.poisson
# Geometrical_correction              True
# Transmission_correction             True
# Thickness_correction                False
# Binning mode                        Uniform
# Binning factor                      1.0
# Psi                                 0.0
# Omega                               0.2499
# MaskInvalidPixels                   True
# DetectorEdge                        3
# MaskFiles                           ['20251028_20perc_iodine_1.23mg_0_00012_mask.edf']
################################################################################
    q(A⁻¹)                Intensity(a.u.)            Sigma_I(a.u.)            
       0.000340                369137.787                119.437347           
       0.001019                357948.399                72.0230911           
       0.001698                349272.819                50.3070646           
       0.002377                330688.413                43.7825563           
       0.003056                307900.562                35.7053192           
       0.003735                253870.479                28.5931258           
       0.004415                205279.074                25.7115334           
       0.005094                153296.068                19.2420749           
       0.005773                101022.668                14.4618071           
       0.006452                58687.4924                10.5612467           
       0.007131                32094.0796                7.56594696           
       0.007810                15996.7123                5.30091814           
       0.008490                7893.47802                3.30067281           
       0.009169                3754.46255                2.24974254           
       0.009848                 1151.3371                1.20452482           
       0.010527                442.205773               0.746495112           
       0.011206                112.928835               0.360039954           
       0.011885                53.9345996                 0.2311799           
       0.012564                25.8988982               0.164470781           
       0.013244                17.6344515                 0.1268788           
       0.013923                12.6532233               0.109208975           
       0.014602                9.91918533              0.0896769179           
       0.015281                7.77474775              0.0808192282           
       0.015960                 6.4313631              0.0729791815           
       0.016639                5.28726692              0.0624852788           
       0.017319                4.37938712              0.0559836924           
       0.017998                3.68783646               0.049148703           
       0.018677                 3.0693333              0.0464401281           
       0.019356                2.69348845              0.0429861003           
       0.020035                2.22853995              0.0366837697           
       0.020714                2.02292231              0.0353203976           
       0.021394                1.72996619              0.0309047078           
       0.022073                1.50956555              0.0300359369           
       0.022752                 1.3382427              0.0270530454           
       0.023431                1.20387674               0.024906748           
       0.024110                1.04365947              0.0241775412           
       0.024789               0.982671706               0.021787989           
       0.025469               0.871612572              0.0211459273           
       0.026148               0.770530363              0.0186807714           
       0.026827               0.741999185              0.0186250095           
       0.027506               0.668425851               0.017932442           
       0.028185               0.629311868              0.0165932742           
       0.028864               0.558890441              0.0155495841           
       0.029544               0.542661226              0.0148581793           
       0.030223               0.490488228              0.0143284379           
       0.030902               0.449360236               0.013840064           
       0.031581               0.405305561              0.0124949375           
       0.032260               0.386722896              0.0124131029           
       0.032939                0.35245849              0.0114264045           
       0.033619               0.348030188              0.0115212693           
       0.034298                 0.3074576              0.0105382784           
       0.034977               0.299862666              0.0102027788           
       0.035656               0.269022822             0.00991965061           
       0.036335                0.25556902             0.00937716457           
       0.037014               0.228229007             0.00888784292           
       0.037693               0.224848463             0.00848643009           
       0.038373               0.217751128             0.00843337507           
       0.039052               0.202098318             0.00815917839           
       0.039731               0.179467753             0.00750961156           
       0.040410               0.179614091             0.00746230366           
       0.041089               0.163088595             0.00699935071           
       0.041768               0.173937886             0.00726617953           
       0.042448               0.173065202             0.00719168808           
       0.043127               0.153618021             0.00661556353           
       0.043806               0.147127267             0.00652256672           
       0.044485               0.149240803             0.00643429486           
       0.045164                 0.1412738             0.00638357958           
       0.045843               0.139821343             0.00609107186           
       0.046523               0.135201466             0.00601028112           
       0.047202               0.124653172             0.00581138942           
       0.047881               0.132645013             0.00587918205           
       0.048560               0.120715863             0.00565970994           
       0.049239               0.107613018             0.00513094398           
       0.049918               0.113442341              0.0053710666           
       0.050598                0.10928209             0.00519256901           
       0.051277               0.114507736             0.00529840199           
       0.051956                0.10409461             0.00502002406           
       0.052635               0.101748697             0.00485780715           
       0.053314              0.0925895737             0.00476949373           
       0.053993                0.10527392              0.0049462239           
       0.054673              0.0946594803             0.00458576632           
       0.055352              0.0909224765             0.00456035073           
       0.056031              0.0873591146             0.00437617178           
       0.056710              0.0900961513             0.00455310247           
       0.057389              0.0849256933              0.0042627611           
       0.058068               0.082720057             0.00425040968           
       0.058748              0.0830740975             0.00431262928           
       0.059427              0.0832353721             0.00424372586           
       0.060106              0.0821497216             0.00425586179           
       0.060785              0.0816242099             0.00411512051           
       0.061464              0.0723696609             0.00396821568           
       0.062143              0.0811439441             0.00415920994           
       0.062822              0.0758693163               0.003974563           
       0.063502              0.0705458154             0.00382573881           
       0.064181              0.0696404037             0.00376097018           
       0.064860              0.0738174006             0.00393109471           
       0.065539              0.0687314475             0.00375616141           
       0.066218              0.0693383943             0.00369192923           
       0.066897              0.0639036827             0.00357165211           
       0.067577              0.0684686583             0.00373254077           
       0.068256              0.0604184181             0.00359238313           
       0.068935              0.0632049967             0.00361488085           
       0.069614              0.0584129544             0.00350973888           
       0.070293              0.0610509241             0.00362120126           
       0.070972              0.0614841571             0.00360741922           
       0.071652              0.0570599895             0.00348158264           
       0.072331              0.0526207036             0.00328381918           
       0.073010              0.0598306726             0.00358157773           
       0.073689               0.056215807             0.00345261833           
       0.074368              0.0530315301             0.00334730947           
       0.075047              0.0529398389             0.00330846723           
       0.075727              0.0517123053              0.0032496888           
       0.076406              0.0501922623             0.00326545031           
       0.077085                0.04625768             0.00307626286           
       0.077764              0.0487913357             0.00314831676           
       0.078443              0.0540589217             0.00333442804           
       0.079122              0.0532627868             0.00327798767           
       0.079802              0.0521261517              0.0032772157           
       0.080481              0.0533902968             0.00320483779           
       0.081160              0.0496895991             0.00315521657           
       0.081839              0.0492979622             0.00309244351           
       0.082518              0.0510830624             0.00315058615           
       0.083197              0.0446678462             0.00290034339           
       0.083876              0.0490084416             0.00298751612           
       0.084556              0.0432991124             0.00288620796           
       0.085235               0.044215536             0.00286024153           
       0.085914              0.0419067207             0.00281161324           
       0.086593              0.0418914267             0.00279300772           
       0.087272              0.0461436679             0.00288990089           
       0.087951               0.042991546             0.00285245978           
       0.088631               0.044654934             0.00280810048           
       0.089310              0.0377356635             0.00263614148           
       0.089989              0.0393888474             0.00266178009           
       0.090668              0.0395118149             0.00269535883           
       0.091347               0.045548601             0.00291015009           
       0.092026              0.0443397101             0.00274447135           
       0.092706              0.0406688365             0.00272381399           
       0.093385              0.0371435269             0.00256311001           
       0.094064              0.0458325334             0.00288030174           
       0.094743              0.0370393182              0.0025498424           
       0.095422              0.0398172196             0.00261425081           
       0.096101              0.0357576867             0.00252842487           
       0.096781              0.0354123562             0.00248015843           
       0.097460              0.0378350562             0.00249366244           
       0.098139              0.0351748888             0.00238589992           
       0.098818              0.0375541377             0.00243491205           
       0.099497              0.0368027603             0.00241537928           
       0.100176                 0.0402807             0.00246061234           
       0.100856              0.0349225654             0.00228965146           
       0.101535              0.0333822053             0.00223426876           
       0.102214              0.0377044692             0.00237452642           
       0.102893              0.0313067413             0.00213905945           
       0.103572              0.0326763106             0.00215306326           
       0.104251              0.0395531953             0.00237756554           
       0.104931              0.0332696674             0.00216069762           
       0.105610              0.0310196625             0.00209525516           
       0.106289              0.0312367579             0.00206758412           
       0.106968              0.0354366319             0.00220873397           
       0.107647              0.0319955984             0.00210001738           
       0.108326              0.0298277373             0.00200050102           
       0.109005              0.0311673678             0.00203206499           
       0.109685              0.0349401088             0.00212740737           
       0.110364              0.0330197486             0.00209160804           
       0.111043              0.0305156858             0.00200276326           
       0.111722              0.0327912449             0.00205071836           
       0.112401              0.0306911178              0.0019894794           
       0.113080              0.0323545662             0.00201927446           
       0.113760              0.0286359297             0.00193142205           
       0.114439              0.0306398051             0.00196934475           
       0.115118              0.0318101814              0.0019914744           
       0.115797              0.0313807139             0.00199630956           
       0.116476               0.029948078             0.00192101916           
       0.117155              0.0319395471             0.00199986324           
       0.117835              0.0276194357             0.00182273143           
       0.118514              0.0319568115             0.00198549597           
       0.119193              0.0298518827             0.00191900578           
       0.119872              0.0296986263              0.0018901354           
       0.120551              0.0296168888             0.00187495954           
       0.121230               0.029176514              0.0018422404           
       0.121910              0.0261047502             0.00175940798           
       0.122589              0.0273281341             0.00180201776           
       0.123268              0.0250965081             0.00169341897           
       0.123947              0.0265733332             0.00175380169           
       0.124626              0.0256438593             0.00170179163           
       0.125305              0.0264168903             0.00173572748           
       0.125985              0.0269259554              0.0017387743           
       0.126664              0.0265244465             0.00170932311           
       0.127343              0.0310589023             0.00187110921           
       0.128022              0.0267631099             0.00172357623           
       0.128701              0.0265441221             0.00170756857           
       0.129380              0.0265380593              0.0016859895           
       0.130059              0.0279282644              0.0017336031           
       0.130739              0.0236364585             0.00160606195           
       0.131418                 0.0232214             0.00158744128           
       0.132097              0.0254739656             0.00164133028           
       0.132776              0.0286823455             0.00173376365           
       0.133455              0.0215769701             0.00151544037           
       0.134134               0.022817597             0.00155343587           
       0.134814              0.0246290218             0.00159729046           
       0.135493              0.0236723846             0.00157229974           
       0.136172              0.0267053333             0.00165738107           
       0.136851              0.0248271122             0.00160732971           
       0.137530              0.0219729248             0.00147619299           
       0.138209               0.022302406              0.0015046802           
       0.138889              0.0243500414             0.00157916813           
       0.139568               0.023586454             0.00155353882           
       0.140247              0.0257667908             0.00162162875           
       0.140926              0.0199047544             0.00138452548           
       0.141605              0.0227665145             0.00151833134           
       0.142284              0.0234600691             0.00151574476           
       0.142964              0.0251058176             0.00157400654           
       0.143643               0.023292973             0.00151419859           
       0.144322              0.0248572727             0.00153148568           
       0.145001              0.0222773205             0.00147959146           
       0.145680              0.0233388324              0.0014786033           
       0.146359              0.0222415804             0.00144870736           
       0.147039              0.0204556208              0.0014007642           
       0.147718              0.0218753589             0.00142465633           
       0.148397              0.0209028659             0.00141426955           
       0.149076              0.0243219911             0.00147823302           
       0.149755              0.0201377978             0.00136585266           
       0.150434              0.0229682834             0.00145928243           
       0.151114              0.0226867797             0.00144229042           
       0.151793              0.0200222698             0.00135496155           
       0.152472              0.0188810052             0.00129253669           
       0.153151              0.0222302692             0.00141605857           
       0.153830              0.0203690265             0.00134560696           
       0.154509              0.0205717188              0.0013466433           
       0.155188              0.0232907797             0.00143234867           
       0.155868              0.0219207468             0.00137969433           
       0.156547              0.0209701821              0.0013581167           
       0.157226              0.0203733089             0.00130595331           
       0.157905              0.0217191133             0.00135972338           
       0.158584              0.0193424814               0.001280843           
       0.159263              0.0218769642             0.00136718841           
       0.159943              0.0198730177             0.00130403886           
       0.160622              0.0194280331             0.00126447384           
       0.161301              0.0200389104             0.00130137597           
       0.161980              0.0170880177             0.00118131251           
       0.162659              0.0193944798             0.00127246309           
       0.163338              0.0205143837             0.00129801914           
       0.164018              0.0199034751             0.00127183534           
       0.164697              0.0190405827             0.00125993327           
       0.165376              0.0208133448             0.00128849985           
       0.166055              0.0197707876             0.00126409641           
       0.166734              0.0197003346             0.00125618963           
       0.167413              0.0180411598             0.00120296944           
       0.168093              0.0199478189             0.00127690591           
       0.168772              0.0207674552             0.00126477277           
       0.169451              0.0186936711             0.00122204118           
       0.170130              0.0205809719             0.00126541277           
       0.170809               0.019590379             0.00124931764           
       0.171488              0.0184439398              0.0012011606           
       0.172168              0.0188547054             0.00120279546           
       0.172847              0.0187446068             0.00121503225           
       0.173526              0.0180116787              0.0011683201           
       0.174205              0.0178811479             0.00116944018           
       0.174884              0.0201065919             0.00123361722           
       0.175563              0.0195217043             0.00122073215           
       0.176243              0.0182834469             0.00119320547           
       0.176922              0.0174901689             0.00113662035           
       0.177601              0.0198303329             0.00122357387           
       0.178280              0.0173925209             0.00113310801           
       0.178959              0.0178217745             0.00115623127           
       0.179638              0.0192243838             0.00119741037           
       0.180317              0.0189872176             0.00118133226           
       0.180997              0.0194575173             0.00120236409           
       0.181676              0.0171352451             0.00111628533           
       0.182355              0.0171914203             0.00112482892           
       0.183034              0.0188552713             0.00115909856           
       0.183713              0.0187504235             0.00116994812           
       0.184392              0.0181307802             0.00115010613           
       0.185072              0.0172130602              0.0011078496           
       0.185751              0.0189821287             0.00116662353           
       0.186430              0.0196037156             0.00117726693           
       0.187109              0.0168636648             0.00110405734           
       0.187788              0.0180235206             0.00113857971           
       0.188467              0.0196812563             0.00117570913           
       0.189147              0.0180984402             0.00113885911           
       0.189826              0.0173854065             0.00109646101           
       0.190505              0.0178689927             0.00112990434           
       0.191184              0.0169492726             0.00108458216           
       0.191863              0.0175245816             0.00110515886           
       0.192542              0.0188985714             0.00115848838           
       0.193222              0.0169035872             0.00107108344           
       0.193901              0.0154175938             0.00103663198           
       0.194580                 0.0177141             0.00109172115           
       0.195259              0.0175751485             0.00109991988           
       0.195938              0.0167762337             0.00107719497           
       0.196617              0.0183036659             0.00110945902           
       0.197297              0.0160920282             0.00104452127           
       0.197976              0.0178867774             0.00108431445           
       0.198655              0.0178848101             0.00109609794           
       0.199334              0.0178135583             0.00108426548           
       0.200013              0.0175960173             0.00107702706           
       0.200692              0.0176896673             0.00108638486           
       0.201371              0.0148186298            0.000983125691           
       0.202051              0.0184497477              0.0011003952           
       0.202730              0.0171797319             0.00105124072           
       0.203409              0.0170279609             0.00105361248           
       0.204088                0.01743493              0.0010649496           
       0.204767              0.0167401104             0.00103802903           
       0.205446              0.0158902289             0.00101331213           
       0.206126              0.0166486841             0.00102312167           
       0.206805               0.017872742             0.00107949968           
       0.207484               0.017219919             0.00104055224           
       0.208163               0.016743333             0.00103221745           
       0.208842              0.0158239126             0.00100075719           
       0.209521               0.014810996            0.000960151064           
       0.210201              0.0158497635             0.00100433448           
       0.210880              0.0162743268            0.000997726701           
       0.211559              0.0146081847            0.000959251016           
       0.212238              0.0168422627             0.00102475208           
       0.212917              0.0157703233            0.000987921174           
       0.213596              0.0160623832             0.00100292245           
       0.214276              0.0156337148             0.00096883538           
       0.214955              0.0160379655             0.00100191699           
       0.215634              0.0146124513            0.000949499789           
       0.216313              0.0166927811             0.00101270923           
       0.216992              0.0152658632            0.000968216163           
       0.217671              0.0168320308             0.00100978328           
       0.218351              0.0156271242            0.000982485793           
       0.219030              0.0150567869            0.000949167803           
       0.219709              0.0167479838             0.00100729974           
       0.220388              0.0150902316            0.000954920293           
       0.221067              0.0165033605            0.000999423461           
       0.221746              0.0162310957              0.0009901299           
       0.222426              0.0174817521             0.00101221149           
       0.223105              0.0151011143            0.000953586181           
       0.223784              0.0154939855            0.000956329766           
       0.224463              0.0168302979             0.00100465482           
       0.225142              0.0144328087            0.000915629622           
       0.225821              0.0149087663            0.000934353253           
       0.226500              0.0141552755            0.000916224856           
       0.227180              0.0154945593            0.000943820893           
       0.227859              0.0155703811             0.00095037182           
       0.228538              0.0172451973            0.000990136367           
       0.229217              0.0148131776            0.000924930651           
       0.229896              0.0150211784            0.000930953368           
       0.230575               0.015100091            0.000918516555           
       0.231255              0.0152244906            0.000936100643           
       0.231934              0.0140983852            0.000894661149           
       0.232613              0.0147685801            0.000919057336           
       0.233292              0.0149967401            0.000917181272           
       0.233971              0.0151397112            0.000921112801           
       0.234650              0.0142512022             0.00090418711           
       0.235330              0.0149984737            0.000919490057           
       0.236009              0.0157786122             0.00094106748           
       0.236688              0.0141177901            0.000886977742           
       0.237367              0.0147141564            0.000906833097           
       0.238046              0.0154434474            0.000935577131           
       0.238725              0.0153240301            0.000917574907           
       0.239405              0.0151842341            0.000919043798           
       0.240084               0.014455968            0.000891023362           
       0.240763               0.015180539            0.000921823579           
       0.241442               0.013697207            0.000863291166           
       0.242121              0.0152924304            0.000913899721           
       0.242800              0.0147755589            0.000902575278           
       0.243480              0.0133170356            0.000852858513           
       0.244159              0.0129564181            0.000841638854           
       0.244838               0.014604281            0.000878856113           
       0.245517               0.015790881            0.000927008058           
       0.246196              0.0150924128            0.000906711298           
       0.246875              0.0146058895            0.000879543101           
       0.247554              0.0128061714             0.00083194445           
       0.248234              0.0147682593            0.000879860112           
       0.248913              0.0145345063            0.000882660168           
       0.249592              0.0134941367             0.00084240196           
       0.250271              0.0138003215            0.000849431805           
       0.250950              0.0141821429            0.000866376606           
       0.251629              0.0145153584            0.000869045778           
       0.252309              0.0145129943            0.000870738648           
       0.252988              0.0136066421            0.000828588104           
       0.253667              0.0146525431             0.00086989039           
       0.254346              0.0125460065            0.000804769304           
       0.255025              0.0112414282            0.000760110983           
       0.255704              0.0134187826            0.000826664231           
       0.256384              0.0142926985            0.000850206933           
       0.257063              0.0144595631            0.000860031163           
       0.257742              0.0153562227            0.000880155042           
       0.258421              0.0128428877             0.00080336251           
       0.259100              0.0123775924            0.000790050749           
       0.259779              0.0136232101            0.000828148693           
       0.260459              0.0135869511            0.000828670016           
       0.261138              0.0115785414            0.000750026118           
       0.261817              0.0124167575            0.000792378811           
       0.262496              0.0127122209            0.000793888054           
       0.263175              0.0130207857            0.000805191079           
       0.263854              0.0127965981            0.000794520715           
       0.264534               0.012436652            0.000776577057           
       0.265213              0.0129861948            0.000806054445           
       0.265892              0.0135589835             0.00081308689           
       0.266571              0.0131238818            0.000798115602           
       0.267250              0.0134449673            0.000809180682           
       0.267929              0.0141554214            0.000829433337           
       0.268609               0.011182992            0.000741259884           
       0.269288              0.0130278007            0.000786777352           
       0.269967              0.0121384415            0.000767630007           
       0.270646              0.0112319552               0.000735219           
       0.271325              0.0136301069            0.000811266259           
       0.272004              0.0141432664            0.000818159014           
       0.272683              0.0123525974            0.000765558333           
       0.273363              0.0127880655            0.000783903589           
       0.274042              0.0124606082            0.000769236602           
       0.274721              0.0129153719            0.000782683574           
       0.275400              0.0111379275            0.000722021144           
       0.276079              0.0113376139            0.000732601161           
       0.276758              0.0118966533            0.000759915854           
       0.277438              0.0116690311            0.000744162703           
       0.278117              0.0114323642             0.00074997131           
       0.278796              0.0115321476            0.000745591525           
       0.279475              0.0108214897            0.000734184295           
       0.280154              0.0110029512            0.000729665442           
       0.280833               0.012254064            0.000774715652           
       0.281513              0.0127846092            0.000803723363           
       0.282192              0.0111836743            0.000738893728           
       0.282871              0.0117237781            0.000761811851           
       0.283550              0.0117279591            0.000766030926           
       0.284229              0.0107463858            0.000744043895           
       0.284908             0.00998056763            0.000724605771           
       0.285588              0.0107700605            0.000743905222           
       0.286267              0.0115368461            0.000782259445           
       0.286946              0.0105642023             0.00074369036           
       0.287625              0.0121559122            0.000811334482           
       0.288304              0.0105156815            0.000744513829           
       0.288983               0.011008134            0.000771393771           
       0.289663              0.0104286499            0.000755210063           
       0.290342              0.0110276738            0.000772463009           
       0.291021              0.0106147211            0.000761944791           
       0.291700              0.0120064053             0.00079976959           
       0.292379             0.00881017137            0.000700780591           
       0.293058             0.00939922671            0.000721094817           
       0.293738              0.0103792621            0.000751393098           
       0.294417              0.0092510883            0.000717627641           
       0.295096             0.00941647442            0.000716054603           
       0.295775             0.00915899502            0.000716982036           
       0.296454              0.0101157173            0.000743752969           
       0.297133              0.0109277578            0.000776686401           
       0.297812             0.00983549513            0.000740544297           
       0.298492             0.00923142639            0.000718829054           
       0.299171              0.0100860932              0.0007499465           
       0.299850             0.00974947021            0.000732290687           
       0.300529             0.00996215023            0.000748573237           
       0.301208              0.0105658925            0.000772798666           
       0.301887              0.0102668967             0.00076088054           
       0.302567             0.00999368833            0.000746928818           
       0.303246             0.00888571011            0.000708905906           
       0.303925             0.00849286959            0.000701956976           
       0.304604             0.00939377532            0.000722308893           
       0.305283             0.00980882124            0.000749040137           
       0.305962             0.00973018761            0.000741524819           
       0.306642             0.00757455038            0.000663135336           
       0.307321             0.00809573725            0.000683381058           
       0.308000             0.00976209205            0.000741528132           
       0.308679             0.00936156557            0.000741882191           
       0.309358             0.00997665044            0.000755506557           
       0.310037             0.00874872511            0.000709062966           
       0.310717             0.00954311978            0.000739842989           
       0.311396             0.00878989914            0.000714807757           
       0.312075             0.00927790559            0.000743695263           
       0.312754             0.00877107286            0.000708630793           
       0.313433             0.00852745941            0.000704797334           
       0.314112             0.00934348869            0.000737580206           
       0.314792             0.00783266205            0.000680088615           
       0.315471             0.00796929286            0.000677511184           
       0.316150             0.00851804852            0.000706931764           
       0.316829             0.00823857301            0.000699828948           
       0.317508             0.00880216094            0.000715253018           
       0.318187             0.00832281718            0.000704679793           
       0.318866             0.00785674293            0.000675441484           
       0.319546             0.00691039094             0.00064295327           
       0.320225             0.00794202438             0.00068929035           
       0.320904             0.00761840128            0.000664662174           
       0.321583             0.00899370923            0.000738081129           
       0.322262              0.0085513694            0.000708793915           
       0.322941             0.00871627732            0.000724763569           
       0.323621             0.00818386518             0.00069799378           
       0.324300             0.00868590503            0.000719647985           
       0.324979             0.00817127282            0.000699265135           
       0.325658             0.00706168202            0.000651235801           
       0.326337             0.00834381145             0.00070881505           
       0.327016             0.00734240199            0.000660699234           
       0.327696             0.00793195357            0.000694349719           
       0.328375             0.00929429611            0.000745274303           
       0.329054             0.00771044442            0.000682490678           
       0.329733             0.00763783988            0.000681750449           
       0.330412              0.0066832537            0.000632500771           
       0.331091             0.00704674224            0.000661254359           
       0.331771             0.00755371744            0.000666688603           
       0.332450             0.00751564359            0.000677917524           
       0.333129             0.00691949632            0.000648797126           
       0.333808             0.00754079227            0.000678193767           
       0.334487             0.00638297462            0.000626918559           
       0.335166             0.00667728346            0.000631824523           
       0.335846             0.00721756498            0.000668432537           
       0.336525             0.00713254192            0.000657923315           
       0.337204              0.0066199794            0.000635504312           
       0.337883             0.00829692423            0.000712400212           
       0.338562             0.00802122022            0.000704350907           
       0.339241             0.00687981833            0.000653537302           
       0.339921             0.00610507302             0.00060531647           
       0.340600             0.00684739647            0.000653235713           
       0.341279              0.0063907112            0.000624318404           
       0.341958             0.00652115267            0.000639555226           
       0.342637              0.0055291033            0.000580582742           
       0.343316             0.00738192349            0.000672786252           
       0.343995             0.00543608684            0.000586798702           
       0.344675             0.00712796264            0.000659588482           
       0.345354              0.0049859895            0.000555291897           
       0.346033              0.0075958503            0.000683597187           
       0.346712             0.00653011939            0.000637874111           
       0.347391              0.0066811527            0.000649203547           
       0.348070             0.00660006839            0.000636088537           
       0.348750              0.0066802235            0.000649186193           
       0.349429             0.00533758096            0.000572799791           
       0.350108             0.00528617714            0.000576894422           
       0.350787             0.00694180321            0.000649860401           
       0.351466             0.00744496927            0.000685397965           
       0.352145             0.00544307164             0.00058653458           
       0.352825             0.00569772299             0.00059737995           
       0.353504             0.00582338575            0.000603783494           
       0.354183             0.00610619669            0.000611147799           
       0.354862             0.00581953616            0.000610494029           
       0.355541             0.00622806265            0.000623287506           
       0.356220             0.00544023555            0.000583633688           
       0.356900             0.00631851718            0.000634957607           
       0.357579             0.00589046252            0.000605555078           
       0.358258             0.00589288392            0.000614061232           
       0.358937             0.00454029682            0.000528867931           
       0.359616              0.0050129076            0.000563472369           
       0.360295             0.00564097292            0.000598227576           
       0.360975             0.00628815077            0.000628911502           
       0.361654             0.00584587412            0.000609517314           
       0.362333             0.00496750027            0.000559005843           
       0.363012              0.0058759341            0.000615797587           
       0.363691             0.00476135677            0.000543389198           
       0.364370             0.00425293592            0.000519929639           
       0.365050             0.00507512673            0.000564928438           
       0.365729             0.00532809685            0.000584355904           
       0.366408             0.00528645252            0.000583356579           
       0.367087             0.00455096461            0.000532576066           
       0.367766             0.00494330712            0.000566623571           
       0.368445             0.00526301557            0.000574279328           
       0.369124             0.00566928962            0.000600715084           
       0.369804              0.0050037144            0.000563449501           
       0.370483             0.00467191664            0.000546830024           
       0.371162             0.00472328851            0.000553015981           
       0.371841             0.00568574191            0.000596169932           
       0.372520             0.00468460612            0.000551991268           
       0.373199             0.00419416359            0.000516057899           
       0.373879             0.00430369436            0.000528805266           
       0.374558             0.00471497442            0.000545419505           
       0.375237             0.00391505233            0.000497818606           
       0.375916             0.00580229324            0.000617651386           
       0.376595             0.00542762769            0.000585701695           
       0.377274             0.00463962058            0.000550185794           
       0.377954             0.00511501245            0.000568610654           
       0.378633             0.00447431538             0.00053852869           
       0.379312             0.00493226325            0.000565274013           
       0.379991             0.00461876967            0.000544183522           
       0.380670             0.00400044901            0.000515401405           
       0.381349             0.00542223495            0.000591424687           
       0.382029             0.00432906705            0.000536026134           
       0.382708             0.00374497822              0.0004876683           
       0.383387             0.00454221103            0.000549244571           
       0.384066             0.00469581368            0.000553330133           
       0.384745             0.00453633963            0.000545991112           
       0.385424             0.00478635951            0.000562740274           
       0.386104             0.00447659381            0.000538211629           
       0.386783             0.00366773173            0.000497704538           
       0.387462             0.00443083832            0.000533427272           
       0.388141             0.00512436802            0.000582819435           
       0.388820             0.00399413459            0.000510827695           
       0.389499             0.00470831618            0.000557742719           
       0.390178             0.00374231284            0.000499225964           
       0.390858             0.00479385238            0.000560455296           
       0.391537             0.00429329081            0.000535804089           
       0.392216             0.00423896887            0.000525730355           
       0.392895             0.00407952345            0.000517485621           
       0.393574             0.00360136779            0.000485008622           
       0.394253             0.00436138713             0.00053613904           
       0.394933               0.003723662            0.000501054404           
       0.395612             0.00438511455            0.000527944465           
       0.396291             0.00398232327            0.000513356294           
       0.396970             0.00319271257            0.000455580981           
       0.397649             0.00393479776            0.000507319969           
       0.398328             0.00312701859              0.0004502698           
       0.399008             0.00472281321             0.00055215766           
       0.399687             0.00469168406            0.000552475186           
       0.400366             0.00381461536            0.000496260264           
       0.401045             0.00328446298            0.000459615228           
       0.401724             0.00316629641            0.000452024866           
       0.402403              0.0043278713            0.000532593068           
       0.403083              0.0047121823            0.000547723567           
       0.403762             0.00309030218             0.00044574571           
       0.404441             0.00495462483            0.000568001325           
       0.405120             0.00395318332            0.000505697651           
       0.405799             0.00487141656             0.00055892595           
       0.406478             0.00314798929            0.000449318365           
       0.407158             0.00440033403            0.000530230291           
       0.407837             0.00409828835            0.000516225432           
       0.408516              0.0041063429            0.000512237189           
       0.409195             0.00475055303            0.000557204307           
       0.409874             0.00370932484             0.00049921842           
       0.410553             0.00324377518            0.000471861414           
       0.411233             0.00300073759            0.000451488741           
       0.411912             0.00286221351            0.000447192301           
       0.412591             0.00412588144            0.000540463652           
       0.413270              0.0036058783            0.000502858148           
       0.413949             0.00405341978            0.000538974747           
       0.414628             0.00374822964            0.000517356928           
       0.415307             0.00267240737            0.000441705409           
       0.415987             0.00297945049            0.000462546947           
       0.416666             0.00308566132            0.000467887032           
       0.417345             0.00232410628             0.00041284533           
       0.418024             0.00320261078            0.000484643651           
       0.418703             0.00282256878            0.000454144577           
       0.419382              0.0032178883            0.000482529543           
       0.420062             0.00251257999            0.000427576147           
       0.420741             0.00284563506            0.000457453125           
       0.421420             0.00324346042            0.000490236051           
       0.422099             0.00234465714             0.00041682322           
       0.422778             0.00290641094            0.000466590869           
       0.423457             0.00316472187            0.000489864091           
       0.424137             0.00217046677            0.000399069505           
       0.424816             0.00213287423            0.000403866183           
       0.425495             0.00197190626            0.000387960005           
       0.426174             0.00219116492            0.000409103691           
       0.426853             0.00224253518            0.000411357515           
       0.427532             0.00281607936            0.000464866924           
       0.428212             0.00255940528            0.000446100981           
       0.428891             0.00277591709            0.000463530126           
       0.429570             0.00247704456            0.000438165797           
       0.430249             0.00259832176            0.000446434058           
       0.430928              0.0021650008            0.000416422717           
       0.431607             0.00222873326            0.000415247825           
       0.432287             0.00249194371            0.000442299661           
       0.432966             0.00191234444            0.000390871417           
       0.433645             0.00168020897            0.000366763235           
       0.434324             0.00134457293            0.000326114801           
       0.435003             0.00222413099             0.00042014542           
       0.435682             0.00120900635            0.000312306578           
       0.436361             0.00257568855             0.00045523106           
       0.437041             0.00296714146            0.000487948929           
       0.437720             0.00243098921            0.000443799181           
       0.438399             0.00180835309            0.000384766258           
       0.439078             0.00193119892            0.000409150829           
       0.439757             0.00291705671            0.000499756716           
       0.440436              0.0020892693            0.000432476256           
       0.441116             0.00189725929             0.00041886352           
       0.441795              0.0020929981              0.0004404702           
       0.442474              0.0027465046            0.000505977956           
       0.443153             0.00270854151            0.000514191298           
       0.443832             0.00241265378            0.000486111503           
       0.444511              0.0015208468            0.000384211055           
       0.445191             0.00172886095            0.000419608392           
       0.445870              0.0036471222             0.00060946834           
       0.446549             0.00176981341            0.000429037674           
       0.447228              0.0021350815            0.000468573723           
       0.447907             0.00177913462            0.000432867857           
       0.448586              0.0025595049            0.000531685442           
       0.449266             0.00163253416            0.000420721494           
       0.449945             0.00192673928            0.000455197639           
       0.450624             0.00316849959            0.000593004412           
       0.451303             0.00173743835            0.000444814847           
       0.451982             0.00282428427            0.000563619069           
       0.452661             0.00166290989             0.00044053694           
       0.453341             0.00191796195            0.000474774366           
       0.454020             0.00179795564             0.00046038172           
       0.454699             0.00195898534            0.000484945228           
       0.455378             0.00100614115            0.000347727913           
       0.456057             0.00217370079            0.000520194576           
       0.456736             0.00263162049            0.000570586086           
       0.457416             0.00215569399            0.000516434722           
       0.458095             0.00094789675            0.000347410127           
       0.458774             0.00112287509            0.000383115398           
       0.459453             0.00113534902            0.000387180462           
       0.460132             0.00195308067            0.000496851973           
       0.460811             0.00225939773             0.00055433419           
       0.461490             0.00127621737            0.000412380438           
       0.462170              0.0014602567            0.000447997237           
       0.462849             0.00191694338             0.00051662221           
       0.463528             0.00147593059            0.000452265149           
       0.464207            0.000832595447            0.000346041524           
       0.464886             0.00237244084            0.000579580764           
       0.465565             0.00141891547            0.000453147195           
       0.466245            0.000703086715            0.000319971322           
       0.466924            0.000748153138            0.000337863604           
       0.467603             0.00156968212            0.000479006236           
       0.468282             0.00273630671            0.000647434691           
       0.468961            0.000458492538            0.000266761646           
       0.469640             0.00234622073             0.00060585791           
       0.470320            0.000941152564            0.000383986921           
       0.470999             0.00126372355            0.000449148028           
       0.471678             0.00115042463            0.000432660327           
       0.472357             0.00146628833            0.000489822144           
       0.473036             0.00100514965            0.000408109576           
       0.473715             0.00135143542            0.000476917514           
       0.474395            0.000547841019            0.000307847128           
       0.475074             0.00158333559            0.000523367764           
       0.475753            0.000526534159            0.000299205852           
       0.476432            0.000409979922            0.000273632705           
       0.477111            0.000742769928            0.000363856378           
       0.477790            0.000928426481            0.000408969428           
       0.478470             0.00078936073            0.000382085407           
       0.479149             0.00153684855            0.000538650634           
       0.479828            0.000976815896            0.000428424629           
       0.480507           -0.000316234287                         0           
       0.481186             0.00105389753            0.000458707581           
       0.481865             5.2187032e-05            0.000100810661           
       0.482545            0.000682631353            0.000368884069           
       0.483224            0.000689313064            0.000373217922           
       0.483903            9.74942006e-05            0.000142570999           
       0.484582            0.000959293303            0.000454488746           
       0.485261            0.000291008514            0.000243980624           
       0.485940            0.000126140952            0.000167111401           
       0.486619            0.000759096856            0.000405436449           
       0.487299            0.000319725176            0.000267319986           
       0.487978            0.000546351579            0.000345884945           
       0.488657            0.000387502581            0.000303315263           
       0.489336            0.000339259013            0.000278830774           
       0.490015            0.000153651092            0.000189122198           
       0.490694            0.000416371999            0.000319936631           
       0.491374            0.000371617797            0.000298568919           
       0.492053           -6.73242794e-05                         0           
       0.492732           -0.000316576568                         0           
       0.493411           -6.66686888e-05                         0           
       0.494090            0.000452189285            0.000340605775           
       0.494769            0.000215597149            0.000239375703           
       0.495449           -0.000316654032                         0           
       0.496128           -4.82888854e-05                         0           
       0.496807           -3.83258046e-05                         0           
       0.497486           -0.000316712195                         0           
       0.498165            -0.00031673191                         0           
       0.498844           -3.64224161e-05                         0           
       0.499524           -0.000316770836                         0           
       0.500203           -0.000316790655                         0           
       0.500882           -0.000316810083                         0           
       0.501561           -0.000316829573                         0           
       0.502240           -0.000316849323                         0           
       0.502919           -0.000316868985                         0           
       0.503599           -1.91985345e-05                         0           
       0.504278           -0.000316908744                         0           
       0.504957            0.000307679534            0.000312840049           
       0.505636           -0.000316948184                         0           
       0.506315           -0.000316968164                         0           
       0.506994           -0.000316987787                         0           
       0.507673           -0.000317007369                         0           
       0.508353           -0.000317027365                         0           
       0.509032           -0.000317047276                         0           
       0.509711           -0.000317067194                         0           
       0.510390           -0.000317087425                         0           
       0.511069             2.0467299e-05            8.58071358e-05           
       0.511748           -0.000317127673                         0           
       0.512428             6.1879472e-05            0.000152962927           
       0.513107           -0.000317167815                         0           
       0.513786           -0.000317187793                         0           
       0.514465           -0.000317208111                         0           
       0.515144           -0.000317228416                         0           
       0.515823           -0.000317248535                         0           
       0.516503           -0.000317268844                         0           
       0.517182            -0.00031728915                         0           
       0.517861           -0.000317309407                         0           
       0.518540            0.000574637267            0.000505642381           
       0.519219           -0.000317350032                         0           
       0.519898            -0.00031737049                         0           
       0.520578           -0.000317391071                         0           
       0.521257           -0.000317411386                         0           
       0.521936            -0.00031743175                         0           
       0.522615           -0.000317452358                         0           
       0.523294            0.000164744534            0.000280418105           
       0.523973           -0.000317493441                         0           
       0.524653           -0.000317513693                         0           
       0.525332           -0.000317534239                         0           
       0.526011           -0.000317555155                         0           
       0.526690           -0.000317576031                         0           
       0.527369             0.00020560567            0.000328888076           
       0.528048            0.000687814024            0.000587435787           
       0.528728           -0.000317638412                         0           
       0.529407           -0.000317659142                         0           
       0.530086           -0.000317679765                         0           
       0.530765            0.000249251964             0.00037661866           
       0.531444           -0.000317721292                         0           
       0.532123           -0.000317742537                         0           
       0.532802           -0.000317763608                         0           
       0.533482           -0.000317784607                         0           
       0.534161            -0.00031780564                         0           
       0.534840           -0.000317826493                         0           
       0.535519           -0.000317847732                         0           
       0.536198            0.000842720605            0.000702852987           
       0.536877            0.000934706212            0.000771261458           
       0.537557           -0.000317910566                         0           
       0.538236           -0.000317931842                         0           
       0.538915            -0.00031795311                         0           
       0.539594           -0.000317974349                         0           
       0.540273           -0.000317995921                         0           
       0.540952           -0.000318017252                         0           
       0.541632             0.00105209271            0.000848474531           
       0.542311            0.000947300994            0.000774579377           
       0.542990           -0.000318080697                         0           
       0.543669           -0.000318102245                         0           
       0.544348           -0.000318123769                         0           
       0.545027           -0.000318145245                         0           
       0.545707           -0.000318166787                         0           
       0.546386            0.000397932748            0.000531176867           
       0.547065             0.00189120389             0.00117927526           
       0.547744             0.00120591093            0.000959651323           
       0.548423           -0.000318252847                         0           
       0.549102           -0.000318274546                         0           
       0.549782           -0.000318296134                         0           
       0.550461           -0.000318317979                         0           
       0.551140           -0.000318339956                         0           
       0.551819           -0.000318361673                         0           
       0.552498           -0.000318383575                         0           
       0.553177           -0.000318405102                         0           
       0.553856           -0.000318426705                         0           
       0.554536            -0.00031844838                         0           
       0.555215           -0.000318470385                         0           
       0.555894            0.000517745884            0.000659341543           
       0.556573            0.000637891525            0.000780063129           
       0.557252           -0.000318536488                         0           
       0.557931           -0.000318558453                         0           
       0.558611           -0.000318580932                         0           
       0.559290           -0.000318602839                         0           
       0.559969           -0.000318624208                         0           
       0.560648           -0.000318646143                         0           
       0.561327           -0.000318668567                         0           
       0.562006           -0.000318690886                         0           
       0.562686           -0.000318713219                         0           
       0.563365             0.00069071915            0.000832222335           
       0.564044           -0.000318757935                         0           
       0.564723           -0.000318780187                         0           
       0.565402           -0.000318802025                         0           
       0.566081           -0.000318824007                         0           
       0.566761           -0.000318846227                         0           
       0.567440           -0.000318868898                         0           
       0.568119            -0.00031889139                         0           
       0.568798           -0.000318914198                         0           
       0.569477            0.000922276945             0.00107101168           
       0.570156           -0.000318959631                         0           
       0.570836           -0.000318982317                         0           
       0.571515           -0.000319004523                         0           
       0.572194           -0.000319027373                         0           
       0.572873             -0.0003190497                         0           
       0.573552           -0.000319071896                         0           
       0.574231           -0.000319094542                         0           
       0.574911           -0.000319117758                         0           
       0.575590           -0.000319140528                         0           
       0.576269           -0.000319163229                         0           
       0.576948           -0.000319186365                         0           
       0.577627           -0.000319208796                         0           
       0.578306           -0.000319231543                         0           
       0.578985           -0.000319254485                         0           
       0.579665           -0.000319277295                         0           
       0.580344             0.00176356705             0.00190646373           
       0.581023             0.00217736775             0.00232866791           
       0.581702           -0.000319346495                         0           
       0.582381           -0.000319369203                         0           
       0.583060           -0.000319392588                         0           
       0.583740           -0.000319415605                         0           
       0.584419             -0.0003194387                         0           
       0.585098           -0.000319461766                         0           
       0.585777           -0.000319485013                         0           
       0.586456           -0.000319508637                         0           
       0.587135           -0.000319531633                         0           
       0.587815           -0.000319554382                         0           
       0.588494           -0.000319577839                         0           
       0.589173           -0.000319601834                         0           
       0.589852           -0.000319624555                         0           
       0.590531           -0.000319648132                         0           
       0.591210           -0.000319671165                         0           
       0.591890           -0.000319694643                         0           
       0.592569           -0.000319717336                         0           
       0.593248           -0.000319742146                         0           
       0.593927           -0.000319765734                         0           
       0.594606           -0.000319789807                         0           
       0.595285           -0.000319812446                         0           
       0.595965           -0.000319833572                         0           
       0.596644           -0.000319855311                         0           
