################################################################################
# EDF_DataBlockID                     0.Image.Psd
# EDF_BinarySize                      2105344
# EDF_HeaderSize                      2560
# ByteOrder                           LowByteFirst
# DataType                            FloatValue
# Dim_1                               512
# Dim_2                               1028
# Image                               0
# HeaderID                            EH:000000:000000:000000
# Size                                2105344
# Center_1                            304.9000
# Center_2                            588.7000
# Comment                             Xenocs_Cell_Window - 20251028_20perc_iodine_1.23mg
# DDummy                              0.6
# Date                                2025-11-01T02:04:51
# Delta                               21.910000
# Dummy                               -1.5
# ExposureTime                        360
# Gamma                               15.360000
# Intensity1                          8.62754e-10
# PSize_1                             7.5e-05
# PSize_2                             7.5e-05
# Pressure                            0.0327682
# SampleDistance                      0.115750
# SampleEnvKind                       large
# SampleEnvPN                         ElectroChemical cell
# SampleEnvSN                         1141
# Thickness                           0
# Wavelength                          1.541891e-10
# Wavelength                          1.54189e-10
# aux                                 0
# aux_dial                            0.002375
# beamx                               588.434
# beamx_dial                          588.434
# beamz                               657.808
# beamz_dial                          657.808
# det0x                               0
# det0x_dial                          6.36945
# det0xvd                             0
# det0xvd_dial                        0
# det0y                               450.002
# det0y_dial                          481.635
# det0z                               0
# det0z_dial                          1.23302
# det0zvd                             0
# det0zvd_dial                        0
# mag                                 1.818
# mag_dial                            1.818
# om                                  0.2499
# om_dial                             -0.610199
# phi                                 -0.0120535
# phi_dial                            0
# ry                                  0.599993
# ry_dial                             0.599993
# s1bot                               0.8
# s1bot_dial                          -1.66094
# s1hl                                0.8
# s1hl_dial                           -0.608437
# s1hr                                0.8
# s1hr_dial                           0.970938
# s1top                               0.8
# s1top_dial                          -0.461562
# s2bot                               0.45
# s2bot_dial                          1.36109
# s2hl                                0.45
# s2hl_dial                           -0.83375
# s2hr                                0.45
# s2hr_dial                           -0.118594
# s2top                               0.45
# s2top_dial                          1.44734
# w2theta                             32
# w2theta_dial                        32
# waxsch                              19.2605
# waxsch_dial                         -32.7355
# waxsh                               137.085
# waxsh_dial                          -43.5338
# waxsth                              26.0607
# waxsth_dial                         -19.4086
# waxsz                               67.0407
# waxsz_dial                          -23.7954
# wind                                65.9854
# wind_dial                           66.0041
# wpsi                                124
# wpsi_dial                           124
# wstod                               115
# wstod_dial                          115
# x                                   0
# x_dial                              1.00969
# z                                   0
# z_dial                              13.3172
# CountCutoff                         6807993
# DetectorModel                       Dectris EIGER2 Si 500K, S/N E-01-0554
# ThresholdSetting                    4023.88989258
# Saturation                          0
# FlatField                           Corrected
# BackgroundReductionExtra            0.02
# BackgroundCorrectionConstant        0.0026712
# Detector                            0
# Monitor                             0
# Pil_Roi0                            0
# SumForIntensity1                    3.10591e+08
# TransmittedFlux                     862754
# det                                 0
# mon                                 0
# pilai0                              3.10591e+08
# pilai1                              789461
# pilct0                              5.36555e+08
# pilct1                              789461
# pilroi0                             0
# pilroi1                             0
# sec                                 1
# title                               20251028_20perc_iodine_1.23mg_1_00761.edf
# usaxs0                              0
# Operation                           Azimuthal average I(q)
# Error_model                         ErrorModel.poisson
# Geometrical_correction              True
# Transmission_correction             True
# Thickness_correction                False
# Binning mode                        Uniform
# Binning factor                      1.0
# Psi                                 0.0
# Omega                               0.2499
# MaskInvalidPixels                   True
# DetectorEdge                        3
# MaskFiles                           ['WAXS_corrected.edf']
################################################################################
    q(A⁻¹)                Intensity(a.u.)            Sigma_I(a.u.)            
       0.693100           -2.35330149e-05                         0           
       0.695741              0.0055736313             0.00404340659           
       0.698381             0.00839129727             0.00607723048           
       0.701021           -2.34959547e-05                         0           
       0.703662             0.00840259016             0.00496237285           
       0.706302             0.00686351955             0.00347226924           
       0.708942             0.00278341549             0.00285397412           
       0.711583             0.00440566507             0.00310922781           
       0.714223             0.00578110885             0.00411199235           
       0.716864             0.00123036592             0.00124117967           
       0.719504              0.0145526545             0.00460634512           
       0.722144              0.0112869945             0.00375682822           
       0.724785             0.00787856718             0.00250372835           
       0.727425             0.00437026834             0.00252265398           
       0.730065             0.00872382768             0.00252114828           
       0.732706             0.00666017467             0.00184984953           
       0.735346             0.00698836445             0.00247004849           
       0.737987             0.00777282364             0.00184078973           
       0.740627             0.00483001508             0.00216508775           
       0.743267             0.00604912965             0.00162289292           
       0.745908             0.00825487185             0.00205687222           
       0.748548             0.00781221822             0.00184439425           
       0.751189              0.0119085314             0.00306840166           
       0.753829             0.00333064223             0.00149166811           
       0.756469             0.00948882082             0.00203024141           
       0.759110             0.00869148617             0.00204766598           
       0.761750             0.00603855815             0.00150917424           
       0.764390             0.00407470939             0.00129755729           
       0.767031              0.0071181748             0.00148512055           
       0.769671              0.0116141957             0.00236639149           
       0.772312             0.00611854213             0.00130757724           
       0.774952             0.00661353339             0.00183577676           
       0.777592             0.00780878775             0.00145295476           
       0.780233             0.00748811767             0.00171660504           
       0.782873             0.00970931219              0.0018694804           
       0.785513              0.0061761635             0.00159400563           
       0.788154             0.00688052262             0.00140742429           
       0.790794             0.00693967945             0.00168983021           
       0.793435              0.0063237139             0.00144913781           
       0.796075              0.0086471114             0.00163239506           
       0.798715             0.00815515981             0.00187334915           
       0.801356             0.00820242686             0.00161699839           
       0.803996             0.00728652708             0.00155378674           
       0.806637               0.005029985             0.00102736954           
       0.809277             0.00663653874             0.00127730758           
       0.811917             0.00665880874               0.001196081           
       0.814558             0.00833647786             0.00139092426           
       0.817198             0.00670234318             0.00118486958           
       0.819838             0.00618822635             0.00115226542           
       0.822479             0.00621461926             0.00135595662           
       0.825119             0.00707570881             0.00123145126           
       0.827760             0.00596686955             0.00114550862           
       0.830400             0.00758049082             0.00121520335           
       0.833040             0.00702493719             0.00122561813           
       0.835681             0.00939654227             0.00161143607           
       0.838321             0.00858746722             0.00129299042           
       0.840961             0.00897315646              0.0014400626           
       0.843602             0.00948145103             0.00135748436           
       0.846242             0.00564270271             0.00104707125           
       0.848883              0.0073364014             0.00122180239           
       0.851523             0.00712430614             0.00118905566           
       0.854163             0.00873989931             0.00140056505           
       0.856804             0.00795904123             0.00120172856           
       0.859444             0.00889019013              0.0012444343           
       0.862085             0.00586000332             0.00105302193           
       0.864725             0.00753883192             0.00122231901           
       0.867365             0.00612286328             0.00102147023           
       0.870006              0.0102039741             0.00125658245           
       0.872646             0.00782989163             0.00115427674           
       0.875286             0.00832633616             0.00114514913           
       0.877927             0.00642189854            0.000970449917           
       0.880567              0.0109026822             0.00131001526           
       0.883208             0.00771546056             0.00109164082           
       0.885848             0.00766547245             0.00112977391           
       0.888488             0.00760818647             0.00105569122           
       0.891129             0.00722862248             0.00105658951           
       0.893769             0.00720410052             0.00100946704           
       0.896410              0.0065054689            0.000894377218           
       0.899050             0.00578967883            0.000927884662           
       0.901690             0.00705140233             0.00111544523           
       0.904331             0.00846705965             0.00108363376           
       0.906971             0.00784201155             0.00110944134           
       0.909611             0.00804460734             0.00102290934           
       0.912252             0.00734393429             0.00100949757           
       0.914892             0.00744308384             0.00111058753           
       0.917533             0.00723154855             0.00103557474           
       0.920173              0.0076435866            0.000987803021           
       0.922813              0.0091317115             0.00113300981           
       0.925454             0.00728246612            0.000911102511           
       0.928094             0.00673641835            0.000935501996           
       0.930734             0.00708323154             0.00103277225           
       0.933375             0.00692337134             0.00101101393           
       0.936015              0.0082726128             0.00100370898           
       0.938656             0.00546308977            0.000875003325           
       0.941296             0.00712779888            0.000905791887           
       0.943936             0.00785504521            0.000932483811           
       0.946577             0.00839371689            0.000957554254           
       0.949217             0.00831271616            0.000876298918           
       0.951858             0.00738144486            0.000864401235           
       0.954498             0.00786842702             0.00103300643           
       0.957138             0.00873425338             0.00103107068           
       0.959779              0.0069711388            0.000908058407           
       0.962419             0.00664103953            0.000880403008           
       0.965059             0.00697915868             0.00094923279           
       0.967700             0.00921329634             0.00111702483           
       0.970340               0.007188319            0.000873099376           
       0.972981             0.00799504316             0.00083892769           
       0.975621             0.00876837593            0.000934641354           
       0.978261              0.0071903091            0.000804198358           
       0.980902             0.00845134807             0.00104315055           
       0.983542             0.00787957928            0.000891981898           
       0.986182             0.00906970538            0.000939553309           
       0.988823             0.00697237919            0.000799899344           
       0.991463              0.0073093216            0.000873786494           
       0.994104             0.00726352711            0.000849717773           
       0.996744             0.00797583708            0.000908209051           
       0.999384             0.00661746321            0.000739849612           
       1.002025              0.0100888121             0.00101960816           
       1.004665             0.00941619072            0.000900198554           
       1.007306             0.00868881059            0.000860304481           
       1.009946             0.00646332847            0.000756729618           
       1.012586             0.00621877748            0.000722932625           
       1.015227             0.00813943602            0.000888532527           
       1.017867             0.00960903903            0.000927835086           
       1.020507             0.00798165046            0.000819101507           
       1.023148             0.00792473608            0.000880676131           
       1.025788             0.00813973881            0.000818391378           
       1.028429             0.00803643841            0.000851941616           
       1.031069             0.00937409947            0.000865864962           
       1.033709             0.00829452721            0.000865795803           
       1.036350             0.00772451465            0.000750408433           
       1.038990             0.00770845862            0.000763403589           
       1.041630             0.00731055809            0.000775415017           
       1.044271             0.00813662777            0.000769348644           
       1.046911             0.00814416307            0.000809629049           
       1.049552             0.00890193061            0.000889310584           
       1.052192             0.00703986412            0.000722145265           
       1.054832             0.00769929875            0.000762080532           
       1.057473             0.00940149631            0.000830152124           
       1.060113             0.00865370103            0.000776758221           
       1.062754             0.00835782645            0.000779381031           
       1.065394              0.0072167468            0.000765693706           
       1.068034             0.00874125869            0.000766738509           
       1.070675             0.00894165827            0.000808918535           
       1.073315             0.00769003355            0.000760923009           
       1.075955             0.00763608277            0.000715830514           
       1.078596             0.00771029886            0.000764473972           
       1.081236             0.00785850072            0.000739035548           
       1.083877             0.00758152315            0.000719383111           
       1.086517             0.00933431193            0.000855926531           
       1.089157             0.00795101506             0.00081967487           
       1.091798             0.00732429616            0.000689719415           
       1.094438             0.00871508792            0.000749931177           
       1.097078             0.00814361041            0.000695280647           
       1.099719             0.00824808273            0.000756860894           
       1.102359             0.00864690486            0.000725743627           
       1.105000             0.00945533964            0.000848611586           
       1.107640             0.00743458369            0.000719499463           
       1.110280              0.0072825809            0.000649742655           
       1.112921             0.00843002082            0.000750939157           
       1.115561             0.00906804078            0.000740220356           
       1.118202             0.00866786966            0.000724385097           
       1.120842             0.00869568391            0.000762553968           
       1.123482             0.00848169862            0.000749823664           
       1.126123             0.00835460941            0.000713797917           
       1.128763             0.00802170503            0.000704227604           
       1.131403             0.00913111478            0.000723988927           
       1.134044             0.00900542867            0.000739841385           
       1.136684             0.00870375163            0.000775474483           
       1.139325              0.0085425006            0.000707717891           
       1.141965             0.00860810613            0.000715126866           
       1.144605             0.00891125524            0.000693778398           
       1.147246             0.00745565087            0.000649449303           
       1.149886             0.00978646137            0.000741431191           
       1.152527             0.00935442482            0.000735421944           
       1.155167             0.00919898542            0.000693662269           
       1.157807             0.00823235126            0.000703569512           
       1.160448             0.00872279605            0.000707223297           
       1.163088             0.00944204379            0.000701848028           
       1.165728             0.00863834427            0.000689250185           
       1.168369             0.00873234321            0.000699392357           
       1.171009             0.00863272906            0.000674858839           
       1.173650              0.0101564715            0.000751205202           
       1.176290             0.00827947317            0.000662800428           
       1.178930              0.0102402471            0.000722442137           
       1.181571             0.00905331898            0.000692755046           
       1.184211              0.0102291524            0.000738980048           
       1.186851             0.00862905406            0.000663580623           
       1.189492              0.0107856464             0.00073689158           
       1.192132             0.00983006564            0.000695598086           
       1.194773             0.00958158858            0.000689751003           
       1.197413              0.0094109844            0.000654969076           
       1.200053             0.00910980161            0.000660776562           
       1.202694             0.00878673639            0.000617118197           
       1.205334              0.0091483021            0.000678605621           
       1.207975             0.00905138563            0.000644307969           
       1.210615              0.0109274159            0.000780974963           
       1.213255             0.00938898836            0.000648249517           
       1.215896              0.0108564314            0.000709700132           
       1.218536             0.00936651035            0.000633853463           
       1.221176              0.0100826568            0.000714988341           
       1.223817             0.00922988881            0.000642161657           
       1.226457             0.00966439563            0.000670341238           
       1.229098             0.00944215424            0.000662556583           
       1.231738              0.0105567097            0.000704018248           
       1.234378               0.010122616             0.00064778705           
       1.237019              0.0103826893            0.000676059341           
       1.239659              0.0081697262            0.000594475446           
       1.242299             0.00917033861             0.00062182723           
       1.244940             0.00924990653            0.000607383975           
       1.247580              0.0101213348             0.00065478091           
       1.250221              0.0113197118            0.000688187441           
       1.252861              0.0101418663             0.00062013628           
       1.255501              0.0111927963            0.000707376913           
       1.258142             0.00930077545            0.000605927793           
       1.260782             0.00925065018            0.000617368043           
       1.263423              0.0105606995            0.000633835601           
       1.266063              0.0105756572            0.000650123238           
       1.268703              0.0105118433             0.00064278038           
       1.271344              0.0107892473             0.00067327639           
       1.273984             0.00963774817            0.000614573779           
       1.276624              0.0100662087             0.00061628657           
       1.279265              0.0108374809            0.000650080027           
       1.281905               0.010690466            0.000648521187           
       1.284546              0.0116610754            0.000654693089           
       1.287186              0.0101477136            0.000599195493           
       1.289826             0.00946473352            0.000609881561           
       1.292467              0.0115827071            0.000659817354           
       1.295107              0.0110786861            0.000638891556           
       1.297747              0.0106272969             0.00059878191           
       1.300388              0.0115227847            0.000679692976           
       1.303028              0.0103391536            0.000614646321           
       1.305669              0.0112071912             0.00065516538           
       1.308309              0.0114092921            0.000654536576           
       1.310949              0.0108559477            0.000637825341           
       1.313590             0.00962562257            0.000581821882           
       1.316230              0.0101630369            0.000637981848           
       1.318871              0.0112014437            0.000655969381           
       1.321511              0.0101461591            0.000612734164           
       1.324151             0.00992483618            0.000588048291           
       1.326792              0.0104749323            0.000607860114           
       1.329432               0.010302899            0.000598593725           
       1.332072              0.0100564958            0.000582578896           
       1.334713              0.0102647039            0.000607471744           
       1.337353              0.0117238692            0.000622609854           
       1.339994              0.0119541235            0.000659751817           
       1.342634              0.0106744083            0.000597838385           
       1.345274              0.0117810276            0.000649986585           
       1.347915              0.0111027485            0.000613573175           
       1.350555              0.0121374439             0.00065276229           
       1.353195              0.0118648678            0.000648560816           
       1.355836              0.0111469971            0.000618832107           
       1.358476              0.0104248981            0.000581188394           
       1.361117               0.011130576            0.000601361412           
       1.363757              0.0104378976            0.000600130654           
       1.366397              0.0114563185             0.00060970057           
       1.369038              0.0108968121            0.000600546684           
       1.371678              0.0107020073            0.000589907505           
       1.374319              0.0113645554            0.000602659053           
       1.376959               0.011719083            0.000605832636           
       1.379599              0.0128934939              0.0006810253           
       1.382240              0.0103772559            0.000574219177           
       1.384880               0.010759064            0.000619316724           
       1.387520              0.0110300584            0.000595545594           
       1.390161              0.0118792491            0.000586994965           
       1.392801             0.00952858429            0.000547748743           
       1.395442              0.0103560318            0.000578835574           
       1.398082              0.0116534876            0.000575008228           
       1.400722              0.0110684013            0.000586993188           
       1.403363              0.0110992397            0.000618741809           
       1.406003              0.0111420511            0.000580174911           
       1.408644              0.0117886113            0.000625156404           
       1.411284              0.0112916911            0.000579356846           
       1.413924             0.00957797836            0.000531606815           
       1.416565              0.0109943662            0.000567321699           
       1.419205              0.0106731402            0.000583097459           
       1.421845             0.00981929112            0.000558959093           
       1.424486              0.0113773382            0.000578345746           
       1.427126              0.0115702151            0.000605860493           
       1.429767              0.0106827165            0.000547742309           
       1.432407              0.0101706677            0.000559318386           
       1.435047              0.0102694936            0.000527838701           
       1.437688              0.0104840544            0.000541298404           
       1.440328              0.0104720381            0.000552139091           
       1.442968              0.0111262533            0.000581876163           
       1.445609              0.0107137504            0.000552874574           
       1.448249              0.0101573325            0.000551956476           
       1.450890              0.0110070175            0.000570828848           
       1.453530              0.0116798098            0.000615182758           
       1.456170             0.00994316636            0.000550877024           
       1.458811              0.0106131566            0.000544218111           
       1.461451              0.0112386082            0.000561493509           
       1.464092              0.0114439249            0.000570303546           
       1.466732               0.011579832            0.000568750213           
       1.469372              0.0108493277              0.0005376346           
       1.472013              0.0101693168             0.00056138381           
       1.474653              0.0106720412            0.000566221016           
       1.477293              0.0101102685            0.000562732417           
       1.479934              0.0112762477            0.000567082648           
       1.482574              0.0114159101            0.000551950537           
       1.485215               0.011063691            0.000553489437           
       1.487855              0.0111689531            0.000563452299           
       1.490495              0.0105765778            0.000546287274           
       1.493136              0.0110020188            0.000549529098           
       1.495776             0.00969428232            0.000513488039           
       1.498416              0.0115413819            0.000578605821           
       1.501057              0.0105657122            0.000541408452           
       1.503697             0.00999865188            0.000514913163           
       1.506338              0.0112050177            0.000555052402           
       1.508978             0.00980401742            0.000514088191           
       1.511618             0.00959346779            0.000541590478           
       1.514259              0.0107222264            0.000552785831           
       1.516899             0.00951943771            0.000507143878           
       1.519540             0.00914719387             0.00050514602           
       1.522180              0.0112045961            0.000563987519           
       1.524820              0.0102606903            0.000536681002           
       1.527461             0.00999744067             0.00053237167           
       1.530101              0.0111739182            0.000557195996           
       1.532741               0.011315779            0.000557467759           
       1.535382              0.0114276834            0.000569236257           
       1.538022              0.0101061677            0.000504291924           
       1.540663              0.0108224751            0.000561290136           
       1.543303             0.00977429812            0.000495286446           
       1.545943              0.0104648286            0.000542425725           
       1.548584                0.01039083            0.000550206923           
       1.551224              0.0114121236            0.000533132884           
       1.553864              0.0111338456            0.000556443588           
       1.556505             0.00980246516            0.000504376641           
       1.559145              0.0109802205            0.000540356756           
       1.561786              0.0101930247            0.000521027853           
       1.564426              0.0107155419            0.000517599176           
       1.567066              0.0106856067            0.000541586473           
       1.569707              0.0110029051            0.000539696607           
       1.572347              0.0103129645            0.000539796565           
       1.574988             0.00954163513              0.0004942085           
       1.577628              0.0090650805            0.000502303574           
       1.580268             0.00954829398            0.000499481455           
       1.582909               0.010392984            0.000552352315           
       1.585549              0.0100738374            0.000528017663           
       1.588189              0.0100544583            0.000515996448           
       1.590830              0.0095189607            0.000501437386           
       1.593470             0.00978204734            0.000528446926           
       1.596111             0.00965595913            0.000512592484           
       1.598751              0.0100457953            0.000506611963           
       1.601391             0.00842855531            0.000474282842           
       1.604032              0.0088068413            0.000494944302           
       1.606672              0.0100257466            0.000513085626           
       1.609312             0.00890894682            0.000504889705           
       1.611953              0.0097903271            0.000517929238           
       1.614593             0.00999132368            0.000513236207           
       1.617234             0.00861759844            0.000493988178           
       1.619874             0.00794500719            0.000472445379           
       1.622514             0.00969269773            0.000514708803           
       1.625155             0.00954150424            0.000513695463           
       1.627795             0.00903985642            0.000487758165           
       1.630436             0.00940281632            0.000494856267           
       1.633076             0.00988846952            0.000514130721           
       1.635716             0.00911839872            0.000486024243           
       1.638357              0.0098964234            0.000507669419           
       1.640997              0.0083148326            0.000479434149           
       1.643637             0.00842304783            0.000469569618           
       1.646278             0.00910963979            0.000503676337           
       1.648918             0.00946670768            0.000514853352           
       1.651559             0.00870018444            0.000497400302           
       1.654199             0.00848331621             0.00047769806           
       1.656839             0.00947024326            0.000504896998           
       1.659480               0.008433241             0.00049434403           
       1.662120             0.00895423709            0.000479756955           
       1.664761             0.00834486425            0.000481087714           
       1.667401             0.00798110482            0.000449683287           
       1.670041             0.00914489713            0.000488693637           
       1.672682             0.00903216183            0.000483675873           
       1.675322             0.00892816481            0.000477790959           
       1.677962             0.00927488127            0.000481607856           
       1.680603             0.00840634556            0.000459914797           
       1.683243              0.0087191707            0.000488681819           
       1.685884             0.00785538826            0.000467269833           
       1.688524             0.00868229944            0.000481752664           
       1.691164             0.00951620098            0.000504472051           
       1.693805             0.00930676615            0.000504370399           
       1.696445             0.00979652244            0.000520472872           
       1.699085             0.00908014922            0.000484291486           
       1.701726             0.00843592218            0.000449675938           
       1.704366             0.00822255925            0.000467692183           
       1.707007             0.00871407686            0.000470735419           
       1.709647             0.00900467078            0.000483923977           
       1.712287             0.00903011573            0.000488825359           
       1.714928             0.00855546237            0.000479641013           
       1.717568             0.00923722929            0.000469481154           
       1.720209             0.00842877026            0.000469736906           
       1.722849             0.00897391039             0.00048219747           
       1.725489             0.00913252948            0.000486848823           
       1.728130             0.00964015839            0.000531568735           
       1.730770             0.00749151037            0.000445043808           
       1.733410             0.00840395619            0.000463958407           
       1.736051             0.00953656865            0.000497674792           
       1.738691             0.00797346538            0.000445839931           
       1.741332             0.00855935369            0.000475436834           
       1.743972             0.00943314573            0.000515420984           
       1.746612             0.00883166635            0.000478896538           
       1.749253             0.00812675968             0.00046845956           
       1.751893             0.00814378622            0.000465507866           
       1.754533             0.00854785472            0.000476471182           
       1.757174             0.00882920869            0.000479714511           
       1.759814             0.00818179461            0.000454791967           
       1.762455             0.00855577493            0.000473609504           
       1.765095             0.00903626238            0.000465613242           
       1.767735             0.00892489871            0.000477010593           
       1.770376             0.00839500787            0.000463852971           
       1.773016             0.00881854114             0.00047222541           
       1.775657             0.00879018638            0.000464681866           
       1.778297             0.00791191105            0.000437060475           
       1.780937             0.00855461795            0.000479688418           
       1.783578             0.00943960002            0.000491290593           
       1.786218             0.00874422224            0.000493469404           
       1.788858              0.0095921561            0.000490875143           
       1.791499             0.00873221641            0.000463094946           
       1.794139             0.00891501823            0.000464120799           
       1.796780              0.0086754811            0.000455635907           
       1.799420              0.0090800666            0.000463557887           
       1.802060             0.00850670881            0.000452307798           
       1.804701              0.0101297113            0.000473655582           
       1.807341             0.00995620322            0.000493428044           
       1.809981              0.0091905554            0.000475656437           
       1.812622             0.00942656903            0.000473052541           
       1.815262               0.008626022            0.000462132627           
       1.817903             0.00855654842            0.000453448137           
       1.820543               0.009189299            0.000477237554           
       1.823183              0.0093791144            0.000481876245           
       1.825824             0.00849064706            0.000438017859           
       1.828464             0.00944636873            0.000481668167           
       1.831105             0.00925661037            0.000463623095           
       1.833745             0.00760307115            0.000429152013           
       1.836385             0.00839104121            0.000463708528           
       1.839026             0.00881110394            0.000473672329           
       1.841666             0.00921790769            0.000482765599           
       1.844306             0.00796113448            0.000436408312           
       1.846947             0.00885217027            0.000464216673           
       1.849587             0.00801396187            0.000487734995           
       1.852228             0.00819425338            0.000445966711           
       1.854868             0.00934529636             0.00050309846           
       1.857508             0.00878343376            0.000482956564           
       1.860149             0.00869349164            0.000489207059           
       1.862789             0.00820754311            0.000458810725           
       1.865429             0.00935313313            0.000511260664           
       1.868070             0.00957776569            0.000510468117           
       1.870710             0.00951994911            0.000497191999           
       1.873351             0.00863721811             0.00047943498           
       1.875991             0.00890024213             0.00049462293           
       1.878631             0.00805576317            0.000461560142           
       1.881272             0.00904298743            0.000485748233           
       1.883912             0.00918976652             0.00050960875           
       1.886553             0.00860132456            0.000487511136           
       1.889193             0.00796033577            0.000468192948           
       1.891833             0.00934239276            0.000526757884           
       1.894474             0.00840912871             0.00049540302           
       1.897114             0.00963545696              0.0005131575           
       1.899754             0.00917550523            0.000502855088           
       1.902395             0.00926750671            0.000495489242           
       1.905035             0.00856614563            0.000504556948           
       1.907676             0.00907923204            0.000489581206           
       1.910316             0.00947820635            0.000513504305           
       1.912956             0.00809323269            0.000464067146           
       1.915597             0.00868183429            0.000483332514           
       1.918237             0.00883363305            0.000503509832           
       1.920878             0.00956455864            0.000521782186           
       1.923518             0.00849129428            0.000491844656           
       1.926158             0.00889744289            0.000496936751           
       1.928799             0.00956152026            0.000509184983           
       1.931439             0.00804649859            0.000479357863           
       1.934079             0.00865062389            0.000518138561           
       1.936720             0.00842423831            0.000473747097           
       1.939360             0.00796791835            0.000491542796           
       1.942001             0.00875752345            0.000472319961           
       1.944641             0.00881443694             0.00048318606           
       1.947281               0.008459203            0.000468986305           
       1.949922             0.00766063126            0.000460989303           
       1.952562             0.00813987229            0.000490085207           
       1.955202             0.00867280641            0.000505257666           
       1.957843             0.00842881575            0.000485182636           
       1.960483             0.00866195604            0.000514225296           
       1.963124             0.00832861707            0.000493889165           
       1.965764             0.00757107953            0.000444065005           
       1.968404             0.00772943732            0.000444445685           
       1.971045             0.00810420591            0.000463991064           
       1.973685              0.0084565421            0.000497159076           
       1.976326             0.00855861904            0.000493276686           
       1.978966             0.00816772831            0.000486109446           
       1.981606             0.00799305225            0.000490912486           
       1.984247             0.00678119737            0.000449196374           
       1.986887              0.0068814243            0.000447083318           
       1.989527              0.0084325503            0.000489582985           
       1.992168             0.00806381935             0.00049675337           
       1.994808             0.00797559312            0.000491910715           
       1.997449             0.00775114651            0.000474980745           
       2.000089              0.0076166969            0.000468976532           
       2.002729              0.0085792756            0.000498027562           
       2.005370             0.00853636046            0.000491435183           
       2.008010             0.00822954607            0.000503581677           
       2.010650             0.00759139388            0.000487271875           
       2.013291             0.00851908572            0.000495252871           
       2.015931             0.00796718643            0.000475556491           
       2.018572             0.00729953764            0.000486873893           
       2.021212             0.00807124583            0.000502765308           
       2.023852             0.00801822189            0.000474278081           
       2.026493             0.00866593978             0.00051509136           
       2.029133              0.0076985933            0.000475721989           
       2.031774              0.0082568149            0.000517043471           
       2.034414             0.00814847917              0.0004726204           
       2.037054             0.00858811646            0.000497500923           
       2.039695             0.00789768215            0.000473480687           
       2.042335             0.00820730143            0.000501602782           
       2.044975             0.00829122053            0.000498046598           
       2.047616             0.00782881993            0.000482757177           
       2.050256             0.00748049739            0.000476361301           
       2.052897             0.00833269806            0.000512032609           
       2.055537             0.00787508072            0.000481079753           
       2.058177             0.00830701829            0.000483854128           
       2.060818             0.00710819139            0.000468875529           
       2.063458             0.00731312485            0.000495608359           
       2.066098             0.00826756251            0.000497097769           
       2.068739             0.00758154236            0.000483426654           
       2.071379             0.00787239063            0.000505459642           
       2.074020             0.00770432348            0.000489167869           
       2.076660             0.00753431532            0.000487651164           
       2.079300             0.00714989802            0.000486687405           
       2.081941             0.00768487955            0.000461988433           
       2.084581             0.00868878451            0.000518506657           
       2.087222             0.00781957006               0.000474379           
       2.089862             0.00720296124            0.000495881931           
       2.092502              0.0071234171            0.000478025199           
       2.095143             0.00773188148            0.000514282994           
       2.097783             0.00715120334             0.00047885056           
       2.100423             0.00747601841            0.000471779238           
       2.103064             0.00849361745            0.000521788312           
       2.105704             0.00792416388            0.000501496844           
       2.108345             0.00755389425            0.000470413156           
       2.110985             0.00725563629             0.00049241632           
       2.113625              0.0082688204             0.00053026123           
       2.116266             0.00780001881            0.000522317088           
       2.118906             0.00756652367            0.000479429123           
       2.121546             0.00773551417            0.000475497904           
       2.124187             0.00807923723            0.000510094608           
       2.126827             0.00750165994            0.000497009213           
       2.129468              0.0067618001            0.000473069377           
       2.132108              0.0072141356            0.000475406041           
       2.134748             0.00783527267            0.000493527499           
       2.137389             0.00730562773            0.000497165281           
       2.140029             0.00811530066            0.000469109268           
       2.142670             0.00829630946             0.00050690753           
       2.145310             0.00780092155            0.000478425085           
       2.147950             0.00795985165            0.000497420694           
       2.150591             0.00734681326            0.000473052702           
       2.153231             0.00764918159            0.000496853407           
       2.155871             0.00738471534            0.000471622689           
       2.158512             0.00776867842            0.000504736049           
       2.161152              0.0073321028            0.000474982338           
       2.163793             0.00731366572            0.000472249143           
       2.166433             0.00759609701            0.000494225067           
       2.169073             0.00701202285            0.000464272599           
       2.171714             0.00754698218             0.00047805658           
       2.174354             0.00756635561            0.000500165707           
       2.176995             0.00738268413            0.000491978834           
       2.179635             0.00862773294            0.000562011974           
       2.182275              0.0081484691            0.000515679922           
       2.184916             0.00807880982            0.000495946276           
       2.187556             0.00755440548            0.000474773268           
       2.190196             0.00677414043            0.000469811779           
       2.192837             0.00708846086            0.000477973047           
       2.195477             0.00693378835            0.000450691452           
       2.198118             0.00781413536             0.00049070725           
       2.200758              0.0085001028             0.00052506826           
       2.203398             0.00706346041             0.00048170585           
       2.206039             0.00664771308            0.000442273652           
       2.208679              0.0081041354            0.000499688898           
       2.211319             0.00772585261            0.000490700513           
       2.213960             0.00717477984            0.000479212101           
       2.216600             0.00760792203            0.000510478724           
       2.219241             0.00791537287             0.00049764017           
       2.221881             0.00631909143            0.000445552699           
       2.224521              0.0079482674            0.000505821668           
       2.227162             0.00786412965            0.000493063331           
       2.229802             0.00791066729            0.000510000526           
       2.232443             0.00745458554            0.000487271636           
       2.235083             0.00685651846            0.000481101159           
       2.237723             0.00765078761            0.000487695041           
       2.240364             0.00715029416            0.000483088528           
       2.243004             0.00636967453            0.000452316802           
       2.245644             0.00788107073            0.000508161949           
       2.248285             0.00671291566            0.000459596374           
       2.250925             0.00771596393            0.000495731228           
       2.253566             0.00697682649             0.00050395174           
       2.256206             0.00728179776            0.000504553884           
       2.258846             0.00747177559            0.000486191071           
       2.261487             0.00781318579            0.000521831117           
       2.264127             0.00739068233             0.00049016043           
       2.266767             0.00645180374            0.000470171061           
       2.269408             0.00768673531            0.000515301134           
       2.272048             0.00719780666            0.000495667105           
       2.274689             0.00760517391             0.00051621381           
       2.277329             0.00761670663            0.000486416959           
       2.279969              0.0062305035            0.000468283621           
       2.282610             0.00732098942            0.000493494386           
       2.285250             0.00768819811            0.000484042183           
       2.287891             0.00750222949            0.000512651286           
       2.290531             0.00723278997            0.000510127809           
       2.293171             0.00659553409            0.000474515422           
       2.295812             0.00759295764            0.000507085977           
       2.298452             0.00770913606            0.000534318611           
       2.301092             0.00758667142            0.000492488661           
       2.303733             0.00729440278            0.000502394251           
       2.306373             0.00693998032            0.000497754394           
       2.309014             0.00723495149            0.000498308119           
       2.311654             0.00710572963            0.000515343372           
       2.314294             0.00748806158            0.000487393653           
       2.316935             0.00717484107            0.000479062158           
       2.319575             0.00733489034            0.000507513845           
       2.322215             0.00667178481            0.000504440759           
       2.324856              0.0072088751            0.000482087258           
       2.327496             0.00750302045            0.000522963654           
       2.330137             0.00651245714            0.000466233921           
       2.332777             0.00762234647            0.000520091006           
       2.335417             0.00627784702            0.000457908851           
       2.338058             0.00661645561            0.000484138595           
       2.340698             0.00658612206             0.00047923171           
       2.343339             0.00692707757            0.000502295286           
       2.345979             0.00739620929            0.000491039379           
       2.348619             0.00714574153            0.000500296119           
       2.351260             0.00740703938            0.000506393477           
       2.353900             0.00658147325            0.000475827347           
       2.356540             0.00712498912            0.000494382412           
       2.359181              0.0071017043            0.000486654258           
       2.361821             0.00688429704            0.000462843512           
       2.364462             0.00664314441            0.000475522377           
       2.367102             0.00626073536            0.000474401683           
       2.369742             0.00684852475            0.000522255071           
       2.372383             0.00751054969            0.000495230388           
       2.375023             0.00765740367             0.00052565941           
       2.377663             0.00709143322            0.000483676817           
       2.380304             0.00709426592            0.000491839752           
       2.382944             0.00659315797            0.000451613784           
       2.385585             0.00759853793            0.000517074766           
       2.388225             0.00647975789            0.000475250055           
       2.390865             0.00638431444            0.000466891186           
       2.393506             0.00814667431             0.00051746022           
       2.396146             0.00692806644            0.000515961117           
       2.398787             0.00727582659            0.000487286112           
       2.401427             0.00766641309            0.000482803075           
       2.404067             0.00763787631            0.000492652815           
       2.406708             0.00729121503             0.00047557086           
       2.409348             0.00672777288            0.000484553484           
       2.411988             0.00686959681            0.000479733133           
       2.414629             0.00662498942            0.000485787054           
       2.417269              0.0069267146            0.000502525523           
       2.419910             0.00640146919            0.000484217966           
       2.422550             0.00720911434             0.00049162641           
       2.425190             0.00686196958            0.000505594428           
       2.427831             0.00702871432             0.00050882404           
       2.430471             0.00756641934            0.000502953608           
       2.433112             0.00734714136            0.000482608072           
       2.435752             0.00742121275            0.000513318163           
       2.438392             0.00796178498            0.000513184677           
       2.441033             0.00787489287            0.000540896647           
       2.443673             0.00691950842            0.000507415036           
       2.446313             0.00628211219            0.000483906327           
       2.448954             0.00732213382            0.000497425448           
       2.451594             0.00792649488            0.000556483918           
       2.454235             0.00742830369            0.000505449633           
       2.456875             0.00661598723            0.000499126768           
       2.459515             0.00717961362            0.000533413177           
       2.462156             0.00808173363            0.000534320124           
       2.464796             0.00762172818            0.000512196278           
       2.467436             0.00759035101            0.000528579707           
       2.470077             0.00713442342            0.000485717974           
       2.472717             0.00745841994            0.000498775783           
       2.475358             0.00744643436            0.000503571446           
       2.477998             0.00729784288             0.00049011745           
       2.480638             0.00759582573            0.000508908443           
       2.483279             0.00737022391            0.000523932137           
       2.485919             0.00763670058             0.00051397541           
       2.488560              0.0072574763            0.000499651377           
       2.491200             0.00730675458            0.000516252674           
       2.493840             0.00780401397            0.000564544906           
       2.496481             0.00698466647            0.000525350869           
       2.499121             0.00690250829            0.000507973449           
       2.501761             0.00705093707            0.000520208403           
       2.504402              0.0065169099            0.000492813932           
       2.507042             0.00653669817              0.0004899053           
       2.509683             0.00793631537            0.000531561595           
       2.512323             0.00730145924            0.000535477237           
       2.514963             0.00696306844              0.0005164611           
       2.517604             0.00726325085            0.000547337599           
       2.520244             0.00706787062            0.000506181397           
       2.522884             0.00883181649            0.000573923137           
       2.525525              0.0103319368            0.000627799765           
       2.528165             0.00768925552            0.000533150057           
       2.530806             0.00830994913             0.00056391174           
       2.533446             0.00846996805            0.000557163624           
       2.536086             0.00781546811            0.000530413739           
       2.538727             0.00742202162            0.000495877666           
       2.541367             0.00631035209              0.0004617398           
       2.544008             0.00670095589            0.000491401612           
       2.546648             0.00655343921            0.000494298151           
       2.549288              0.0071724576            0.000527653116           
       2.551929             0.00661109594            0.000498508711           
       2.554569             0.00809255555            0.000531364892           
       2.557209             0.00677694741            0.000490724035           
       2.559850             0.00721950331            0.000508120023           
       2.562490             0.00740253717            0.000531784887           
       2.565131             0.00748949026            0.000554607416           
       2.567771             0.00817310597            0.000558595943           
       2.570411             0.00694582003             0.00050937938           
       2.573052             0.00762999601            0.000540601111           
       2.575692             0.00726540029            0.000524332392           
       2.578332             0.00759114706             0.00053817415           
       2.580973             0.00546281212            0.000452194535           
       2.583613             0.00648358882            0.000480904506           
       2.586254             0.00590471043            0.000458296384           
       2.588894             0.00802820915            0.000554936138           
       2.591534             0.00711959295            0.000540978906           
       2.594175             0.00672436512            0.000515827755           
       2.596815             0.00672260644            0.000518801346           
       2.599456              0.0069218108            0.000499212828           
       2.602096             0.00707795594            0.000508653936           
       2.604736             0.00727142581            0.000527783907           
       2.607377             0.00689583321            0.000500427469           
       2.610017              0.0070027738            0.000495467911           
       2.612657             0.00574630069            0.000477390446           
       2.615298             0.00751989012            0.000533181505           
       2.617938             0.00813185386            0.000593122158           
       2.620579             0.00653368526            0.000510381735           
       2.623219             0.00715962571             0.00053350889           
       2.625859             0.00623448255            0.000484047833           
       2.628500             0.00705460121            0.000511526702           
       2.631140              0.0064897219            0.000498179469           
       2.633780             0.00748091526            0.000534407377           
       2.636421             0.00696570302            0.000528358232           
       2.639061             0.00659534123             0.00048398504           
       2.641702             0.00772736331            0.000536004627           
       2.644342             0.00651579289            0.000494291445           
       2.646982             0.00657778841             0.00048921277           
       2.649623             0.00703442452            0.000530171973           
       2.652263             0.00625180331            0.000494794643           
       2.654904             0.00737921552            0.000538101407           
       2.657544             0.00635685375            0.000470417229           
       2.660184             0.00678324383            0.000514263864           
       2.662825             0.00677160246            0.000525742982           
       2.665465             0.00755824175            0.000537203196           
       2.668105             0.00682277751            0.000537978858           
       2.670746             0.00731675871            0.000514654411           
       2.673386              0.0117146552            0.000671124151           
       2.676027              0.0135056797            0.000709038276           
       2.678667             0.00915282233             0.00056954434           
       2.681307              0.0103980983            0.000596464612           
       2.683948              0.0141926095            0.000715980326           
       2.686588              0.0104569642            0.000604380191           
       2.689229             0.00926127536            0.000555786366           
       2.691869                0.00893116             0.00057684689           
       2.694509             0.00889281001            0.000575923369           
       2.697150             0.00804770043            0.000538985792           
       2.699790             0.00804080588            0.000564807079           
       2.702430             0.00714151827            0.000508802104           
       2.705071             0.00627772078             0.00049293061           
       2.707711             0.00696962653            0.000504102229           
       2.710352             0.00687955786              0.0005291942           
       2.712992             0.00666626118            0.000530557861           
       2.715632             0.00628914467            0.000478126156           
       2.718273             0.00679296021             0.00051497857           
       2.720913             0.00717188232            0.000527641235           
       2.723553             0.00650044053            0.000505705548           
       2.726194             0.00830081959            0.000597365403           
       2.728834             0.00610762074            0.000512648062           
       2.731475             0.00806806875             0.00054378663           
       2.734115             0.00704454804            0.000523894558           
       2.736755             0.00717052485             0.00053290863           
       2.739396             0.00738540592            0.000537701085           
       2.742036             0.00707836029            0.000550916324           
       2.744677             0.00684916633            0.000525815404           
       2.747317              0.0066825977            0.000515678677           
       2.749957             0.00713494122            0.000536585428           
       2.752598             0.00740982823            0.000552758662           
       2.755238             0.00805953488            0.000586889781           
       2.757878             0.00887517399            0.000610486631           
       2.760519             0.00821212331            0.000581013118           
       2.763159             0.00921947256             0.00060946589           
       2.765800             0.00665308364            0.000493393757           
       2.768440             0.00738560925            0.000523676389           
       2.771080             0.00852223192            0.000567226561           
       2.773721             0.00623542617            0.000497707342           
       2.776361             0.00761899911            0.000557751192           
       2.779001             0.00672367033            0.000542609443           
       2.781642             0.00704829512            0.000551459716           
       2.784282             0.00604364251            0.000519044471           
       2.786923             0.00698062862            0.000562742333           
       2.789563             0.00697317322             0.00054169746           
       2.792203             0.00702238872             0.00051929868           
       2.794844             0.00676160197            0.000558474912           
       2.797484             0.00729386813            0.000547416089           
       2.800125             0.00663017691            0.000548795555           
       2.802765              0.0066548444            0.000540356815           
       2.805405             0.00680098957            0.000548106775           
       2.808046             0.00702667883            0.000566920977           
       2.810686             0.00648020589            0.000500267661           
       2.813326             0.00582687115            0.000492749177           
       2.815967             0.00753920345            0.000576430413           
       2.818607             0.00637249194            0.000505722128           
       2.821248             0.00749362702            0.000537021997           
       2.823888             0.00641333202            0.000515698489           
       2.826528             0.00703663599            0.000523135277           
       2.829169             0.00655877233            0.000529021759           
       2.831809             0.00736743229            0.000568313364           
       2.834449             0.00625607223            0.000527007319           
       2.837090              0.0059559597            0.000496646595           
       2.839730             0.00747185711            0.000553554336           
       2.842371             0.00666180964            0.000523441835           
       2.845011             0.00718900817            0.000548093739           
       2.847651             0.00739834945            0.000556699493           
       2.850292              0.0074344565            0.000563533143           
       2.852932              0.0057049927            0.000504412065           
       2.855573             0.00598776906            0.000501273561           
       2.858213             0.00763740046             0.00059450364           
       2.860853             0.00737075363            0.000543285235           
       2.863494             0.00629630462            0.000519883941           
       2.866134             0.00756298454            0.000592219695           
       2.868774             0.00604326041            0.000520277257           
       2.871415             0.00618503794            0.000534543429           
       2.874055             0.00700728106             0.00054386108           
       2.876696             0.00636963213            0.000532551215           
       2.879336              0.0070421819            0.000539694799           
       2.881976              0.0068124416            0.000547502637           
       2.884617             0.00759884728            0.000569748382           
       2.887257             0.00681979534            0.000542538779           
       2.889897             0.00752972967            0.000558345908           
       2.892538             0.00700103601            0.000589805243           
       2.895178              0.0061615038             0.00049988138           
       2.897819             0.00702986307            0.000544675563           
       2.900459             0.00685047299            0.000527221462           
       2.903099             0.00652033333            0.000509095545           
       2.905740             0.00593309133            0.000498193643           
       2.908380             0.00690037915            0.000543376573           
       2.911021             0.00640640571            0.000532078603           
       2.913661             0.00640410491             0.00053182367           
       2.916301             0.00727232888            0.000567269146           
       2.918942             0.00712760406            0.000537180613           
       2.921582             0.00638446617             0.00053193936           
       2.924222             0.00669289579            0.000527648166           
       2.926863             0.00691719822            0.000558740194           
       2.929503              0.0072075936            0.000577105193           
       2.932144             0.00651261761            0.000526600409           
       2.934784             0.00639355054            0.000513208971           
       2.937424             0.00724420799            0.000551892798           
       2.940065             0.00715787754            0.000523307266           
       2.942705             0.00751138574            0.000535401351           
       2.945346             0.00748228749            0.000567094701           
       2.947986             0.00652572371            0.000540014643           
       2.950626             0.00760633443            0.000579731315           
       2.953267             0.00649805001            0.000527176731           
       2.955907             0.00708445699            0.000571016379           
       2.958547             0.00700278407            0.000535952432           
       2.961188             0.00612113468            0.000522766078           
       2.963828              0.0081176339            0.000588880398           
       2.966469             0.00770159143            0.000562691144           
       2.969109             0.00723407849            0.000553425266           
       2.971749             0.00665056801            0.000527325751           
       2.974390             0.00833588617            0.000580148188           
       2.977030             0.00675021161            0.000533728742           
       2.979670             0.00818483669            0.000571666172           
       2.982311             0.00814774829            0.000591159277           
       2.984951             0.00756921788            0.000541915912           
       2.987592             0.00698345702            0.000530950733           
       2.990232             0.00712668653            0.000557816892           
       2.992872             0.00692030884            0.000517768254           
       2.995513             0.00849992059            0.000561390565           
       2.998153              0.0110706657            0.000651449304           
       3.000794              0.0123718968            0.000667048773           
       3.003434              0.0121885692            0.000663087813           
       3.006074              0.0600852131             0.00145160477           
       3.008715               0.130807834             0.00206752073           
       3.011355               0.158239205             0.00219286845           
       3.013995              0.0730030188             0.00149350247           
       3.016636              0.0548335985             0.00126749628           
       3.019276               0.116827886             0.00181861641           
       3.021917                0.48873637             0.00357664937           
       3.024557                1.82119908             0.00678809211           
       3.027197                1.08901422             0.00511760735           
       3.029838               0.491405597             0.00348648044           
       3.032478                0.26058645             0.00254146689           
       3.035118              0.0736787308              0.0013695169           
       3.037759               0.109613961             0.00166827856           
       3.040399               0.155897719             0.00205227364           
       3.043040               0.571935121             0.00397905291           
       3.045680               0.380852441             0.00305498343           
       3.048320              0.0744981697             0.00138054464           
       3.050961               0.115526386             0.00174945985           
       3.053601              0.0869824517             0.00146204308           
       3.056242              0.0598743746             0.00128968871           
       3.058882              0.0523280694             0.00129333575           
       3.061522              0.0431359462             0.00115208725           
       3.064163              0.0495942863             0.00121977013           
       3.066803               0.114180453             0.00194848743           
       3.069443                0.11471008              0.0020433396           
       3.072084              0.0496303828             0.00130874038           
       3.074724              0.0390760946             0.00129687956           
       3.077365              0.0881664796              0.0020165519           
       3.080005              0.0138421017            0.000803549526           
       3.082645              0.0122807271            0.000795113982           
       3.085286              0.0126927381            0.000814719285           
       3.087926             0.00937280062            0.000694712135           
       3.090566              0.0105123609            0.000720876492           
       3.093207             0.00999466504            0.000731442394           
       3.095847             0.00894896723            0.000663388036           
       3.098488             0.00834619904            0.000710378913           
       3.101128             0.00998475946            0.000781985206           
       3.103768              0.0106610299            0.000792831431           
       3.106409             0.00875295896            0.000764557462           
       3.109049             0.00983675381            0.000777806682           
       3.111690             0.00910253071            0.000735371232           
       3.114330             0.00915395687            0.000753133499           
       3.116970             0.00768322236            0.000695281443           
       3.119611              0.0116825963            0.000912593511           
       3.122251              0.0229775865              0.0013387686           
       3.124891              0.0353141978             0.00167515343           
       3.127532              0.0207866099              0.0012573027           
       3.130172              0.0112065351            0.000939126164           
       3.132813             0.00751289936            0.000756994204           
       3.135453             0.00701246006            0.000725323564           
       3.138093             0.00737908006             0.00080619629           
       3.140734             0.00667961487            0.000707649188           
       3.143374             0.00687158144            0.000759047553           
       3.146014             0.00582169724            0.000752138594           
       3.148655             0.00711724268            0.000773074965           
       3.151295             0.00600917498            0.000756990291           
       3.153936             0.00701983799            0.000790332784           
       3.156576             0.00580851192            0.000709138495           
       3.159216             0.00635870384            0.000745675299           
       3.161857             0.00717645917            0.000788949994           
       3.164497             0.00832319071            0.000892735745           
       3.167138             0.00766867522            0.000885403207           
       3.169778             0.00612296239            0.000778108049           
       3.172418             0.00687047416            0.000815853853           
       3.175059             0.00517806931            0.000627917261           
       3.177699             0.00613583992            0.000723813457           
       3.180339              0.0065788893            0.000803020584           
       3.182980             0.00490399406            0.000716808611           
       3.185620             0.00651901745             0.00084167427           
       3.188261             0.00574003819            0.000803881764           
       3.190901             0.00627786014            0.000773199215           
       3.193541             0.00513905479            0.000735072641           
       3.196182             0.00490428169            0.000748348413           
       3.198822             0.00683336207            0.000883647179           
       3.201463             0.00628501715            0.000832851217           
       3.204103             0.00622697719            0.000823953036           
       3.206743             0.00686219556            0.000864877505           
       3.209384             0.00470363461            0.000773624643           
       3.212024             0.00554592489            0.000783181705           
       3.214664             0.00616387124            0.000938895384           
       3.217305             0.00437454314            0.000751866016           
       3.219945             0.00589917977            0.000898657528           
       3.222586             0.00746719568            0.000963018381           
       3.225226             0.00565795366            0.000929933373           
       3.227866             0.00484978836            0.000786909803           
       3.230507             0.00573183474             0.00088679953           
       3.233147             0.00768468511             0.00103510509           
       3.235787             0.00553923852            0.000899355231           
       3.238428             0.00608062271             0.00101684004           
       3.241068             0.00428507226            0.000798164437           
       3.243709             0.00523778748            0.000911705032           
       3.246349             0.00500349707            0.000812303518           
       3.248989             0.00753552055             0.00117708043           
       3.251630             0.00648905639             0.00105185111           
       3.254270             0.00558190335            0.000871887446           
       3.256911             0.00599798333            0.000986145097           
       3.259551             0.00451085634            0.000920699068           
       3.262191             0.00644510397             0.00112413975           
       3.264832             0.00642989499             0.00117317096           
       3.267472             0.00544306021             0.00101258981           
       3.270112             0.00481451098             0.00105244748           
       3.272753             0.00578316422             0.00105580056           
       3.275393             0.00642819635             0.00113577465           
       3.278034             0.00459491006            0.000960794595           
       3.280674             0.00568228715             0.00115941508           
       3.283314             0.00491896483            0.000964770085           
       3.285955              0.0054480073             0.00104759423           
       3.288595             0.00621985311             0.00124531425           
       3.291235              0.0052192426             0.00117268707           
       3.293876             0.00733833014             0.00141050093           
       3.296516             0.00649282916             0.00127371752           
       3.299157             0.00679544501             0.00128668885           
       3.301797             0.00826246747             0.00161839722           
       3.304437             0.00519446912             0.00111175658           
       3.307078             0.00373968932             0.00103911993           
       3.309718             0.00429043296             0.00114882472           
       3.312359             0.00707639319             0.00147574848           
       3.314999             0.00714711246              0.0014602375           
       3.317639             0.00847667561             0.00152089821           
       3.320280             0.00587621881             0.00134633742           
       3.322920             0.00574100575             0.00135315545           
       3.325560             0.00505225823             0.00127025648           
       3.328201               0.005151999             0.00115525638           
       3.330841             0.00730585442             0.00167432163           
       3.333482             0.00444872414             0.00123497572           
       3.336122             0.00858266355             0.00171613447           
       3.338762             0.00819265807             0.00193683624           
       3.341403               0.004620189             0.00138982217           
       3.344043             0.00453218526             0.00132157475           
       3.346683             0.00437892826             0.00132621179           
       3.349324             0.00716707123             0.00190762608           
       3.351964             0.00680704944              0.0019659248           
       3.354605             0.00146984594             0.00104476248           
       3.357245             0.00542054606              0.0018099265           
       3.359885             0.00621811346             0.00155150905           
       3.362526             0.00543935745             0.00181466734           
       3.365166              0.0021045563              0.0010646438           
       3.367807             0.00353958323             0.00176701861           
       3.370447             0.00787613534             0.00218647879           
       3.373087             0.00484540261             0.00183392206           
       3.375728             0.00705673345             0.00249779634           
       3.378368             0.00384155396             0.00273513355           
       3.381008             0.00432015046             0.00216248269           
       3.383649             0.00623415122             0.00208389738           
       3.386289             0.00389264485             0.00194890467           
       3.388930             0.00980528232             0.00489262095           
       3.391570              0.0084791499             0.00321847518           
       3.394210             0.00391146598             0.00276639222           
       3.396851             0.00479695322             0.00342689276           
       3.399491               0.014379404             0.00593485764           
       3.402131             0.00963818464             0.00687438693           
       3.404772           -2.62070827e-05                         0           
       3.407412                       nan                       nan           
       3.410053              0.0183866451                 0.0134475           
       3.412693                       nan                       nan           
       3.415333           -2.63218355e-05                         0           
