################################################################################
# EDF_DataBlockID                     0.Image.Psd
# EDF_BinarySize                      2105344
# EDF_HeaderSize                      2560
# ByteOrder                           LowByteFirst
# DataType                            FloatValue
# Dim_1                               512
# Dim_2                               1028
# Image                               0
# HeaderID                            EH:000000:000000:000000
# Size                                2105344
# Center_1                            304.9000
# Center_2                            588.7000
# Comment                             Xenocs_Cell_Window - 20251028_20perc_iodine_1.23mg
# DDummy                              0.6
# Date                                2025-10-31T06:09:54
# Delta                               21.910000
# Dummy                               -1.5
# ExposureTime                        360
# Gamma                               15.360000
# Intensity1                          8.54964e-10
# PSize_1                             7.5e-05
# PSize_2                             7.5e-05
# Pressure                            0.0328312
# SampleDistance                      0.115750
# SampleEnvKind                       large
# SampleEnvPN                         ElectroChemical cell
# SampleEnvSN                         1141
# Thickness                           0
# Wavelength                          1.541891e-10
# Wavelength                          1.54189e-10
# aux                                 0
# aux_dial                            0.002375
# beamx                               588.434
# beamx_dial                          588.434
# beamz                               657.808
# beamz_dial                          657.808
# det0x                               0
# det0x_dial                          6.36945
# det0xvd                             0
# det0xvd_dial                        0
# det0y                               450.002
# det0y_dial                          481.635
# det0z                               0
# det0z_dial                          1.23302
# det0zvd                             0
# det0zvd_dial                        0
# mag                                 1.818
# mag_dial                            1.818
# om                                  0.2499
# om_dial                             -0.610199
# phi                                 -0.0120535
# phi_dial                            0
# ry                                  0.599993
# ry_dial                             0.599993
# s1bot                               0.8
# s1bot_dial                          -1.66094
# s1hl                                0.8
# s1hl_dial                           -0.608437
# s1hr                                0.8
# s1hr_dial                           0.970938
# s1top                               0.8
# s1top_dial                          -0.461562
# s2bot                               0.45
# s2bot_dial                          1.36109
# s2hl                                0.45
# s2hl_dial                           -0.83375
# s2hr                                0.45
# s2hr_dial                           -0.118594
# s2top                               0.45
# s2top_dial                          1.44734
# w2theta                             32
# w2theta_dial                        32
# waxsch                              19.2605
# waxsch_dial                         -32.7355
# waxsh                               137.085
# waxsh_dial                          -43.5338
# waxsth                              26.0607
# waxsth_dial                         -19.4086
# waxsz                               67.0407
# waxsz_dial                          -23.7954
# wind                                65.9854
# wind_dial                           66.0041
# wpsi                                124
# wpsi_dial                           124
# wstod                               115
# wstod_dial                          115
# x                                   0
# x_dial                              1.00969
# z                                   0
# z_dial                              13.3172
# CountCutoff                         6807993
# DetectorModel                       Dectris EIGER2 Si 500K, S/N E-01-0554
# ThresholdSetting                    4023.88989258
# Saturation                          0
# FlatField                           Corrected
# BackgroundReductionExtra            0.02
# BackgroundCorrectionConstant        0.0026712
# Detector                            0
# Monitor                             0
# Pil_Roi0                            0
# SumForIntensity1                    3.07787e+08
# TransmittedFlux                     854964
# det                                 0
# mon                                 0
# pilai0                              3.07787e+08
# pilai1                              780610
# pilct0                              5.33048e+08
# pilct1                              780610
# pilroi0                             0
# pilroi1                             0
# sec                                 1
# title                               20251028_20perc_iodine_1.23mg_1_00580.edf
# usaxs0                              0
# Operation                           Azimuthal average I(q)
# Error_model                         ErrorModel.poisson
# Geometrical_correction              True
# Transmission_correction             True
# Thickness_correction                False
# Binning mode                        Uniform
# Binning factor                      1.0
# Psi                                 0.0
# Omega                               0.2499
# MaskInvalidPixels                   True
# DetectorEdge                        3
# MaskFiles                           ['WAXS_corrected.edf']
################################################################################
    q(A⁻¹)                Intensity(a.u.)            Sigma_I(a.u.)            
       0.693100             0.00412655539             0.00428286114           
       0.695741             0.00274718198             0.00285161958           
       0.698381             0.00846775453             0.00613260313           
       0.701021             0.00881658101             0.00884632756           
       0.703662             0.00285407854             0.00290526223           
       0.706302              0.0119470685             0.00460193213           
       0.708942              0.0142139922             0.00647871124           
       0.711583             0.00663299438             0.00383240322           
       0.714223             0.00586791338             0.00416157905           
       0.716864             0.00878061556             0.00333080775           
       0.719504             0.00732347048             0.00328256555           
       0.722144              0.0088199469             0.00333606684           
       0.724785              0.0047809641             0.00195925473           
       0.727425             0.00886495355              0.0036092041           
       0.730065             0.00876185832             0.00253812227           
       0.732706             0.00820201308             0.00206216494           
       0.735346             0.00607610065             0.00231366119           
       0.737987              0.0131759969             0.00240755433           
       0.740627               0.003878465             0.00194895035           
       0.743267              0.0087053255             0.00195571472           
       0.745908              0.0108605421             0.00236999523           
       0.748548             0.00529206154             0.00152492539           
       0.751189              0.0064102891             0.00226147344           
       0.753829             0.00607802045             0.00202422538           
       0.756469             0.00520565746             0.00151059808           
       0.759110              0.0058425765              0.0016864904           
       0.761750             0.00716328523             0.00165119535           
       0.764390             0.00660078558             0.00165899705           
       0.767031             0.00934275724             0.00170916698           
       0.769671             0.00730986449             0.00188588959           
       0.772312              0.0053349591             0.00122653092           
       0.774952             0.00510793857             0.00162067339           
       0.777592             0.00678689815             0.00136070984           
       0.780233             0.00790273266             0.00177150456           
       0.782873              0.0054209919              0.0014032519           
       0.785513              0.0078801301              0.0018087008           
       0.788154               0.007485077             0.00147462653           
       0.790794             0.00498291974             0.00143841727           
       0.793435             0.00841613729             0.00167938227           
       0.796075             0.00870831295              0.0016456078           
       0.798715             0.00776831977             0.00183668895           
       0.801356             0.00671377223              0.0014695734           
       0.803996             0.00502063815              0.0012956275           
       0.806637             0.00908044817             0.00138664905           
       0.809277             0.00496188411              0.0011094751           
       0.811917             0.00475429033             0.00101525409           
       0.814558             0.00655039271             0.00123855537           
       0.817198             0.00992245542             0.00144822611           
       0.819838             0.00516541259             0.00105752713           
       0.822479              0.0071813431             0.00146423555           
       0.825119             0.00691461985             0.00122288603           
       0.827760             0.00735308119             0.00127740716           
       0.830400             0.00645300802             0.00112629193           
       0.833040              0.0068865592             0.00121900272           
       0.835681              0.0067196516             0.00136890087           
       0.838321             0.00885795216             0.00131916464           
       0.840961             0.00486330584             0.00106498654           
       0.843602              0.0060487084             0.00108917668           
       0.846242             0.00781037245             0.00123747975           
       0.848883             0.00841765655             0.00131469377           
       0.851523             0.00759652101             0.00123341108           
       0.854163             0.00836160338             0.00137614573           
       0.856804             0.00639654468             0.00108222684           
       0.859444              0.0064880688             0.00106793237           
       0.862085             0.00763951669             0.00120778881           
       0.864725             0.00519609893             0.00101939105           
       0.867365             0.00859079301             0.00121544311           
       0.870006             0.00825465504             0.00113533848           
       0.872646             0.00737329636             0.00112520717           
       0.875286             0.00666563122             0.00102926047           
       0.877927             0.00844083693             0.00111764464           
       0.880567              0.0065335211             0.00101871548           
       0.883208             0.00528076702            0.000907228994           
       0.885848             0.00733331655             0.00111004828           
       0.888488             0.00870584823             0.00113441369           
       0.891129             0.00636079697            0.000995643503           
       0.893769             0.00727726036              0.0010191915           
       0.896410             0.00691885125            0.000926548162           
       0.899050             0.00672593492             0.00100464509           
       0.901690             0.00818620614             0.00120731729           
       0.904331             0.00729682781             0.00101053845           
       0.906971             0.00634170924             0.00100222064           
       0.909611             0.00670470069            0.000938088893           
       0.912252              0.0079640118             0.00105603037           
       0.914892             0.00801376718             0.00115761535           
       0.917533             0.00791385125              0.0010882516           
       0.920173             0.00604769568            0.000882645469           
       0.922813             0.00693264418            0.000991691545           
       0.925454             0.00690710034            0.000891344248           
       0.928094             0.00626817511            0.000906505264           
       0.930734             0.00713823018             0.00104148661           
       0.933375             0.00803017712             0.00109378123           
       0.936015             0.00747921364            0.000958702824           
       0.938656             0.00666201276            0.000970650408           
       0.941296             0.00801100796            0.000964636889           
       0.943936              0.0075771566            0.000920003891           
       0.946577             0.00692836213            0.000873918832           
       0.949217             0.00856418358            0.000893497538           
       0.951858             0.00744233597            0.000871904464           
       0.954498              0.0070000561            0.000978767183           
       0.957138             0.00626319457            0.000877087802           
       0.959779             0.00787158491            0.000969309764           
       0.962419             0.00775943098            0.000955978222           
       0.965059             0.00688639912            0.000947189483           
       0.967700             0.00627911117            0.000926347574           
       0.970340             0.00716360681            0.000875559075           
       0.972981             0.00789435002            0.000837417223           
       0.975621              0.0069467595            0.000835691761           
       0.978261             0.00833673832            0.000869875429           
       0.980902             0.00712100068            0.000961887075           
       0.983542              0.0057027405            0.000762282426           
       0.986182             0.00875547681             0.00092733001           
       0.988823             0.00853056808            0.000888798668           
       0.991463              0.0081155573            0.000924901626           
       0.994104             0.00671804903            0.000820903453           
       0.996744             0.00689219921            0.000848098267           
       0.999384             0.00717193521            0.000773722877           
       1.002025             0.00792065757            0.000907535207           
       1.004665             0.00730485043            0.000796481932           
       1.007306             0.00843298707            0.000851397389           
       1.009946             0.00921286948            0.000907569003           
       1.012586             0.00815177086            0.000831459068           
       1.015227             0.00811959259            0.000891482597           
       1.017867             0.00778033431            0.000838686241           
       1.020507             0.00756237295            0.000800921579           
       1.023148             0.00799148392            0.000888397062           
       1.025788             0.00887712167            0.000858541856           
       1.028429             0.00692408556            0.000794380935           
       1.031069             0.00849794715            0.000828155664           
       1.033709             0.00800530255            0.000854433189           
       1.036350             0.00830743346             0.00078174501           
       1.038990             0.00798885264            0.000780696454           
       1.041630             0.00830374582            0.000830167144           
       1.044271             0.00879297982            0.000803412498           
       1.046911             0.00723044356            0.000766328361           
       1.049552             0.00763182808            0.000827170857           
       1.052192             0.00890610342            0.000815935583           
       1.054832             0.00723142761             0.00074191966           
       1.057473              0.0100873139            0.000863806641           
       1.060113             0.00859747905            0.000777750062           
       1.062754             0.00894980654            0.000810176343           
       1.065394             0.00778248848            0.000798754215           
       1.068034              0.0070041394            0.000689457113           
       1.070675             0.00850551835             0.00079253002           
       1.073315             0.00913231356            0.000832983854           
       1.075955             0.00925912982            0.000791825634           
       1.078596             0.00879952372            0.000820401144           
       1.081236             0.00715894914            0.000708581314           
       1.083877             0.00817588193            0.000750445033           
       1.086517             0.00822058453            0.000806893579           
       1.089157             0.00802258134            0.000827098005           
       1.091798             0.00883229194            0.000760844293           
       1.094438             0.00891635987            0.000761989337           
       1.097078             0.00826166092            0.000703485105           
       1.099719             0.00847370869            0.000770629986           
       1.102359             0.00996357483            0.000782582371           
       1.105000             0.00867715028            0.000816636009           
       1.107640             0.00900134351            0.000795289762           
       1.110280             0.00787036282            0.000678524717           
       1.112921             0.00891824625            0.000775889248           
       1.115561             0.00696686194            0.000651767154           
       1.118202             0.00948593806            0.000761242523           
       1.120842             0.00836067016             0.00075111915           
       1.123482             0.00808294368            0.000735312717           
       1.126123              0.0081075852            0.000706362342           
       1.128763             0.00940663009            0.000766066215           
       1.131403             0.00822034402            0.000690056412           
       1.134044              0.0088413426             0.00073640226           
       1.136684             0.00969805431             0.00082229216           
       1.139325             0.00999295524            0.000768925411           
       1.141965             0.00921795264            0.000743388948           
       1.144605              0.0086654302            0.000687251937           
       1.147246             0.00979473905            0.000747770771           
       1.149886              0.0104491221            0.000769604305           
       1.152527             0.00973277303            0.000753556663           
       1.155167             0.00880798553            0.000681845502           
       1.157807             0.00838120814            0.000713128766           
       1.160448              0.0106632369            0.000785493879           
       1.163088             0.00868748408            0.000676280191           
       1.165728              0.0083717683            0.000681616059           
       1.168369             0.00921895656            0.000721881554           
       1.171009             0.00935214936            0.000705609109           
       1.173650             0.00979443942            0.000741048322           
       1.176290             0.00905456954            0.000696281586           
       1.178930             0.00816429096            0.000648002473           
       1.181571             0.00881541897            0.000686699675           
       1.184211             0.00924734351            0.000705815124           
       1.186851             0.00931687993            0.000692654926           
       1.189492              0.0095036539             0.00069485692           
       1.192132             0.00928283489            0.000679031715           
       1.194773             0.00926427487            0.000681316449           
       1.197413               0.010128947            0.000682582257           
       1.200053             0.00963215251            0.000682545208           
       1.202694             0.00953012195            0.000645614625           
       1.205334             0.00963396957            0.000699551054           
       1.207975              0.0097993269             0.00067344738           
       1.210615             0.00900257021            0.000712083972           
       1.213255             0.00817511939            0.000607644303           
       1.215896              0.0102566083            0.000692951441           
       1.218536             0.00992719522            0.000655515276           
       1.221176             0.00930258732             0.00068989488           
       1.223817             0.00986005677            0.000666738326           
       1.226457              0.0103129779            0.000695617031           
       1.229098             0.00914121244            0.000654875746           
       1.231738              0.0112189023            0.000729061871           
       1.234378             0.00976007133            0.000638972186           
       1.237019             0.00994160604            0.000664550117           
       1.239659              0.0092927285             0.00063690018           
       1.242299             0.00967280856            0.000641538793           
       1.244940              0.0102116913            0.000641081248           
       1.247580             0.00978060552             0.00064659086           
       1.250221              0.0100802528            0.000652370548           
       1.252861             0.00935189504            0.000598201624           
       1.255501              0.0101061136            0.000675216809           
       1.258142               0.011178438            0.000667300471           
       1.260782             0.00973004868            0.000636040981           
       1.263423              0.0104847115            0.000634421811           
       1.266063             0.00882227936            0.000596488378           
       1.268703              0.0108457341            0.000655876734           
       1.271344              0.0108056462            0.000676850509           
       1.273984              0.0108310228            0.000654471217           
       1.276624              0.0109494847             0.00064567825           
       1.279265             0.00995280542             0.00062581358           
       1.281905              0.0105827561            0.000648178798           
       1.284546              0.0112090911            0.000644797331           
       1.287186               0.011019797            0.000627250202           
       1.289826              0.0106636793            0.000650301002           
       1.292467              0.0104684496            0.000630128984           
       1.295107              0.0105968506            0.000627683917           
       1.297747              0.0104897907            0.000597599536           
       1.300388              0.0108296346            0.000661927671           
       1.303028              0.0104691932            0.000621310904           
       1.305669              0.0105770837            0.000639374182           
       1.308309              0.0115215867            0.000660739535           
       1.310949              0.0124019718            0.000684830109           
       1.313590              0.0110638094            0.000626610339           
       1.316230              0.0113849135            0.000678314365           
       1.318871              0.0112583178            0.000660621793           
       1.321511              0.0107898099            0.000634742728           
       1.324151              0.0111259021            0.000625444118           
       1.326792              0.0109984688              0.0006256965           
       1.329432              0.0104436905            0.000605409194           
       1.332072              0.0111184021            0.000615349955           
       1.334713              0.0103474359            0.000612687215           
       1.337353              0.0101467795            0.000581854229           
       1.339994              0.0119661706            0.000663084534           
       1.342634              0.0113412754            0.000619031026           
       1.345274              0.0113506895            0.000640904773           
       1.347915              0.0107378994            0.000606150343           
       1.350555              0.0127524603            0.000672137314           
       1.353195              0.0102792617            0.000606414799           
       1.355836                0.01021639            0.000595130493           
       1.358476              0.0111075843            0.000602643407           
       1.361117              0.0104216597            0.000584540702           
       1.363757              0.0112905137            0.000626997373           
       1.366397              0.0111567228            0.000604410443           
       1.369038              0.0108589484            0.000602227388           
       1.371678             0.00976023483            0.000565914747           
       1.374319              0.0120849757            0.000624292227           
       1.376959              0.0114020913            0.000600299089           
       1.379599              0.0110747161            0.000634035848           
       1.382240              0.0110250171            0.000594559938           
       1.384880              0.0110236664            0.000629735491           
       1.387520              0.0115503632            0.000612200255           
       1.390161              0.0105548831            0.000555822564           
       1.392801              0.0102121876            0.000569634346           
       1.395442              0.0106100501            0.000588554685           
       1.398082               0.011493681            0.000573647687           
       1.400722              0.0108903914            0.000584900421           
       1.403363              0.0109987028            0.000618732827           
       1.406003              0.0120405612             0.00060585586           
       1.408644              0.0117061942            0.000625798905           
       1.411284              0.0118009723            0.000594970074           
       1.413924              0.0116555427            0.000589100566           
       1.416565              0.0107997613            0.000564834154           
       1.419205              0.0109235472            0.000592579283           
       1.421845              0.0113832134            0.000604563568           
       1.424486              0.0108056991            0.000566191343           
       1.427126               0.010939299            0.000591788118           
       1.429767              0.0115483884            0.000572091775           
       1.432407              0.0112948808            0.000592099599           
       1.435047              0.0102355036             0.00052935973           
       1.437688               0.010930385            0.000555212737           
       1.440328              0.0115406532            0.000582260947           
       1.442968              0.0101159798            0.000557352109           
       1.445609              0.0102208874            0.000542462515           
       1.448249               0.012138793            0.000606139141           
       1.450890              0.0107563587             0.00056685672           
       1.453530               0.011002551            0.000599794587           
       1.456170               0.010056372             0.00055652227           
       1.458811             0.00938192614            0.000514003748           
       1.461451              0.0110532269            0.000559374407           
       1.464092              0.0110099984            0.000561929428           
       1.466732              0.0104592266            0.000542987467           
       1.469372              0.0114741351            0.000555412122           
       1.472013              0.0113779932            0.000596508184           
       1.474653              0.0107643353            0.000571248962           
       1.477293              0.0119037364            0.000613383114           
       1.479934              0.0107853537            0.000557122666           
       1.482574             0.00985204398              0.0005150835           
       1.485215              0.0112706537            0.000561181633           
       1.487855              0.0108934715            0.000558989498           
       1.490495              0.0102068241            0.000539092626           
       1.493136             0.00985080423            0.000522347984           
       1.495776              0.0108626789             0.00054602251           
       1.498416              0.0100925505             0.00054353052           
       1.501057              0.0104590328            0.000541116757           
       1.503697              0.0110479837            0.000543718812           
       1.506338              0.0112006613            0.000557466945           
       1.508978              0.0105724086            0.000536280663           
       1.511618              0.0102993169            0.000563711632           
       1.514259              0.0104075215            0.000547088582           
       1.516899              0.0115991419            0.000562351744           
       1.519540              0.0108597128            0.000552906558           
       1.522180              0.0108100015            0.000556485488           
       1.524820              0.0100452059            0.000533429378           
       1.527461              0.0102747526            0.000542157889           
       1.530101              0.0114182545            0.000565815289           
       1.532741             0.00962303561            0.000516420115           
       1.535382              0.0104408031            0.000546575277           
       1.538022              0.0105205681            0.000516865966           
       1.540663             0.00968540741             0.00053339954           
       1.543303              0.0111091314             0.00053042414           
       1.545943              0.0096535306             0.00052334356           
       1.548584              0.0110184632            0.000569155608           
       1.551224              0.0119200412            0.000547344418           
       1.553864              0.0100827417            0.000531933623           
       1.556505             0.00949559775            0.000498675512           
       1.559145              0.0105503259            0.000532080778           
       1.561786              0.0100728146            0.000520300684           
       1.564426              0.0101668654            0.000506465213           
       1.567066              0.0110880605            0.000554198805           
       1.569707              0.0101053745             0.00051956727           
       1.572347              0.0101766258            0.000538653931           
       1.574988              0.0103267867            0.000516477001           
       1.577628              0.0107149127            0.000548585508           
       1.580268              0.0101590604            0.000517550611           
       1.582909             0.00914926052            0.000520605345           
       1.585549             0.00999222675            0.000528264833           
       1.588189              0.0101979994            0.000522028774           
       1.590830              0.0103654117            0.000525635633           
       1.593470             0.00874719567            0.000501984715           
       1.596111             0.00919754161            0.000502550815           
       1.598751             0.00951012803            0.000495160552           
       1.601391             0.00963760569            0.000509465754           
       1.604032             0.00914053661            0.000506525911           
       1.606672             0.00881716855            0.000483354353           
       1.609312             0.00859007643            0.000498025319           
       1.611953             0.00876696634             0.00049234108           
       1.614593             0.00897326344            0.000488596733           
       1.617234             0.00904032082            0.000508258824           
       1.619874             0.00938459796            0.000515800633           
       1.622514             0.00940068839            0.000509200319           
       1.625155             0.00896028329             0.00050006649           
       1.627795             0.00894257499             0.00048733169           
       1.630436             0.00932002324            0.000494912215           
       1.633076             0.00864533871             0.00048291378           
       1.635716              0.0090762819            0.000487104574           
       1.638357             0.00995521671            0.000511489598           
       1.640997             0.00867682974            0.000491985524           
       1.643637             0.00888787397            0.000484544732           
       1.646278             0.00905339408            0.000504401344           
       1.648918             0.00915337012            0.000508562285           
       1.651559             0.00926243801            0.000515553867           
       1.654199             0.00966793212            0.000512279554           
       1.656839             0.00910610007            0.000497345287           
       1.659480             0.00966120853            0.000531517225           
       1.662120             0.00861406871            0.000472694694           
       1.664761             0.00893315663            0.000500019198           
       1.667401              0.0079722517            0.000451476675           
       1.670041             0.00851060199            0.000473583965           
       1.672682             0.00933973342            0.000494077852           
       1.675322             0.00781284962            0.000448984282           
       1.677962             0.00840053653             0.00046042879           
       1.680603             0.00777096625            0.000444202349           
       1.683243             0.00848054965            0.000484139111           
       1.685884             0.00761726164            0.000462224466           
       1.688524             0.00892620051            0.000490692749           
       1.691164             0.00793635032             0.00046279142           
       1.693805             0.00863739977            0.000488102775           
       1.696445             0.00864831145            0.000491244122           
       1.699085             0.00776863169            0.000449989296           
       1.701726             0.00865046563            0.000457427938           
       1.704366             0.00878658711            0.000485664424           
       1.707007             0.00818213229             0.00045821469           
       1.709647             0.00818564298             0.00046348875           
       1.712287             0.00905157089            0.000491630281           
       1.714928             0.00833673588            0.000475622254           
       1.717568             0.00885651741            0.000461794088           
       1.720209              0.0087878971            0.000481819788           
       1.722849              0.0088168339            0.000480131245           
       1.725489             0.00853678325            0.000472841174           
       1.728130             0.00857717203            0.000503684958           
       1.730770             0.00901056857             0.00049030209           
       1.733410             0.00858846956            0.000471155891           
       1.736051             0.00919193156            0.000490820329           
       1.738691              0.0081011545             0.00045143834           
       1.741332             0.00831040559            0.000470601195           
       1.743972              0.0088676237            0.000502003827           
       1.746612              0.0083512482            0.000467805844           
       1.749253             0.00860745941            0.000484306688           
       1.751893             0.00864911074             0.00048191356           
       1.754533             0.00840747303            0.000474690336           
       1.757174             0.00835170701            0.000468682962           
       1.759814              0.0089701566            0.000478363559           
       1.762455             0.00766236253            0.000450237494           
       1.765095             0.00820065409            0.000445579016           
       1.767735             0.00808682211            0.000456126072           
       1.770376             0.00876255264            0.000476052319           
       1.773016             0.00831953952            0.000460755153           
       1.775657             0.00806855341            0.000447222967           
       1.778297             0.00972010965            0.000486637972           
       1.780937             0.00860670669            0.000483333616           
       1.783578             0.00848841312            0.000467998523           
       1.786218             0.00828307044            0.000482463975           
       1.788858             0.00922468089            0.000483568691           
       1.791499             0.00829050975            0.000453281496           
       1.794139             0.00865050303            0.000459261639           
       1.796780             0.00948091056             0.00047848217           
       1.799420              0.0086071143            0.000453375261           
       1.802060             0.00831512122            0.000449218012           
       1.804701             0.00925369583            0.000454769481           
       1.807341             0.00917761989            0.000475895461           
       1.809981              0.0100135269            0.000498753104           
       1.812622             0.00919533473            0.000469338199           
       1.815262             0.00906066759            0.000475785307           
       1.817903             0.00780500962            0.000435045433           
       1.820543             0.00822040089            0.000453429211           
       1.823183              0.0086416564            0.000464646505           
       1.825824             0.00906481964            0.000454643079           
       1.828464               0.008767279            0.000466141198           
       1.831105             0.00831110916            0.000441304281           
       1.833745             0.00840614087            0.000453298765           
       1.836385             0.00916673004            0.000486871052           
       1.839026             0.00804016555            0.000454532483           
       1.841666             0.00925474091            0.000485927914           
       1.844306             0.00827864682             0.00044704865           
       1.846947              0.0097709692            0.000489930249           
       1.849587             0.00895244764            0.000517846151           
       1.852228             0.00879197982            0.000464045607           
       1.854868             0.00917173994            0.000500670371           
       1.857508              0.0085137855             0.00047764676           
       1.860149             0.00821846753            0.000477815895           
       1.862789             0.00969680578            0.000500969054           
       1.865429             0.00904382042            0.000505020914           
       1.868070             0.00930937735            0.000505552674           
       1.870710              0.0088634786            0.000481923933           
       1.873351             0.00928691451            0.000499399466           
       1.875991             0.00945960403             0.00051224696           
       1.878631             0.00892919066            0.000488146947           
       1.881272             0.00975828507            0.000506887513           
       1.883912             0.00854942625            0.000493767725           
       1.886553             0.00834185293            0.000482283844           
       1.889193             0.00880331628            0.000494597486           
       1.891833             0.00839970117            0.000501745491           
       1.894474             0.00921845434            0.000521052856           
       1.897114             0.00943625071            0.000510133489           
       1.899754             0.00785632801             0.00046741994           
       1.902395             0.00879011483            0.000484752019           
       1.905035             0.00770047564            0.000480558006           
       1.907676             0.00889204854            0.000486710448           
       1.910316             0.00951536444            0.000516848546           
       1.912956             0.00893407789            0.000489794895           
       1.915597             0.00887181596            0.000490813052           
       1.918237             0.00915255769            0.000514848074           
       1.920878             0.00808591275             0.00048193768           
       1.923518             0.00802012616            0.000480176816           
       1.926158              0.0086750218            0.000492916523           
       1.928799             0.00894483437            0.000494729537           
       1.931439             0.00822031903            0.000486710033           
       1.934079             0.00875550852            0.000523639578           
       1.936720             0.00928091622            0.000499512364           
       1.939360             0.00798814964            0.000494403538           
       1.942001             0.00911722401            0.000484112766           
       1.944641             0.00879140756            0.000484747851           
       1.947281             0.00880656753             0.00048069361           
       1.949922             0.00948006036            0.000515149991           
       1.952562             0.00803926646            0.000489260986           
       1.955202             0.00869630125            0.000508241296           
       1.957843             0.00802332974            0.000475520086           
       1.960483             0.00793428649            0.000494389189           
       1.963124             0.00796950262            0.000485320053           
       1.965764              0.0080360639            0.000459577663           
       1.968404             0.00916433937            0.000486143981           
       1.971045             0.00820419709            0.000468966696           
       1.973685             0.00791117323            0.000483046554           
       1.976326             0.00791458729            0.000476510478           
       1.978966             0.00878866799            0.000506540908           
       1.981606             0.00827533471            0.000501776263           
       1.984247             0.00711722512            0.000462283058           
       1.986887             0.00813720906            0.000488378584           
       1.989527             0.00814557849            0.000483367436           
       1.992168             0.00810662512            0.000500334037           
       1.994808             0.00851988308             0.00051072978           
       1.997449             0.00775202246            0.000477166691           
       2.000089             0.00837296944            0.000493943306           
       2.002729             0.00738003099            0.000464009357           
       2.005370             0.00801504177            0.000478357232           
       2.008010             0.00829540393            0.000507890775           
       2.010650             0.00801195353            0.000502862639           
       2.013291             0.00810400715            0.000485232624           
       2.015931             0.00752118208            0.000464154165           
       2.018572             0.00768481352            0.000501828191           
       2.021212             0.00741801583             0.00048418181           
       2.023852              0.0076971894            0.000466798748           
       2.026493             0.00898996066             0.00052701734           
       2.029133             0.00841526269            0.000499632813           
       2.031774             0.00864009803            0.000531312087           
       2.034414             0.00787895874            0.000466850871           
       2.037054             0.00823262634            0.000489309567           
       2.039695             0.00813857836            0.000482832277           
       2.042335             0.00797899836            0.000496825077           
       2.044975             0.00742812969              0.0004735546           
       2.047616             0.00792970086            0.000488066013           
       2.050256             0.00761548095              0.0004828247           
       2.052897             0.00789130659            0.000500551575           
       2.055537             0.00707808478            0.000458159852           
       2.058177             0.00704532141            0.000447622439           
       2.060818             0.00767123074            0.000489305515           
       2.063458             0.00761421137            0.000508006384           
       2.066098             0.00762766882            0.000479643497           
       2.068739             0.00812382592            0.000502691671           
       2.071379             0.00785601516            0.000507228795           
       2.074020             0.00902498946            0.000531843182           
       2.076660             0.00821471578            0.000511508926           
       2.079300             0.00761886311            0.000504678549           
       2.081941             0.00773126022            0.000465486716           
       2.084581              0.0072933505             0.00047720825           
       2.087222               0.009007731            0.000511459557           
       2.089862             0.00836655595            0.000536865728           
       2.092502             0.00728965092             0.00048576872           
       2.095143             0.00737994043             0.00050472588           
       2.097783             0.00736457521            0.000488150641           
       2.100423             0.00784332959            0.000485426468           
       2.103064             0.00743546428            0.000490423893           
       2.105704             0.00671850915            0.000463871311           
       2.108345             0.00709629433            0.000458014677           
       2.110985             0.00748577337            0.000502438141           
       2.113625             0.00724577292            0.000498631869           
       2.116266             0.00698753349            0.000496612832           
       2.118906             0.00665673108            0.000451727258           
       2.121546             0.00774406213            0.000477923081           
       2.124187             0.00781927762            0.000504102029           
       2.126827             0.00783103818            0.000510111366           
       2.129468             0.00833136057            0.000527498482           
       2.132108             0.00702217008            0.000471170177           
       2.134748             0.00736258367            0.000480583657           
       2.137389             0.00744209424            0.000504068064           
       2.140029             0.00707171433             0.00043989967           
       2.142670              0.0068466868            0.000462589828           
       2.145310             0.00737379114            0.000467257177           
       2.147950             0.00778167827            0.000494057589           
       2.150591             0.00763108248            0.000484309153           
       2.153231              0.0075995545            0.000497490086           
       2.155871               0.007657903            0.000482450008           
       2.158512             0.00831573547             0.00052457871           
       2.161152             0.00715389411             0.00047130714           
       2.163793             0.00840582672             0.00050858485           
       2.166433             0.00710315012            0.000480092134           
       2.169073             0.00775862422             0.00049058394           
       2.171714             0.00684091227            0.000457213689           
       2.174354             0.00744643547            0.000498441655           
       2.176995             0.00744482002             0.00049629049           
       2.179635             0.00774554062            0.000534924718           
       2.182275             0.00672551532            0.000470624542           
       2.184916             0.00768960375            0.000486051735           
       2.187556             0.00776483501            0.000483528196           
       2.190196              0.0065410561            0.000463756828           
       2.192837             0.00771145195            0.000500800887           
       2.195477             0.00798532778            0.000485858697           
       2.198118             0.00784550156            0.000493926063           
       2.200758              0.0072040518             0.00048558098           
       2.203398             0.00643336614            0.000461808448           
       2.206039             0.00745523789            0.000470495272           
       2.208679             0.00740186323            0.000479718493           
       2.211319             0.00684688376            0.000464044208           
       2.213960             0.00730290716            0.000485669637           
       2.216600              0.0079581477            0.000524469448           
       2.219241             0.00736771146            0.000482298178           
       2.221881             0.00809686057            0.000506640223           
       2.224521             0.00762895606             0.00049780967           
       2.227162             0.00664879915            0.000455426772           
       2.229802             0.00826828366            0.000523770851           
       2.232443             0.00701053002            0.000474683771           
       2.235083             0.00647637404            0.000469699521           
       2.237723             0.00671362549            0.000458926778           
       2.240364             0.00725738725            0.000488905018           
       2.243004             0.00738836664            0.000489359356           
       2.245644             0.00767613872            0.000503791126           
       2.248285             0.00759620392            0.000491121427           
       2.250925             0.00666360072            0.000462780704           
       2.253566             0.00788328249            0.000538124926           
       2.256206              0.0081896711            0.000537515577           
       2.258846             0.00718485218            0.000478931678           
       2.261487             0.00694084273            0.000494073516           
       2.264127             0.00669541925            0.000468656285           
       2.266767             0.00770844779            0.000516259867           
       2.269408             0.00709095864            0.000497178326           
       2.272048             0.00844956418            0.000539481729           
       2.274689             0.00797043462            0.000530866869           
       2.277329             0.00660379393            0.000454979079           
       2.279969             0.00793169238              0.0005307621           
       2.282610             0.00708363685            0.000487635201           
       2.285250             0.00839788831            0.000508189342           
       2.287891             0.00717981663            0.000503794163           
       2.290531              0.0065438533            0.000487430192           
       2.293171             0.00800561022             0.00052516061           
       2.295812             0.00704322753            0.000490604524           
       2.298452              0.0069425233            0.000509361007           
       2.301092             0.00781275113            0.000502044449           
       2.303733             0.00880193096            0.000554381011           
       2.306373             0.00776242829            0.000528815724           
       2.309014             0.00750229645            0.000509737797           
       2.311654             0.00686353185             0.00050878671           
       2.314294             0.00686735705            0.000468877677           
       2.316935             0.00701581597            0.000475876649           
       2.319575             0.00793770591            0.000530356822           
       2.322215              0.0073471383            0.000531762662           
       2.324856             0.00743014041            0.000491654468           
       2.327496             0.00763819406            0.000530051858           
       2.330137             0.00741637858            0.000499800804           
       2.332777             0.00718116331            0.000507109772           
       2.335417             0.00734849874            0.000497671261           
       2.338058             0.00747048521            0.000516774393           
       2.340698              0.0072426683             0.00050483509           
       2.343339              0.0070910277            0.000510514691           
       2.345979             0.00740857761            0.000493683622           
       2.348619             0.00670857942            0.000486954453           
       2.351260             0.00698399101            0.000493954776           
       2.353900             0.00684607309            0.000487503996           
       2.356540             0.00688053727            0.000488035778           
       2.359181             0.00790764852            0.000515860757           
       2.361821              0.0076585533             0.00049039646           
       2.364462             0.00687413354            0.000485917646           
       2.367102             0.00748213274            0.000520973736           
       2.369742             0.00763960962            0.000554101481           
       2.372383             0.00731997016            0.000491129087           
       2.375023             0.00691784108            0.000501901552           
       2.377663             0.00705905961            0.000484765009           
       2.380304             0.00768373478            0.000514192402           
       2.382944             0.00718958484            0.000473742046           
       2.385585             0.00660254022             0.00048418734           
       2.388225             0.00756649971            0.000515893282           
       2.390865             0.00712934296             0.00049562462           
       2.393506             0.00653287088             0.00046548791           
       2.396146             0.00664191882            0.000507489792           
       2.398787             0.00695107644            0.000478452108           
       2.401427             0.00798175296            0.000494871721           
       2.404067             0.00736192507            0.000485869828           
       2.406708             0.00626309285            0.000442771118           
       2.409348             0.00767354628            0.000519844789           
       2.411988             0.00631614881            0.000462093483           
       2.414629             0.00714885216            0.000506921927           
       2.417269             0.00805232854            0.000544283034           
       2.419910             0.00751744039            0.000527115325           
       2.422550             0.00727876046             0.00049624088           
       2.425190             0.00756749743            0.000533363881           
       2.427831             0.00720851348            0.000517633184           
       2.430471             0.00733469991            0.000497443175           
       2.433112             0.00685424289            0.000468257461           
       2.435752             0.00653124485             0.00048374529           
       2.438392             0.00706962396            0.000485776154           
       2.441033             0.00757693322            0.000532976756           
       2.443673             0.00682593002            0.000506263017           
       2.446313             0.00667955818            0.000501247133           
       2.448954             0.00721814964            0.000496125656           
       2.451594             0.00720108329            0.000532820002           
       2.454235             0.00808048448            0.000529567516           
       2.456875             0.00713603696            0.000520728867           
       2.459515             0.00778975042            0.000558141804           
       2.462156             0.00733905187            0.000511491971           
       2.464796             0.00754271104            0.000511850347           
       2.467436             0.00790848548            0.000541995641           
       2.470077             0.00747009612            0.000499272225           
       2.472717             0.00730012468             0.00049569742           
       2.475358             0.00710448937            0.000494109182           
       2.477998             0.00683975551            0.000476642514           
       2.480638             0.00793201788            0.000522412523           
       2.483279             0.00796970189            0.000547299828           
       2.485919             0.00711518343            0.000498370224           
       2.488560             0.00666651838            0.000481053515           
       2.491200             0.00747321805            0.000524473389           
       2.493840             0.00663159211            0.000522778783           
       2.496481             0.00695827111             0.00052674069           
       2.499121             0.00675245321            0.000504705355           
       2.501761             0.00634371884            0.000495673251           
       2.504402             0.00721387239            0.000520853903           
       2.507042             0.00722560187            0.000517415593           
       2.509683             0.00761718078            0.000523131468           
       2.512323             0.00637160338            0.000502493126           
       2.514963             0.00691268366            0.000516928174           
       2.517604             0.00745631952            0.000557085164           
       2.520244             0.00720790242            0.000513494634           
       2.522884             0.00726070126            0.000522742217           
       2.525525             0.00738567593             0.00053320594           
       2.528165             0.00809465312             0.00054951052           
       2.530806              0.0085681391            0.000575207824           
       2.533446              0.0117144954            0.000658223279           
       2.536086             0.00765685426            0.000527390175           
       2.538727             0.00768994831            0.000507042926           
       2.541367             0.00670038586             0.00047795829           
       2.544008             0.00747694913            0.000521434769           
       2.546648             0.00747454591            0.000530293534           
       2.549288             0.00822779755            0.000567709142           
       2.551929             0.00669287865            0.000503862542           
       2.554569             0.00689951358            0.000492865961           
       2.557209             0.00705121279             0.00050283067           
       2.559850             0.00662958303            0.000489131163           
       2.562490             0.00701245464            0.000519936495           
       2.565131             0.00642699646            0.000516099156           
       2.567771             0.00674386059            0.000509715782           
       2.570411             0.00701820283            0.000514354012           
       2.573052             0.00664928751            0.000506957919           
       2.575692             0.00741400132            0.000532074959           
       2.578332              0.0066186612            0.000504805157           
       2.580973             0.00715362055            0.000519816073           
       2.583613             0.00694676382            0.000500048303           
       2.586254              0.0065795417             0.00048597567           
       2.588894             0.00615319428             0.00048803791           
       2.591534             0.00709314428            0.000542427529           
       2.594175              0.0069834017            0.000528058639           
       2.596815             0.00613648286            0.000497922315           
       2.599456             0.00715975606             0.00051002864           
       2.602096             0.00674284788            0.000498723393           
       2.604736             0.00784683231            0.000550760921           
       2.607377             0.00711636667            0.000510677239           
       2.610017             0.00661096483            0.000483595759           
       2.612657              0.0064053349            0.000506314129           
       2.615298             0.00685734195            0.000511466046           
       2.617938             0.00697740302             0.00055190693           
       2.620579             0.00791386691            0.000564260912           
       2.623219             0.00706189285            0.000532263444           
       2.625859             0.00698571285            0.000514710485           
       2.628500             0.00669636368            0.000500634953           
       2.631140             0.00732590366            0.000531707713           
       2.633780             0.00636204726            0.000495065998           
       2.636421             0.00707485255            0.000534902064           
       2.639061             0.00773539621            0.000526531261           
       2.641702             0.00763848625            0.000535335569           
       2.644342             0.00700551815            0.000514860016           
       2.646982             0.00734106586            0.000519166872           
       2.649623             0.00643582795            0.000509417978           
       2.652263             0.00722346786            0.000534274916           
       2.654904             0.00669230527            0.000514773852           
       2.657544             0.00666508472            0.000483876492           
       2.660184              0.0067689279             0.00051605598           
       2.662825             0.00699330724            0.000536708703           
       2.665465             0.00716724489            0.000525501423           
       2.668105             0.00702107989            0.000548221595           
       2.670746             0.00649079734             0.00048693942           
       2.673386              0.0102559299            0.000630805123           
       2.676027              0.0112074331            0.000648834767           
       2.678667             0.00956239431            0.000584794023           
       2.681307              0.0124593945            0.000655882085           
       2.683948              0.0147736461            0.000733809592           
       2.686588              0.0108715324            0.000619045214           
       2.689229             0.00963587291            0.000569491962           
       2.691869              0.0105520908            0.000629862072           
       2.694509             0.00926484797             0.00059051906           
       2.697150             0.00750436392            0.000522838953           
       2.699790             0.00743783751            0.000545686567           
       2.702430             0.00706207515            0.000508264019           
       2.705071             0.00638225138            0.000499276724           
       2.707711             0.00640360165            0.000485395331           
       2.710352             0.00689556939            0.000532217873           
       2.712992              0.0071674825            0.000552642765           
       2.715632             0.00774611174            0.000533037993           
       2.718273             0.00716867728            0.000531433237           
       2.720913             0.00677446202            0.000515144579           
       2.723553             0.00667649165             0.00051483736           
       2.726194             0.00688889586            0.000546668394           
       2.728834             0.00737664376            0.000565955482           
       2.731475             0.00731736973            0.000520224506           
       2.734115             0.00797532432            0.000559965245           
       2.736755             0.00747733728            0.000546663834           
       2.739396             0.00681678052            0.000518934996           
       2.742036             0.00669987001            0.000538421103           
       2.744677             0.00662943845            0.000519663718           
       2.747317             0.00693958963            0.000527889455           
       2.749957             0.00662323131            0.000519335742           
       2.752598             0.00710539468            0.000543744863           
       2.755238             0.00718705887            0.000556732707           
       2.757878             0.00704002727            0.000546190908           
       2.760519             0.00766469343            0.000563865052           
       2.763159             0.00885355341            0.000599963388           
       2.765800             0.00797059807            0.000542496812           
       2.768440             0.00808231192            0.000550309753           
       2.771080             0.00863578305            0.000573588352           
       2.773721              0.0074202823            0.000545407075           
       2.776361             0.00737510292            0.000551245637           
       2.779001             0.00713733974            0.000561593281           
       2.781642             0.00647507597            0.000530962395           
       2.784282             0.00619445758            0.000527869298           
       2.786923             0.00631287741            0.000537583059           
       2.789563             0.00678223993            0.000536658144           
       2.792203             0.00743744992            0.000536854243           
       2.794844             0.00697999002            0.000570001298           
       2.797484              0.0060831181            0.000502193751           
       2.800125             0.00654519369            0.000547745546           
       2.802765             0.00787068431            0.000590320008           
       2.805405             0.00729755635            0.000570344715           
       2.808046             0.00668965361            0.000555672452           
       2.810686             0.00642753179            0.000500494974           
       2.813326             0.00672662693            0.000531834428           
       2.815967             0.00696547387            0.000556581882           
       2.818607             0.00724219357            0.000541579168           
       2.821248             0.00732927384            0.000533514331           
       2.823888             0.00643493828            0.000518914452           
       2.826528             0.00634100637             0.00049886167           
       2.829169             0.00632841058            0.000522010403           
       2.831809             0.00605637902            0.000517613855           
       2.834449             0.00697631931            0.000559047258           
       2.837090             0.00653856999            0.000522736171           
       2.839730             0.00666504003             0.00052519059           
       2.842371             0.00862444136            0.000598283994           
       2.845011             0.00687009898            0.000538234369           
       2.847651             0.00689724529            0.000539959041           
       2.850292             0.00758020871            0.000571616833           
       2.852932             0.00714890371            0.000567214363           
       2.855573             0.00715354175             0.00055039238           
       2.858213             0.00681038254             0.00056394541           
       2.860853             0.00734383547            0.000544757227           
       2.863494             0.00817687386            0.000595150445           
       2.866134             0.00691186704            0.000568726552           
       2.868774             0.00568643499            0.000506977637           
       2.871415             0.00727828074            0.000582499812           
       2.874055             0.00629798788            0.000517945064           
       2.876696             0.00664760618            0.000546520457           
       2.879336             0.00724227681            0.000549796221           
       2.881976             0.00696612504            0.000556160356           
       2.884617             0.00779211878            0.000579570939           
       2.887257              0.0081798669            0.000596881076           
       2.889897             0.00672537058            0.000530079894           
       2.892538             0.00717957795            0.000599993447           
       2.895178             0.00675455055            0.000525764676           
       2.897819             0.00706203837            0.000548402052           
       2.900459             0.00708698519             0.00053868284           
       2.903099             0.00693187559            0.000527301922           
       2.905740             0.00628354711            0.000515026623           
       2.908380             0.00691696514            0.000546502061           
       2.911021             0.00811700438            0.000601639085           
       2.913661             0.00659129981            0.000541992845           
       2.916301             0.00812318607            0.000602261615           
       2.918942             0.00682829203            0.000528170532           
       2.921582             0.00742615886            0.000576303856           
       2.924222             0.00809607985            0.000582967535           
       2.926863             0.00816787405            0.000609914413           
       2.929503             0.00741075828            0.000587842169           
       2.932144             0.00772781757            0.000576237357           
       2.934784             0.00778110639            0.000568739564           
       2.937424             0.00700945301            0.000545344468           
       2.940065             0.00660606543             0.00050501659           
       2.942705             0.00750805819             0.00053771583           
       2.945346             0.00694286103            0.000548753378           
       2.947986             0.00672296767            0.000550606435           
       2.950626             0.00731178571             0.00057097929           
       2.953267             0.00672966905            0.000538928484           
       2.955907             0.00755331337            0.000592288922           
       2.958547             0.00740803776            0.000553747844           
       2.961188             0.00639016681            0.000536558532           
       2.963828             0.00693271472            0.000546680533           
       2.966469              0.0060460748            0.000500825204           
       2.969109             0.00674762159            0.000536923373           
       2.971749              0.0066570951            0.000529982546           
       2.974390             0.00737866009            0.000548303958           
       2.977030              0.0074628239            0.000563745477           
       2.979670             0.00963783313            0.000623155974           
       2.982311             0.00757075454             0.00057243327           
       2.984951             0.00735533223            0.000536632688           
       2.987592             0.00782443423            0.000564566418           
       2.990232             0.00775335068            0.000584469865           
       2.992872             0.00714463153            0.000528484404           
       2.995513              0.0097596951            0.000604289957           
       2.998153              0.0123349707            0.000690768293           
       3.000794              0.0127030913            0.000678990553           
       3.003434              0.0105833853             0.00062069259           
       3.006074              0.0514303017             0.00134909861           
       3.008715               0.130857969             0.00207731644           
       3.011355               0.187018196             0.00239478783           
       3.013995               0.088120395             0.00164832684           
       3.016636               0.061901428             0.00135283001           
       3.019276               0.134198372             0.00195799261           
       3.021917               0.503532838             0.00364688874           
       3.024557                1.68657312             0.00656207486           
       3.027197                1.11470968             0.00520116519           
       3.029838               0.511438005               0.003573002           
       3.032478               0.256571587             0.00253327536           
       3.035118              0.0715638609             0.00135585356           
       3.037759              0.0975517553             0.00158096681           
       3.040399               0.141735942             0.00196573495           
       3.043040               0.547536235             0.00391095069           
       3.045680               0.377894133              0.0030569275           
       3.048320              0.0829303511             0.00146320098           
       3.050961               0.109720063             0.00171267906           
       3.053601              0.0901513201             0.00149520235           
       3.056242              0.0616693604             0.00131482727           
       3.058882              0.0563642682             0.00134838974           
       3.061522              0.0434159921             0.00116107466           
       3.064163               0.055089382             0.00129141462           
       3.066803                0.11941362             0.00200169652           
       3.069443               0.111704641             0.00202555922           
       3.072084              0.0397179259             0.00117609539           
       3.074724              0.0421570451             0.00135315868           
       3.077365                0.07609266             0.00188190898           
       3.080005              0.0135364192              0.0007982393           
       3.082645              0.0142113704            0.000859221046           
       3.085286              0.0142261938            0.000866451534           
       3.087926              0.0105640182            0.000740891039           
       3.090566                0.01012045            0.000710526402           
       3.093207               0.010643657            0.000758247553           
       3.095847             0.00922841655            0.000676728314           
       3.098488             0.00853323012            0.000721559249           
       3.101128             0.00946247887            0.000764718807           
       3.103768              0.0109390325            0.000806752483           
       3.106409             0.00896317283            0.000777200635           
       3.109049             0.00811794382            0.000709803875           
       3.111690              0.0078416022              0.0006856422           
       3.114330             0.00778001845            0.000697473039           
       3.116970             0.00704401424             0.00066875744           
       3.119611               0.012296986            0.000940538566           
       3.122251              0.0179111388             0.00118736568           
       3.124891              0.0348235867             0.00167103769           
       3.127532              0.0239569443             0.00135591762           
       3.130172              0.0138380983             0.00104832525           
       3.132813             0.00950888475            0.000855506153           
       3.135453             0.00737994145            0.000747468028           
       3.138093             0.00577360155            0.000716362206           
       3.140734             0.00636457068            0.000693899276           
       3.143374             0.00592409873            0.000707980598           
       3.146014             0.00754737559             0.00086028158           
       3.148655             0.00787823893            0.000817052331           
       3.151295             0.00663351914            0.000798958928           
       3.153936             0.00627797949            0.000750802959           
       3.156576             0.00777807868             0.00082433618           
       3.159216             0.00667592687            0.000767521977           
       3.161857               0.005738791             0.00070871912           
       3.164497             0.00703862837            0.000824691647           
       3.167138             0.00915724335            0.000971925267           
       3.169778             0.00525873131            0.000724384551           
       3.172418             0.00703293136            0.000829195201           
       3.175059             0.00576239337            0.000665410301           
       3.177699             0.00558875361            0.000693931658           
       3.180339             0.00722942998            0.000845613666           
       3.182980             0.00623573811            0.000811973314           
       3.185620              0.0055848237            0.000782577379           
       3.188261             0.00564738619            0.000800991867           
       3.190901             0.00518726282            0.000706031844           
       3.193541             0.00635547424            0.000821168333           
       3.196182             0.00586686394            0.000822221301           
       3.198822             0.00588428198            0.000823716933           
       3.201463             0.00475875769            0.000727998633           
       3.204103             0.00450666215            0.000704143052           
       3.206743             0.00506395896            0.000746341724           
       3.209384             0.00589351951            0.000869902235           
       3.212024             0.00602063177            0.000819721171           
       3.214664              0.0059215715            0.000924439493           
       3.217305             0.00728505951            0.000974675909           
       3.219945             0.00675037396            0.000965677014           
       3.222586             0.00600793276            0.000867736606           
       3.225226              0.0063145152            0.000986874037           
       3.227866             0.00512799753            0.000812843697           
       3.230507             0.00663768153              0.0009586419           
       3.233147             0.00732497341             0.00101518224           
       3.235787             0.00631996469            0.000965012934           
       3.238428             0.00462672042            0.000891014586           
       3.241068             0.00660116316            0.000995160452           
       3.243709             0.00447839759            0.000846859407           
       3.246349             0.00652886959            0.000932116258           
       3.248989             0.00369879124            0.000828416989           
       3.251630             0.00601633611              0.0010174173           
       3.254270             0.00522392933            0.000847300556           
       3.256911             0.00638755727              0.0010222925           
       3.259551             0.00493519316            0.000967408413           
       3.262191             0.00529037889             0.00102310052           
       3.264832             0.00777137294             0.00129562052           
       3.267472             0.00530327227             0.00100404579           
       3.270112             0.00393794086            0.000956155471           
       3.272753             0.00368533462            0.000846656345           
       3.275393             0.00443599602            0.000947791378           
       3.278034             0.00527614447             0.00103423674           
       3.280674             0.00571326206             0.00116785522           
       3.283314              0.0047773807            0.000955105777           
       3.285955             0.00549802648             0.00105717588           
       3.288595             0.00529732766             0.00115448126           
       3.291235             0.00584949106             0.00124711646           
       3.293876              0.0054497506             0.00122104774           
       3.296516             0.00427290731             0.00103797632           
       3.299157             0.00637001205             0.00125142346           
       3.301797             0.00668831133             0.00146270943           
       3.304437             0.00457003084             0.00104753433           
       3.307078             0.00519208552             0.00122995269           
       3.309718             0.00710928183             0.00148554446           
       3.312359             0.00528042455             0.00128059076           
       3.314999             0.00450534057             0.00116463967           
       3.317639             0.00524666317             0.00120198358           
       3.320280              0.0056030551             0.00132064764           
       3.322920             0.00610981834             0.00140228867           
       3.325560             0.00574098537             0.00136022718           
       3.328201             0.00522666229             0.00116888635           
       3.330841             0.00736133906             0.00168830679           
       3.333482             0.00623955299             0.00146922056           
       3.336122              0.0107166479             0.00192636832           
       3.338762             0.00601612738             0.00166728013           
       3.341403             0.00716536889             0.00173867423           
       3.344043             0.00465056525             0.00134480821           
       3.346683             0.00724238817             0.00171332379           
       3.349324             0.00562269434             0.00169732186           
       3.351964             0.00339896285             0.00139550127           
       3.354605             0.00449761917             0.00183587276           
       3.357245             0.00303024298             0.00135940143           
       3.359885             0.00785768265              0.0017520311           
       3.362526             0.00546586691             0.00182735248           
       3.365166             0.00816590714              0.0021066668           
       3.367807              0.0116050923             0.00321409668           
       3.370447             0.00857770464             0.00229215406           
       3.373087              0.0104596412              0.0027067236           
       3.375728             0.00621760067             0.00235524537           
       3.378368              0.0118840588             0.00483255761           
       3.381008             0.00652402431             0.00266950394           
       3.383649             0.00489678605             0.00185529427           
       3.386289             0.00685888691              0.0025987506           
       3.388930             0.00246605323              0.0024648036           
       3.391570             0.00484455596             0.00244382764           
       3.394210              0.0019476718             0.00196097222           
       3.396851             0.00733123001              0.0042557467           
       3.399491             0.00488658452             0.00347545882           
       3.402131           -2.64331105e-05                         0           
       3.404772             0.00965920851             0.00977904573           
       3.407412                       nan                       nan           
       3.410053             0.00926383235             0.00958860057           
       3.412693                       nan                       nan           
       3.415333           -2.65616668e-05                         0           
