################################################################################
# EDF_DataBlockID                     0.Image.Psd
# EDF_BinarySize                      2105344
# EDF_HeaderSize                      2560
# ByteOrder                           LowByteFirst
# DataType                            FloatValue
# Dim_1                               512
# Dim_2                               1028
# Image                               0
# HeaderID                            EH:000000:000000:000000
# Size                                2105344
# Center_1                            304.9000
# Center_2                            588.7000
# Comment                             Xenocs_Cell_Window - 20251028_20perc_iodine_1.23mg
# DDummy                              0.6
# Date                                2025-10-31T09:14:34
# Delta                               21.910000
# Dummy                               -1.5
# ExposureTime                        360
# Gamma                               15.360000
# Intensity1                          8.4832e-10
# PSize_1                             7.5e-05
# PSize_2                             7.5e-05
# Pressure                            0.0328445
# SampleDistance                      0.115750
# SampleEnvKind                       large
# SampleEnvPN                         ElectroChemical cell
# SampleEnvSN                         1141
# Thickness                           0
# Wavelength                          1.541891e-10
# Wavelength                          1.54189e-10
# aux                                 0
# aux_dial                            0.002375
# beamx                               588.434
# beamx_dial                          588.434
# beamz                               657.808
# beamz_dial                          657.808
# det0x                               0
# det0x_dial                          6.36945
# det0xvd                             0
# det0xvd_dial                        0
# det0y                               450.002
# det0y_dial                          481.635
# det0z                               0
# det0z_dial                          1.23302
# det0zvd                             0
# det0zvd_dial                        0
# mag                                 1.818
# mag_dial                            1.818
# om                                  0.2499
# om_dial                             -0.610199
# phi                                 -0.0120535
# phi_dial                            0
# ry                                  0.599993
# ry_dial                             0.599993
# s1bot                               0.8
# s1bot_dial                          -1.66094
# s1hl                                0.8
# s1hl_dial                           -0.608437
# s1hr                                0.8
# s1hr_dial                           0.970938
# s1top                               0.8
# s1top_dial                          -0.461562
# s2bot                               0.45
# s2bot_dial                          1.36109
# s2hl                                0.45
# s2hl_dial                           -0.83375
# s2hr                                0.45
# s2hr_dial                           -0.118594
# s2top                               0.45
# s2top_dial                          1.44734
# w2theta                             32
# w2theta_dial                        32
# waxsch                              19.2605
# waxsch_dial                         -32.7355
# waxsh                               137.085
# waxsh_dial                          -43.5338
# waxsth                              26.0607
# waxsth_dial                         -19.4086
# waxsz                               67.0407
# waxsz_dial                          -23.7954
# wind                                65.9854
# wind_dial                           66.0041
# wpsi                                124
# wpsi_dial                           124
# wstod                               115
# wstod_dial                          115
# x                                   0
# x_dial                              1.00969
# z                                   0
# z_dial                              13.3172
# CountCutoff                         6807993
# DetectorModel                       Dectris EIGER2 Si 500K, S/N E-01-0554
# ThresholdSetting                    4023.88989258
# Saturation                          0
# FlatField                           Corrected
# BackgroundReductionExtra            0.02
# BackgroundCorrectionConstant        0.0026712
# Detector                            0
# Monitor                             0
# Pil_Roi0                            0
# SumForIntensity1                    3.05395e+08
# TransmittedFlux                     848320
# det                                 0
# mon                                 0
# pilai0                              3.05395e+08
# pilai1                              781907
# pilct0                              5.29056e+08
# pilct1                              781907
# pilroi0                             0
# pilroi1                             0
# sec                                 1
# title                               20251028_20perc_iodine_1.23mg_1_00608.edf
# usaxs0                              0
# Operation                           Azimuthal average I(q)
# Error_model                         ErrorModel.poisson
# Geometrical_correction              True
# Transmission_correction             True
# Thickness_correction                False
# Binning mode                        Uniform
# Binning factor                      1.0
# Psi                                 0.0
# Omega                               0.2499
# MaskInvalidPixels                   True
# DetectorEdge                        3
# MaskFiles                           ['WAXS_corrected.edf']
################################################################################
    q(A⁻¹)                Intensity(a.u.)            Sigma_I(a.u.)            
       0.693100             0.00833432327             0.00611039641           
       0.695741           -2.39062548e-05                         0           
       0.698381             0.00843413118             0.00614433615           
       0.701021           -2.38957338e-05                         0           
       0.703662              0.0056818455             0.00411520192           
       0.706302               0.006980301             0.00353134923           
       0.708942             0.00286879709             0.00292196201           
       0.711583              0.0110726477             0.00497091323           
       0.714223              0.0058794733              0.0041819571           
       0.716864               0.012527458             0.00399404197           
       0.719504             0.00589676173             0.00295703041           
       0.722144              0.0063222081             0.00283550366           
       0.724785             0.00637536333             0.00227132716           
       0.727425             0.00888468033             0.00362733924           
       0.730065              0.0059145498              0.0020934825           
       0.732706             0.00831207149             0.00208406791           
       0.735346             0.00618000337             0.00234247897           
       0.737987              0.0056865392             0.00158782426           
       0.740627              0.0117944784             0.00341196265           
       0.743267             0.00926712851              0.0020257211           
       0.745908             0.00521850852             0.00164925945           
       0.748548             0.00884404828             0.00197904545           
       0.751189             0.00886828077             0.00267033938           
       0.753829             0.00812270169             0.00234921141           
       0.756469             0.00659581117             0.00170702273           
       0.759110             0.00439798656             0.00146893534           
       0.761750             0.00953792838             0.00191277296           
       0.764390             0.00874968244             0.00191751163           
       0.767031             0.00657656204             0.00143959551           
       0.769671             0.00587018413             0.00169660805           
       0.772312              0.0073461814             0.00144490016           
       0.774952             0.00464633472             0.00155175079           
       0.777592             0.00655736643             0.00134272986           
       0.780233             0.00876677186             0.00187312838           
       0.782873             0.00768445389             0.00167724624           
       0.785513             0.00584743176              0.0015641438           
       0.788154             0.00614622269             0.00134147355           
       0.790794             0.00376556022             0.00125531235           
       0.793435             0.00436817132             0.00121461056           
       0.796075             0.00813242702             0.00159647996           
       0.798715             0.00825433258             0.00190067171           
       0.801356             0.00605972689             0.00140161445           
       0.803996               0.010798625             0.00190756343           
       0.806637              0.0063976079             0.00116846521           
       0.809277             0.00826291898             0.00143732526           
       0.811917             0.00832580941             0.00134877402           
       0.814558             0.00754053173             0.00133406443           
       0.817198             0.00767611775             0.00127876773           
       0.819838             0.00740650052             0.00127127527           
       0.822479             0.00755046861             0.00150726329           
       0.825119              0.0078462436             0.00130775619           
       0.827760             0.00689826535             0.00124210605           
       0.830400             0.00571429987             0.00106400935           
       0.833040             0.00586172857              0.0011290429           
       0.835681              0.0078682833             0.00148707433           
       0.838321             0.00712893586             0.00118806104           
       0.840961             0.00749947378              0.0013276628           
       0.843602             0.00630011457             0.00111592574           
       0.846242             0.00906159529             0.00133813096           
       0.848883             0.00684237288             0.00118994375           
       0.851523             0.00625889002             0.00112394017           
       0.854163             0.00682026373             0.00124771183           
       0.856804             0.00830800275              0.0012381919           
       0.859444             0.00564846971             0.00100033506           
       0.862085             0.00653737385             0.00112164076           
       0.864725             0.00625129969             0.00112248703           
       0.867365             0.00779991405             0.00116267137           
       0.870006             0.00643623152             0.00100643512           
       0.872646             0.00708461259             0.00110727058           
       0.875286             0.00622721126            0.000998724065           
       0.877927              0.0086422421             0.00113531992           
       0.880567              0.0057705796            0.000961131996           
       0.883208             0.00861743521              0.0011634601           
       0.885848             0.00857745579              0.0012052162           
       0.888488             0.00518589125            0.000878965193           
       0.891129              0.0095751299             0.00122635017           
       0.893769             0.00701725234             0.00100473018           
       0.896410             0.00686291094             0.00092640149           
       0.899050             0.00892591683             0.00116186807           
       0.901690             0.00752914901             0.00116237721           
       0.904331             0.00775238208             0.00104567672           
       0.906971             0.00780082029             0.00111589769           
       0.909611             0.00647957653            0.000925809578           
       0.912252             0.00816874463             0.00107369809           
       0.914892             0.00703647139             0.00108897382           
       0.917533             0.00884376827             0.00115490992           
       0.920173             0.00778836157             0.00100556106           
       0.922813             0.00685791579             0.00099018716           
       0.925454             0.00719305221            0.000913162884           
       0.928094             0.00722853075            0.000977279632           
       0.930734             0.00797042182             0.00110482408           
       0.933375             0.00658303175            0.000994202707           
       0.936015             0.00566598042            0.000837698298           
       0.938656             0.00699665077            0.000998617726           
       0.941296             0.00689150824            0.000898196763           
       0.943936             0.00754224965            0.000921469671           
       0.946577               0.008102875            0.000948788559           
       0.949217             0.00674886142            0.000796268788           
       0.951858             0.00677696315            0.000835268087           
       0.954498              0.0064847548             0.00094573504           
       0.957138             0.00569392418            0.000839547012           
       0.959779             0.00818511407            0.000992288423           
       0.962419             0.00723792405            0.000926902671           
       0.965059             0.00696546662            0.000956334759           
       0.967700             0.00852458226             0.00108356632           
       0.970340             0.00807874944             0.00093343851           
       0.972981             0.00803434484            0.000848111583           
       0.975621             0.00873246312            0.000940626977           
       0.978261             0.00796655177            0.000853666484           
       0.980902             0.00900713352             0.00108602779           
       0.983542             0.00841631893             0.00092967094           
       0.986182              0.0101190494             0.00100082543           
       0.988823             0.00943516407            0.000938389647           
       0.991463             0.00583092361            0.000787044169           
       0.994104             0.00806945745            0.000903205819           
       0.996744             0.00822232006            0.000929947679           
       0.999384             0.00943447513            0.000890882016           
       1.002025             0.00794048905            0.000912222016           
       1.004665             0.00744580323            0.000807272397           
       1.007306             0.00700576771            0.000779046758           
       1.009946             0.00749153566            0.000821602367           
       1.012586             0.00779084012            0.000816020557           
       1.015227              0.0085683798             0.00091936754           
       1.017867             0.00812587362            0.000860457614           
       1.020507             0.00692345561            0.000769336728           
       1.023148             0.00873265882            0.000932310781           
       1.025788              0.0092826386             0.00088136372           
       1.028429             0.00752426039            0.000831330222           
       1.031069             0.00910704427            0.000860672147           
       1.033709             0.00797088129            0.000855926488           
       1.036350             0.00807365552            0.000773679074           
       1.038990             0.00870012015             0.00081789337           
       1.041630             0.00818136187            0.000827247341           
       1.044271              0.0076875573            0.000754151829           
       1.046911             0.00852966392             0.00083558849           
       1.049552             0.00969147691            0.000935771856           
       1.052192             0.00716076694            0.000734489915           
       1.054832             0.00613715716            0.000686155489           
       1.057473             0.00835587662            0.000789257724           
       1.060113              0.0075910099            0.000733665895           
       1.062754             0.00820047345             0.00077854955           
       1.065394             0.00809572524            0.000817854148           
       1.068034             0.00931544728            0.000798225842           
       1.070675             0.00707050995            0.000725412039           
       1.073315             0.00681366819            0.000722321809           
       1.075955             0.00763378157            0.000721785903           
       1.078596             0.00927116994            0.000845391752           
       1.081236             0.00967698575            0.000827045054           
       1.083877             0.00825681032            0.000757097473           
       1.086517             0.00789866312            0.000794027908           
       1.089157             0.00945042519            0.000901196807           
       1.091798             0.00822912654            0.000737275854           
       1.094438             0.00905144708             0.00077074048           
       1.097078             0.00941703827             0.00075400192           
       1.099719             0.00869047405            0.000783474622           
       1.102359             0.00786139761            0.000697856952           
       1.105000             0.00821556588            0.000797724203           
       1.107640              0.0101265068            0.000846828789           
       1.110280             0.00847474378            0.000706847369           
       1.112921               0.009802834            0.000816638572           
       1.115561             0.00780270054            0.000692453156           
       1.118202             0.00775215457            0.000690857013           
       1.120842             0.00781903239            0.000729220479           
       1.123482              0.0101199543            0.000825982104           
       1.126123             0.00736392666            0.000675819262           
       1.128763             0.00860464604            0.000735546008           
       1.131403             0.00922281575            0.000733779251           
       1.134044             0.00735774016            0.000674407338           
       1.136684             0.00984792018            0.000831859852           
       1.139325              0.0096113325            0.000757047456           
       1.141965              0.0101476011            0.000783023181           
       1.144605              0.0101153474            0.000745427431           
       1.147246             0.00895145256            0.000717650296           
       1.149886             0.00827310728             0.00068747352           
       1.152527             0.00834736969            0.000700594142           
       1.155167             0.00984954283            0.000723852004           
       1.157807             0.00874832219            0.000731427169           
       1.160448             0.00894780588            0.000722354885           
       1.163088             0.00762136213            0.000635901743           
       1.165728             0.00972677586            0.000737581014           
       1.168369             0.00892824526            0.000713184962           
       1.171009              0.0090649071            0.000697403626           
       1.173650             0.00919628671             0.00072087016           
       1.176290             0.00857486699            0.000680234669           
       1.178930             0.00901655418            0.000683646801           
       1.181571               0.009265464            0.000706761706           
       1.184211             0.00942991135            0.000715534092           
       1.186851              0.0100573371            0.000722465717           
       1.189492             0.00870734884            0.000667708821           
       1.192132              0.0101011239            0.000711096688           
       1.194773             0.00843122499            0.000652503069           
       1.197413             0.00969453891            0.000670394566           
       1.200053             0.00975918055            0.000689716292           
       1.202694              0.0098752339            0.000659768972           
       1.205334             0.00864768941            0.000665366426           
       1.207975              0.0101998263            0.000689756806           
       1.210615             0.00885131468            0.000708836224           
       1.213255              0.0103192472            0.000685362673           
       1.215896             0.00919076581            0.000658522818           
       1.218536             0.00939908298             0.00064033367           
       1.221176              0.0101622413            0.000723885466           
       1.223817             0.00971448159            0.000664384648           
       1.226457             0.00917555501            0.000658701111           
       1.229098             0.00973834903            0.000678568561           
       1.231738             0.00853589967            0.000638422103           
       1.234378             0.00983629234            0.000643969403           
       1.237019             0.00987119507            0.000664780685           
       1.239659              0.0091050922            0.000632901292           
       1.242299              0.0107381819             0.00067858783           
       1.244940              0.0089062833             0.00060104439           
       1.247580             0.00968368679            0.000645893804           
       1.250221             0.00962920353            0.000640100076           
       1.252861             0.00924929168            0.000597236132           
       1.255501              0.0104187635            0.000688261233           
       1.258142             0.00869625764            0.000590868899           
       1.260782             0.00950676381            0.000631157876           
       1.263423              0.0100112044            0.000622353432           
       1.266063              0.0118590915            0.000694274725           
       1.268703              0.0100226703            0.000632963303           
       1.271344             0.00951564378            0.000637647318           
       1.273984              0.0111126932            0.000665517591           
       1.276624              0.0100657625             0.00062149368           
       1.279265              0.0108256602            0.000655229561           
       1.281905              0.0107959921            0.000657235126           
       1.284546              0.0106594824            0.000631248199           
       1.287186              0.0101690196            0.000604905616           
       1.289826             0.00919136876            0.000606101056           
       1.292467              0.0113581922            0.000658926449           
       1.295107              0.0106739541            0.000632425425           
       1.297747              0.0109616233            0.000613279345           
       1.300388              0.0102158418            0.000645408639           
       1.303028              0.0112994174            0.000647999178           
       1.305669              0.0111288759            0.000658403053           
       1.308309             0.00945899257            0.000601022389           
       1.310949              0.0104721178            0.000631755158           
       1.313590              0.0106500676            0.000617185133           
       1.316230              0.0106488952            0.000658585984           
       1.318871              0.0101749499            0.000630487302           
       1.321511              0.0111406849              0.0006475016           
       1.324151              0.0107679762            0.000617706256           
       1.326792              0.0111176782            0.000631536888           
       1.329432              0.0117631138            0.000645026008           
       1.332072              0.0119052427            0.000639240339           
       1.334713              0.0106623858            0.000624372407           
       1.337353              0.0107140391            0.000600234231           
       1.339994              0.0120136735            0.000666996073           
       1.342634              0.0100972972            0.000586378582           
       1.345274              0.0106372526             0.00062286106           
       1.347915              0.0112581233            0.000623085653           
       1.350555              0.0114221015            0.000638598779           
       1.353195              0.0121349534            0.000661457506           
       1.355836              0.0115961001            0.000636522133           
       1.358476               0.010304413            0.000582715124           
       1.361117              0.0105543602            0.000590549535           
       1.363757              0.0101575429            0.000597031526           
       1.366397              0.0099554948            0.000573177487           
       1.369038              0.0110326342            0.000609396967           
       1.371678              0.0124273874            0.000641069118           
       1.374319              0.0117630954            0.000618329414           
       1.376959               0.011400991            0.000602616182           
       1.379599              0.0119599138            0.000661463063           
       1.382240              0.0108569559            0.000592316871           
       1.384880              0.0108808953            0.000628089473           
       1.387520              0.0106350558            0.000589738707           
       1.390161              0.0116049138            0.000585092429           
       1.392801              0.0111358737             0.00059716313           
       1.395442              0.0103900664            0.000584697619           
       1.398082              0.0106719702            0.000554922125           
       1.400722              0.0115745064            0.000605348528           
       1.403363              0.0114854118            0.000634745707           
       1.406003               0.011860956            0.000603670365           
       1.408644              0.0106356179            0.000598828361           
       1.411284              0.0112527503            0.000583256556           
       1.413924              0.0118447321             0.00059618339           
       1.416565              0.0106602507            0.000563367309           
       1.419205              0.0109503859            0.000595625649           
       1.421845               0.010994784            0.000596481457           
       1.424486              0.0110496477            0.000574784524           
       1.427126              0.0112866087            0.000603458335           
       1.429767              0.0115152415            0.000573502875           
       1.432407              0.0112844262            0.000594138564           
       1.435047               0.010966236            0.000550071503           
       1.437688              0.0107747057            0.000553399115           
       1.440328              0.0110682268            0.000572447354           
       1.442968               0.011189779            0.000588478348           
       1.445609             0.00970808735            0.000530745511           
       1.448249              0.0111261312            0.000582573499           
       1.450890              0.0106734053            0.000566873587           
       1.453530              0.0110557696            0.000603593282           
       1.456170              0.0102930056              0.0005652324           
       1.458811              0.0119878222            0.000583289942           
       1.461451              0.0105741173            0.000549255195           
       1.464092              0.0109741254            0.000563205865           
       1.466732              0.0098907081            0.000530087756           
       1.469372              0.0105935529            0.000535759962           
       1.472013              0.0110970796            0.000591400904           
       1.474653              0.0119812149            0.000605029157           
       1.477293              0.0112654262            0.000599043059           
       1.479934              0.0105810597            0.000553977691           
       1.482574              0.0102794229            0.000528193308           
       1.485215              0.0108628642             0.00055308914           
       1.487855              0.0107764312            0.000558151427           
       1.490495              0.0111722599            0.000566216671           
       1.493136              0.0123560322            0.000587296828           
       1.495776              0.0111161114            0.000554514086           
       1.498416              0.0105277363            0.000557294849           
       1.501057              0.0105959744            0.000546776361           
       1.503697              0.0102957579            0.000526933813           
       1.506338               0.011903917            0.000576947499           
       1.508978              0.0105238091            0.000537137791           
       1.511618              0.0107182724            0.000577310215           
       1.514259              0.0102602116            0.000545326009           
       1.516899             0.00969132458            0.000516036886           
       1.519540             0.00967432051            0.000523898153           
       1.522180              0.0104448509            0.000549143881           
       1.524820             0.00946316374            0.000519768251           
       1.527461              0.0106972573            0.000555354606           
       1.530101             0.00994184644            0.000530032385           
       1.532741              0.0105572383            0.000543020628           
       1.535382              0.0107049204            0.000555608413           
       1.538022              0.0107568247            0.000524679923           
       1.540663              0.0104178987            0.000555364117           
       1.543303              0.0101301258            0.000508492685           
       1.545943              0.0104169569            0.000545768279           
       1.548584              0.0112490015            0.000577326584           
       1.551224              0.0104884253            0.000515431575           
       1.553864              0.0111107204            0.000560574442           
       1.556505              0.0105049454            0.000526559981           
       1.559145             0.00987055898            0.000516665624           
       1.561786             0.00974119443            0.000513664018           
       1.564426              0.0104136023            0.000514577317           
       1.567066              0.0104374885            0.000539796245           
       1.569707              0.0108285213            0.000539938403           
       1.572347             0.00823638036            0.000486485823           
       1.574988               0.010542974            0.000523894711           
       1.577628              0.0102680539            0.000539123351           
       1.580268             0.00921249663            0.000494776183           
       1.582909             0.00981466942            0.000541311838           
       1.585549              0.0103540157            0.000539844935           
       1.588189              0.0092535544            0.000499212329           
       1.590830             0.00973758497            0.000511459456           
       1.593470              0.0094910173            0.000524936192           
       1.596111              0.0104007947            0.000536502099           
       1.598751             0.00924596776            0.000490143339           
       1.601391             0.00865889117            0.000484792197           
       1.604032             0.00841917691            0.000488027954           
       1.606672             0.00891840703             0.00048802129           
       1.609312             0.00962537472            0.000529243816           
       1.611953             0.00896964663             0.00049994604           
       1.614593             0.00917028671            0.000495862045           
       1.617234              0.0104944508            0.000549752137           
       1.619874             0.00941095974            0.000518543331           
       1.622514             0.00930243751            0.000508512087           
       1.625155             0.00843409285            0.000487057385           
       1.627795             0.00908612772            0.000493147502           
       1.630436             0.00838222027            0.000471186969           
       1.633076             0.00849800303            0.000480652376           
       1.635716             0.00980341709            0.000508219145           
       1.638357             0.00878687758            0.000482417213           
       1.640997             0.00907535864              0.0005051237           
       1.643637             0.00915637019            0.000493731306           
       1.646278             0.00935081062            0.000514623026           
       1.648918             0.00850103475            0.000492020949           
       1.651559             0.00852861429            0.000496643424           
       1.654199             0.00903662547            0.000497207223           
       1.656839             0.00903673862            0.000497383895           
       1.659480             0.00946584263            0.000528171929           
       1.662120             0.00818119259            0.000462465064           
       1.664761             0.00926058873            0.000511090213           
       1.667401             0.00917868864            0.000486327913           
       1.670041             0.00908012186             0.00049108509           
       1.672682             0.00829073108            0.000467324577           
       1.675322             0.00863395908             0.00047383317           
       1.677962             0.00918458073            0.000483317687           
       1.680603             0.00835026066            0.000462261173           
       1.683243              0.0090531892            0.000502172617           
       1.685884             0.00826814745            0.000483450107           
       1.688524             0.00927336264            0.000502098593           
       1.691164             0.00861619382            0.000484090628           
       1.693805             0.00862650476            0.000489701304           
       1.696445             0.00899527568            0.000502959489           
       1.699085             0.00840912135            0.000470001548           
       1.701726             0.00862842296            0.000458630273           
       1.704366             0.00777202975            0.000458550816           
       1.707007             0.00891762817            0.000480235766           
       1.709647             0.00877996639             0.00048189596           
       1.712287             0.00917222589            0.000496830305           
       1.714928             0.00908045151            0.000498324143           
       1.717568             0.00857747014            0.000456237046           
       1.720209             0.00790008279            0.000458618989           
       1.722849             0.00814308548            0.000463225221           
       1.725489              0.0090722935            0.000489351323           
       1.728130             0.00924306483            0.000524914998           
       1.730770             0.00776252608            0.000456860114           
       1.733410             0.00823547844             0.00046317511           
       1.736051             0.00958180354            0.000503079758           
       1.738691             0.00889863803            0.000474986006           
       1.741332             0.00824037692            0.000470445713           
       1.743972              0.0080741767             0.00048089093           
       1.746612             0.00845019395            0.000472408112           
       1.749253             0.00906966134            0.000499082764           
       1.751893             0.00882876506            0.000488795793           
       1.754533             0.00864911384            0.000483345318           
       1.757174             0.00856063906            0.000476363739           
       1.759814             0.00796185289            0.000452438143           
       1.762455             0.00833987732            0.000471557007           
       1.765095             0.00799740939            0.000441742525           
       1.767735             0.00732963294            0.000435944423           
       1.770376             0.00851995375            0.000471250739           
       1.773016             0.00902134164            0.000481670649           
       1.775657             0.00788905095             0.00044394861           
       1.778297             0.00874155922            0.000463296399           
       1.780937             0.00885923288            0.000492289553           
       1.783578             0.00785837292            0.000452055343           
       1.786218             0.00822279709            0.000482584159           
       1.788858             0.00903625786             0.00048047508           
       1.791499             0.00970749846            0.000492407999           
       1.794139             0.00878549146            0.000464639986           
       1.796780             0.00846238317            0.000453817395           
       1.799420             0.00870374453            0.000457694994           
       1.802060             0.00915834698            0.000473287982           
       1.804701             0.00945685328            0.000461531225           
       1.807341             0.00947155546            0.000485345765           
       1.809981              0.0097474247            0.000494004702           
       1.812622             0.00908273068            0.000468278707           
       1.815262             0.00907999966            0.000478154122           
       1.817903             0.00956581896            0.000483507296           
       1.820543              0.0100560103            0.000503465728           
       1.823183             0.00903798387            0.000477039147           
       1.825824             0.00925485355            0.000461179334           
       1.828464             0.00828653714            0.000454952103           
       1.831105             0.00865661971             0.00045214411           
       1.833745             0.00861784713            0.000460765186           
       1.836385             0.00882188832            0.000479492228           
       1.839026             0.00939999993            0.000493390083           
       1.841666             0.00901944358            0.000481585774           
       1.844306             0.00881155004            0.000463015284           
       1.846947             0.00918785371            0.000476943055           
       1.849587             0.00907066249             0.00052329119           
       1.852228              0.0089523651            0.000470089205           
       1.854868             0.00950311397            0.000511626529           
       1.857508             0.00982238625            0.000515048408           
       1.860149             0.00837222723            0.000484149777           
       1.862789             0.00841507617            0.000468510834           
       1.865429              0.0089258077            0.000503675959           
       1.868070             0.00780141008            0.000464608027           
       1.870710             0.00846651854            0.000472849449           
       1.873351             0.00788315708            0.000461909082           
       1.875991             0.00896897941             0.00050073562           
       1.878631             0.00837508472            0.000474605968           
       1.881272             0.00956519451            0.000503808867           
       1.883912             0.00997377677            0.000535399667           
       1.886553             0.00840481432            0.000485992506           
       1.889193             0.00790274496            0.000470448184           
       1.891833             0.00959199378            0.000538269864           
       1.894474             0.00896516997            0.000515853108           
       1.897114             0.00942767617             0.00051189453           
       1.899754             0.00913426647            0.000505974152           
       1.902395             0.00940021198            0.000503251684           
       1.905035             0.00817757082            0.000497156657           
       1.907676             0.00816374352            0.000468175296           
       1.910316             0.00785586187            0.000471456433           
       1.912956             0.00917006635            0.000498160956           
       1.915597             0.00814587363             0.00047214211           
       1.918237             0.00902344339            0.000513201675           
       1.920878             0.00938558622            0.000521256064           
       1.923518             0.00863761105            0.000500266556           
       1.926158             0.00865960386            0.000494403074           
       1.928799             0.00939654339            0.000509049261           
       1.931439             0.00815602927            0.000486697832           
       1.934079             0.00825558017            0.000510457557           
       1.936720             0.00809763173            0.000468407552           
       1.939360             0.00801089129            0.000497041847           
       1.942001             0.00936565418            0.000492581778           
       1.944641             0.00874896182             0.00048546621           
       1.947281             0.00908655815            0.000490183603           
       1.949922             0.00905358296            0.000505396755           
       1.952562              0.0088483031            0.000515295597           
       1.955202             0.00903419948            0.000520045762           
       1.957843             0.00843293376            0.000489412381           
       1.960483             0.00812851716            0.000502359652           
       1.963124             0.00887640757             0.00051419199           
       1.965764              0.0090557823            0.000489772357           
       1.968404              0.0087489526            0.000476855091           
       1.971045             0.00831972191            0.000474102697           
       1.973685             0.00832846966             0.00049755971           
       1.976326             0.00800638086            0.000481138935           
       1.978966             0.00814694144            0.000489603319           
       1.981606             0.00788038011             0.00049156955           
       1.984247             0.00861819943            0.000510687182           
       1.986887             0.00808609032            0.000488744889           
       1.989527             0.00881600454            0.000504831431           
       1.992168             0.00858459237             0.00051688497           
       1.994808             0.00866893983            0.000517191549           
       1.997449              0.0081683851            0.000491727811           
       2.000089             0.00799709203            0.000484615677           
       2.002729             0.00864432987            0.000504147215           
       2.005370             0.00767609584             0.00046996304           
       2.008010             0.00801895888            0.000501307971           
       2.010650             0.00788424502            0.000500788418           
       2.013291             0.00872293523            0.000505388632           
       2.015931             0.00840116717            0.000492473737           
       2.018572             0.00748466275             0.00049718563           
       2.021212             0.00861479202            0.000523818764           
       2.023852             0.00800543222            0.000477914326           
       2.026493             0.00756635701            0.000485381796           
       2.029133              0.0073729717            0.000469496607           
       2.031774             0.00837984882            0.000525294089           
       2.034414             0.00794406078            0.000470607778           
       2.037054             0.00811743227            0.000487773164           
       2.039695             0.00692988305            0.000447279541           
       2.042335             0.00829165445            0.000508444998           
       2.044975             0.00793541478            0.000491370634           
       2.047616             0.00750454274            0.000476657403           
       2.050256             0.00770645356            0.000487598269           
       2.052897             0.00805926207            0.000507827336           
       2.055537             0.00687088113            0.000453168201           
       2.058177             0.00850059855            0.000493605805           
       2.060818             0.00797515105            0.000500853954           
       2.063458             0.00876916675            0.000547305649           
       2.066098             0.00674004897            0.000452635105           
       2.068739             0.00846408455            0.000515116479           
       2.071379             0.00759106089            0.000500550665           
       2.074020             0.00726325045            0.000478982686           
       2.076660             0.00824827905            0.000514556039           
       2.079300             0.00794047578            0.000517234022           
       2.081941             0.00751589372            0.000460751251           
       2.084581             0.00805524859            0.000503475029           
       2.087222             0.00739935361            0.000465365889           
       2.089862              0.0070745602            0.000495605487           
       2.092502             0.00790096945            0.000507703822           
       2.095143              0.0083570627            0.000539200191           
       2.097783             0.00827808333            0.000519563904           
       2.100423             0.00802290406             0.00049287079           
       2.103064             0.00759240614             0.00049750947           
       2.105704             0.00703607945             0.00047656318           
       2.108345             0.00789170714            0.000484889887           
       2.110985             0.00826475346            0.000529996834           
       2.113625             0.00809398848            0.000529069864           
       2.116266              0.0075747349            0.000519079367           
       2.118906             0.00741955171            0.000478771936           
       2.121546              0.0078128747            0.000481917926           
       2.124187             0.00775939113            0.000504130545           
       2.126827             0.00772980383            0.000508784213           
       2.129468             0.00771244307            0.000509510685           
       2.132108             0.00764195885            0.000493444747           
       2.134748             0.00726353737            0.000479205755           
       2.137389             0.00773713798            0.000515971641           
       2.140029             0.00750570427            0.000454968226           
       2.142670             0.00690281342            0.000466297381           
       2.145310             0.00686766313            0.000452698565           
       2.147950             0.00787500631            0.000498953939           
       2.150591              0.0077870113            0.000491144253           
       2.153231             0.00752839546            0.000497090698           
       2.155871             0.00820217297             0.00050125176           
       2.158512             0.00717913242            0.000489317075           
       2.161152             0.00748660775            0.000484026753           
       2.163793              0.0066376443            0.000453705716           
       2.166433             0.00677464858            0.000470691701           
       2.169073             0.00798638278            0.000499677841           
       2.171714             0.00791363613            0.000493678614           
       2.174354              0.0073361311            0.000496669758           
       2.176995             0.00756885329             0.00050236336           
       2.179635             0.00685613034            0.000505243101           
       2.182275             0.00771962372            0.000506178757           
       2.184916              0.0078237629            0.000492189585           
       2.187556             0.00749739098            0.000476985118           
       2.190196             0.00629764374            0.000456824603           
       2.192837             0.00724772026            0.000487407024           
       2.195477              0.0067843498            0.000449584971           
       2.198118             0.00777849687            0.000493734515           
       2.200758             0.00749159205            0.000497112147           
       2.203398             0.00681269667             0.00047708562           
       2.206039             0.00732046909             0.00046804545           
       2.208679             0.00735952686            0.000480214137           
       2.211319             0.00773176671            0.000495046861           
       2.213960             0.00752523135             0.00049493373           
       2.216600             0.00752435694            0.000511968159           
       2.219241              0.0083798107            0.000516369381           
       2.221881             0.00648183542            0.000455076487           
       2.224521             0.00739395207            0.000491997786           
       2.227162              0.0077666147            0.000494147828           
       2.229802             0.00799551095            0.000517071753           
       2.232443             0.00812644022            0.000513065947           
       2.235083             0.00679071849            0.000482843156           
       2.237723             0.00812802667            0.000506934052           
       2.240364             0.00894325293            0.000544849008           
       2.243004             0.00725080395            0.000486676996           
       2.245644             0.00731020401            0.000493557681           
       2.248285             0.00717486494            0.000479172076           
       2.250925             0.00713756252            0.000480828037           
       2.253566             0.00747440685            0.000526031791           
       2.256206             0.00712020473            0.000503150752           
       2.258846              0.0074343282            0.000489079626           
       2.261487             0.00674863639             0.00048908861           
       2.264127             0.00771015503            0.000504883495           
       2.266767              0.0090941017            0.000562935791           
       2.269408             0.00777629277            0.000522685045           
       2.272048             0.00728284122            0.000502810187           
       2.274689              0.0073105966            0.000510405202           
       2.277329             0.00744872724            0.000485098317           
       2.279969             0.00767431483            0.000524120129           
       2.282610             0.00747197425            0.000502780758           
       2.285250             0.00697896545            0.000465082598           
       2.287891             0.00569166238            0.000450308435           
       2.290531             0.00731609819            0.000517403632           
       2.293171             0.00701659686            0.000493573969           
       2.295812             0.00650841455            0.000473453524           
       2.298452             0.00795343366            0.000547316341           
       2.301092             0.00761675052            0.000497644377           
       2.303733             0.00707387892            0.000498933011           
       2.306373             0.00733690424            0.000516126366           
       2.309014             0.00694612678            0.000492396709           
       2.311654             0.00711162677            0.000519924726           
       2.314294             0.00716494059             0.00048080071           
       2.316935             0.00810747699            0.000513561222           
       2.319575             0.00674805225            0.000490912327           
       2.322215             0.00725498727            0.000530482572           
       2.324856             0.00758359606            0.000498646915           
       2.327496             0.00708580253            0.000512520925           
       2.330137             0.00803692171            0.000522323944           
       2.332777             0.00652936754            0.000485438477           
       2.335417             0.00656062246            0.000472073731           
       2.338058             0.00680324542            0.000495083794           
       2.340698             0.00630696757             0.00047293842           
       2.343339             0.00695735198            0.000507656209           
       2.345979             0.00659801872            0.000467715902           
       2.348619             0.00636911899            0.000476328756           
       2.351260             0.00739549137            0.000510285152           
       2.353900             0.00662033841             0.00048127308           
       2.356540             0.00781678217            0.000522214049           
       2.359181             0.00698984751             0.00048689658           
       2.361821             0.00775096382            0.000495274391           
       2.364462             0.00781025585            0.000519972505           
       2.367102             0.00651597087            0.000488075214           
       2.369742             0.00708863292            0.000535832476           
       2.372383             0.00769208587            0.000505425469           
       2.375023             0.00606035082            0.000471602601           
       2.377663             0.00704418204            0.000486146526           
       2.380304             0.00710991792            0.000496553248           
       2.382944             0.00730632878            0.000479439367           
       2.385585             0.00647358621            0.000481309498           
       2.388225             0.00684162453            0.000492477101           
       2.390865               0.006837036            0.000487254785           
       2.393506             0.00677831822            0.000476004881           
       2.396146             0.00767589036            0.000547695246           
       2.398787             0.00623660758            0.000454967852           
       2.401427             0.00789694227            0.000494159375           
       2.404067             0.00792241134             0.00050599589           
       2.406708             0.00647235584            0.000451866467           
       2.409348             0.00752913822            0.000516942611           
       2.411988             0.00711072265            0.000492214721           
       2.414629             0.00754549507            0.000522830422           
       2.417269             0.00824674186            0.000552967128           
       2.419910             0.00745612899            0.000527013103           
       2.422550             0.00746943474            0.000504663336           
       2.425190             0.00645002602            0.000494336019           
       2.427831             0.00734761746            0.000524646261           
       2.430471             0.00679822818            0.000480777607           
       2.433112             0.00689321848            0.000471422215           
       2.435752             0.00667580614               0.000490981           
       2.438392             0.00561391053            0.000434575101           
       2.441033             0.00698985298             0.00051391302           
       2.443673             0.00817414157            0.000556173671           
       2.446313             0.00708029082            0.000518080973           
       2.448954             0.00824487927            0.000532310407           
       2.451594             0.00651223471            0.000508675343           
       2.454235             0.00706480992            0.000497103635           
       2.456875             0.00649618001            0.000498776743           
       2.459515             0.00838772094            0.000581431863           
       2.462156             0.00686256077            0.000496542018           
       2.464796             0.00767155816            0.000518221132           
       2.467436             0.00819802349            0.000553984703           
       2.470077             0.00682234843            0.000478999787           
       2.472717             0.00766594733            0.000509951057           
       2.475358             0.00732629235            0.000503724036           
       2.477998             0.00820369262            0.000524048206           
       2.480638             0.00844447451            0.000541130624           
       2.483279             0.00726457889            0.000524570129           
       2.485919             0.00656246163            0.000480492359           
       2.488560               0.006787695            0.000487302986           
       2.491200             0.00690011072            0.000505931501           
       2.493840             0.00671955245            0.000528291089           
       2.496481             0.00743324089            0.000546549322           
       2.499121                0.00668586            0.000504173275           
       2.501761             0.00623590122            0.000493363703           
       2.504402             0.00624584424            0.000486543115           
       2.507042             0.00649533333            0.000492489847           
       2.509683             0.00694602676            0.000501505847           
       2.512323             0.00794434527            0.000563285892           
       2.514963             0.00637925571            0.000498523836           
       2.517604             0.00692221362            0.000538859939           
       2.520244             0.00811296668            0.000546909375           
       2.522884               0.007611889            0.000537326891           
       2.525525             0.00740562439            0.000536012301           
       2.528165             0.00864882306            0.000570229206           
       2.530806             0.00738275442              0.0005360247           
       2.533446               0.012355694            0.000678639413           
       2.536086              0.0092838625             0.00058299557           
       2.538727             0.00723725628            0.000493814746           
       2.541367             0.00740002902            0.000504255756           
       2.544008             0.00713941235            0.000511520528           
       2.546648             0.00670297617            0.000504140774           
       2.549288             0.00713926201            0.000530890325           
       2.551929             0.00718773242            0.000524198302           
       2.554569             0.00701725582            0.000498996276           
       2.557209             0.00657315956            0.000487383696           
       2.559850             0.00726241627            0.000513945249           
       2.562490             0.00663213307            0.000507616752           
       2.565131              0.0081931122            0.000584988907           
       2.567771             0.00718592115            0.000528212985           
       2.570411             0.00661524066            0.000501321187           
       2.573052             0.00762773587            0.000545100072           
       2.575692             0.00699990139            0.000519022892           
       2.578332             0.00706247949             0.00052349359           
       2.580973              0.0072080308            0.000523828511           
       2.583613             0.00612734937            0.000471466755           
       2.586254             0.00571881468             0.00045484537           
       2.588894             0.00718241724             0.00052933745           
       2.591534             0.00740321805            0.000556322542           
       2.594175             0.00712292975            0.000535392189           
       2.596815             0.00708704798            0.000537190811           
       2.599456             0.00707297743            0.000508909605           
       2.602096             0.00785153416             0.00054026817           
       2.604736              0.0072189751            0.000530331917           
       2.607377              0.0064921873            0.000489673864           
       2.610017             0.00680466171            0.000492546674           
       2.612657              0.0071403806            0.000536665736           
       2.615298             0.00695895822            0.000517255456           
       2.617938             0.00695044831            0.000552992719           
       2.620579             0.00684845504             0.00052695795           
       2.623219             0.00698689935            0.000531498916           
       2.625859             0.00679800658            0.000509732708           
       2.628500             0.00625721059            0.000485831979           
       2.631140             0.00746202581            0.000538722102           
       2.633780             0.00843528493            0.000572280033           
       2.636421             0.00671671144            0.000523224394           
       2.639061             0.00758430245            0.000523401258           
       2.641702             0.00823851678            0.000558137273           
       2.644342             0.00742896523            0.000532264203           
       2.646982             0.00670153584            0.000497976267           
       2.649623             0.00665084492            0.000519881696           
       2.652263             0.00732119681            0.000539979179           
       2.654904             0.00714490379            0.000533974921           
       2.657544             0.00678896173            0.000490261091           
       2.660184             0.00734181749            0.000539551277           
       2.662825             0.00730086448            0.000550526892           
       2.665465             0.00578452571            0.000473942564           
       2.668105             0.00691330667            0.000546123863           
       2.670746             0.00828077744            0.000552148029           
       2.673386               0.010168865            0.000630576806           
       2.676027              0.0138845055            0.000725003835           
       2.678667              0.0086334037            0.000557833622           
       2.681307              0.0132872904            0.000679969723           
       2.683948              0.0147202093            0.000735344066           
       2.686588              0.0112429156            0.000631990463           
       2.689229               0.010703288             0.00060255228           
       2.691869             0.00893212907            0.000581765219           
       2.694509             0.00906704078            0.000586464349           
       2.697150             0.00833402727            0.000553136749           
       2.699790             0.00664366446             0.00051774728           
       2.702430             0.00751960797            0.000526519985           
       2.705071             0.00665024391             0.00051164321           
       2.707711             0.00698349298            0.000508878207           
       2.710352             0.00682402972            0.000531519135           
       2.712992             0.00725645866            0.000558235681           
       2.715632             0.00654194108            0.000491771846           
       2.718273             0.00718497632             0.00053411642           
       2.720913             0.00697423249             0.00052472771           
       2.723553             0.00665295286            0.000515937606           
       2.726194             0.00667601518            0.000540258831           
       2.728834             0.00699890899            0.000553429238           
       2.731475             0.00808093517            0.000548830425           
       2.734115             0.00711825921            0.000531089673           
       2.736755             0.00765664039             0.00055534139           
       2.739396             0.00699609123            0.000527770483           
       2.742036             0.00653934303            0.000534010758           
       2.744677             0.00763596948            0.000559899626           
       2.747317             0.00748568844            0.000550409634           
       2.749957             0.00713010896            0.000540947846           
       2.752598             0.00737713628            0.000556210301           
       2.755238             0.00777489875            0.000581316389           
       2.757878             0.00709445792            0.000550441242           
       2.760519             0.00919786538            0.000620105195           
       2.763159             0.00793884893             0.00057034649           
       2.765800              0.0078236266            0.000539572558           
       2.768440             0.00815555442            0.000554958123           
       2.771080             0.00882498244            0.000582103818           
       2.773721             0.00738928274            0.000546393792           
       2.776361             0.00680878444            0.000531728546           
       2.779001             0.00786385119            0.000591787003           
       2.781642             0.00758632489             0.00057696718           
       2.784282             0.00723767956             0.00057282043           
       2.786923              0.0067349049            0.000557431737           
       2.789563             0.00704544814            0.000549110213           
       2.792203             0.00670135396            0.000511587238           
       2.794844             0.00800559286            0.000612828924           
       2.797484             0.00654576022            0.000522976637           
       2.800125             0.00766422379            0.000595039441           
       2.802765             0.00655094639             0.00054066386           
       2.805405             0.00749596327            0.000580305222           
       2.808046             0.00669281076            0.000557975828           
       2.810686             0.00754138477            0.000544248468           
       2.813326             0.00690746229            0.000541042149           
       2.815967              0.0073020324               0.000572097           
       2.818607             0.00709405079            0.000538106322           
       2.821248             0.00570573689            0.000472569346           
       2.823888             0.00707537252            0.000546251056           
       2.826528             0.00710073846            0.000529964599           
       2.829169             0.00710515066            0.000555280651           
       2.831809             0.00683215966              0.0005519153           
       2.834449             0.00681624929            0.000554756169           
       2.837090              0.0061432655            0.000508668527           
       2.839730             0.00743437731            0.000556841911           
       2.842371             0.00627358143            0.000512263872           
       2.845011             0.00695913024            0.000543827885           
       2.847651              0.0073021112            0.000557752164           
       2.850292             0.00707158752            0.000554264354           
       2.852932             0.00779073797            0.000594443874           
       2.855573             0.00653303706            0.000528035932           
       2.858213             0.00597719766            0.000530388603           
       2.860853             0.00687455674            0.000529124587           
       2.863494             0.00671818845            0.000541568337           
       2.866134             0.00654954847            0.000555783383           
       2.868774             0.00691611938            0.000561298738           
       2.871415             0.00703931014            0.000575096201           
       2.874055             0.00699786795            0.000548099898           
       2.876696             0.00661420145            0.000547276187           
       2.879336              0.0070124582            0.000543116996           
       2.881976             0.00720141282            0.000567684858           
       2.884617             0.00781742715            0.000582780218           
       2.887257             0.00772777965            0.000582419782           
       2.889897              0.0068971933            0.000538906575           
       2.892538             0.00758423192            0.000619080199           
       2.895178              0.0061509643            0.000503684795           
       2.897819             0.00712188504            0.000552873247           
       2.900459             0.00639217823            0.000513595107           
       2.903099             0.00625929368            0.000503026309           
       2.905740             0.00765885015            0.000570825136           
       2.908380             0.00735403161            0.000565706043           
       2.911021             0.00710395115            0.000565043907           
       2.913661              0.0066826822            0.000547869957           
       2.916301             0.00747705192            0.000580071119           
       2.918942             0.00695850077            0.000535266452           
       2.921582             0.00734111516            0.000575233921           
       2.924222             0.00740027481            0.000559532044           
       2.926863             0.00845847618            0.000623095345           
       2.929503             0.00696106895            0.000571954449           
       2.932144             0.00645074541            0.000528532857           
       2.934784              0.0077980249            0.000571582777           
       2.937424             0.00672289756            0.000536168327           
       2.940065             0.00666766179            0.000509348524           
       2.942705             0.00667897681            0.000509140959           
       2.945346             0.00765418653             0.00057843099           
       2.947986             0.00677454894            0.000554874829           
       2.950626             0.00638105305            0.000535486921           
       2.953267             0.00762029262            0.000575723783           
       2.955907             0.00608415242            0.000533653009           
       2.958547             0.00596543297            0.000498856345           
       2.961188             0.00676696247            0.000554309029           
       2.963828             0.00764783675             0.00057642832           
       2.966469             0.00732776859            0.000553514947           
       2.969109               0.006891786            0.000544749579           
       2.971749             0.00762031622            0.000569245681           
       2.974390             0.00863459979            0.000595453423           
       2.977030             0.00746975858            0.000566211672           
       2.979670             0.00914199982             0.00060928674           
       2.982311             0.00758109531            0.000575062865           
       2.984951             0.00766290523            0.000549878532           
       2.987592             0.00723591665            0.000545041295           
       2.990232             0.00911526269            0.000636203517           
       2.992872             0.00751171793            0.000544008836           
       2.995513             0.00842432102            0.000563623077           
       2.998153             0.00981977216            0.000618739867           
       3.000794              0.0124652529            0.000675232954           
       3.003434              0.0136766181            0.000708349642           
       3.006074              0.0594666445             0.00145634724           
       3.008715               0.131121444              0.0020875337           
       3.011355               0.163207646             0.00224589487           
       3.013995              0.0780956555             0.00155780327           
       3.016636              0.0571566275             0.00130502928           
       3.019276               0.123228172             0.00188359048           
       3.021917               0.519457337             0.00371858419           
       3.024557                1.81711339             0.00683791454           
       3.027197                1.07824504             0.00513537966           
       3.029838               0.510446437             0.00358348763           
       3.032478               0.258987609             0.00255512218           
       3.035118              0.0761467098             0.00140405958           
       3.037759               0.106635421              0.0016593959           
       3.040399               0.162443178             0.00211266074           
       3.043040               0.584417362              0.0040563136           
       3.045680               0.365430321             0.00301784142           
       3.048320              0.0748716444             0.00139572539           
       3.050961               0.115060402             0.00176071867           
       3.053601              0.0832070165             0.00144207537           
       3.056242              0.0576705642             0.00127645392           
       3.058882              0.0523997294             0.00130518503           
       3.061522              0.0386471975             0.00109973576           
       3.064163              0.0492444627             0.00122575737           
       3.066803               0.109038409             0.00192023826           
       3.069443                0.11502505              0.0020634769           
       3.072084              0.0479946618             0.00129789571           
       3.074724              0.0370501247             0.00127351054           
       3.077365               0.083457736             0.00197858445           
       3.080005              0.0152592323            0.000850827683           
       3.082645              0.0110407036            0.000760290147           
       3.085286              0.0122108584            0.000805873869           
       3.087926             0.00947784078            0.000704512231           
       3.090566              0.0105829086            0.000729418699           
       3.093207              0.0104860335            0.000755553575           
       3.095847             0.00925342178            0.000680292986           
       3.098488             0.00767298269            0.000686896715           
       3.101128             0.00896611624            0.000747300983           
       3.103768              0.0107842626            0.000804155695           
       3.106409             0.00978054761            0.000815038095           
       3.109049             0.00907049035            0.000753225109           
       3.111690             0.00899993418            0.000737409731           
       3.114330             0.00836331546            0.000725972904           
       3.116970             0.00979547738            0.000791708628           
       3.119611              0.0139336763             0.00100508823           
       3.122251               0.020971459             0.00128982644           
       3.124891              0.0328532173               0.001629418           
       3.127532              0.0213598883             0.00128531964           
       3.130172              0.0120258847            0.000981093543           
       3.132813             0.00889260657            0.000830552225           
       3.135453             0.00766676486            0.000764832432           
       3.138093             0.00643418998             0.00075918962           
       3.140734             0.00655511247            0.000706961905           
       3.143374             0.00724896092            0.000786216497           
       3.146014             0.00819613113            0.000899997189           
       3.148655             0.00784073945            0.000818291182           
       3.151295             0.00708820309            0.000829114668           
       3.153936             0.00624698019            0.000751874152           
       3.156576             0.00580396901            0.000714866259           
       3.159216             0.00699794974            0.000788886465           
       3.161857             0.00721830189             0.00079794972           
       3.164497             0.00854478424            0.000912204456           
       3.167138             0.00841452865            0.000935318345           
       3.169778             0.00632293599            0.000797410853           
       3.172418             0.00807025506            0.000891715431           
       3.175059             0.00674002485            0.000722458456           
       3.177699             0.00537748138            0.000683349275           
       3.180339             0.00596998281             0.00077143718           
       3.182980             0.00639349268            0.000825393359           
       3.185620               0.007299177              0.0008981597           
       3.188261              0.0064185796             0.00085727052           
       3.190901             0.00676407652            0.000809381885           
       3.193541             0.00639640226            0.000827027892           
       3.196182             0.00625811222            0.000852513862           
       3.198822             0.00675316522            0.000885888378           
       3.201463              0.0059416347             0.00081664029           
       3.204103             0.00709726377             0.00088710072           
       3.206743             0.00743608438            0.000907943551           
       3.209384             0.00788743215             0.00101028746           
       3.212024              0.0071870093            0.000899110943           
       3.214664             0.00638490024            0.000963676172           
       3.217305             0.00602890824            0.000890137459           
       3.219945              0.0061353535            0.000924233773           
       3.222586             0.00656290396             0.00091047384           
       3.225226             0.00668817154             0.00101962266           
       3.227866             0.00597999352            0.000881206225           
       3.230507             0.00598480707            0.000913834058           
       3.233147             0.00495394888            0.000838128879           
       3.235787             0.00636638712            0.000972336057           
       3.238428             0.00464962184            0.000896708037           
       3.241068             0.00528700131            0.000894090839           
       3.243709             0.00741387085             0.00109387214           
       3.246349             0.00766289052             0.00101377472           
       3.248989             0.00411542281            0.000877243942           
       3.251630              0.0051996863            0.000949545338           
       3.254270             0.00746781785             0.00101702063           
       3.256911             0.00410828971             0.00082306164           
       3.259551             0.00419823491            0.000895746689           
       3.262191             0.00657150804             0.00114472588           
       3.264832             0.00607432279             0.00114993141           
       3.267472             0.00476922059            0.000955871087           
       3.270112             0.00536679845             0.00112058711           
       3.272753             0.00627082885             0.00110872857           
       3.275393             0.00489423748            0.000999433173           
       3.278034             0.00528452728             0.00103910337           
       3.280674             0.00506822442             0.00110425382           
       3.283314             0.00519302072            0.000999679152           
       3.285955             0.00451282821            0.000961528793           
       3.288595             0.00632636735             0.00126657156           
       3.291235              0.0048108098             0.00113540584           
       3.293876             0.00523323547              0.0012012227           
       3.296516             0.00227687188            0.000760657354           
       3.299157             0.00671183637             0.00128958183           
       3.301797             0.00735807648             0.00154019614           
       3.304437             0.00628459263             0.00123322218           
       3.307078             0.00822386834             0.00155399503           
       3.309718             0.00748497659             0.00153024889           
       3.312359              0.0053178629             0.00129014514           
       3.314999             0.00392347867             0.00109108221           
       3.317639             0.00612168398             0.00130342623           
       3.320280             0.00373594445             0.00108260188           
       3.322920             0.00648669097             0.00145053744           
       3.325560             0.00613022659             0.00141107648           
       3.328201             0.00313278851             0.00090848899           
       3.330841             0.00387800644             0.00123018742           
       3.333482             0.00837488676             0.00170881005           
       3.336122             0.00695026775             0.00155741616           
       3.338762             0.00553740253             0.00160582114           
       3.341403             0.00380373092             0.00127173872           
       3.344043              0.0030689089             0.00109671439           
       3.346683             0.00529968638             0.00147135576           
       3.349324             0.00620216156             0.00178960657           
       3.351964             0.00458450645             0.00162703682           
       3.354605             0.00528766816             0.00199837687           
       3.357245             0.00421666243             0.00160985764           
       3.359885             0.00433568303               0.001306524           
       3.362526             0.00797577205             0.00221601772           
       3.365166             0.00765846078             0.00204813435           
       3.367807             0.00993946823             0.00298614073           
       3.370447             0.00801228858             0.00222397864           
       3.373087             0.00278079393             0.00140108338           
       3.375728             0.00268931815             0.00155503403           
       3.378368             0.00596374343             0.00343675189           
       3.381008             0.00218649698              0.0015514625           
       3.383649             0.00565216308             0.00200105324           
       3.386289             0.00394722156             0.00197914491           
       3.388930              0.0050032414             0.00352452736           
       3.391570              0.0110467293             0.00370471242           
       3.394210             0.00196463411             0.00197719022           
       3.396851              0.0123236115              0.0055392429           
       3.399491             0.00477526858             0.00344907313           
       3.402131             0.00980217648             0.00699135328           
       3.404772           -2.66529912e-05                         0           
       3.407412                       nan                       nan           
       3.410053           -2.67186376e-05                         0           
       3.412693                       nan                       nan           
       3.415333             0.00907034258             0.00953411439           
