################################################################################
# EDF_DataBlockID                     0.Image.Psd
# EDF_BinarySize                      2105344
# EDF_HeaderSize                      2560
# ByteOrder                           LowByteFirst
# DataType                            FloatValue
# Dim_1                               512
# Dim_2                               1028
# Image                               0
# HeaderID                            EH:000000:000000:000000
# Size                                2105344
# Center_1                            304.9000
# Center_2                            588.7000
# Comment                             Xenocs_Cell_Window - 20251028_20perc_iodine_1.23mg
# DDummy                              0.6
# Date                                2025-11-01T15:50:38
# Delta                               21.910000
# Dummy                               -1.5
# ExposureTime                        360
# Gamma                               15.360000
# Intensity1                          8.66564e-10
# PSize_1                             7.5e-05
# PSize_2                             7.5e-05
# Pressure                            0.0325937
# SampleDistance                      0.115750
# SampleEnvKind                       large
# SampleEnvPN                         ElectroChemical cell
# SampleEnvSN                         1141
# Thickness                           0
# Wavelength                          1.541891e-10
# Wavelength                          1.54189e-10
# aux                                 0
# aux_dial                            0.002375
# beamx                               588.434
# beamx_dial                          588.434
# beamz                               657.808
# beamz_dial                          657.808
# det0x                               0
# det0x_dial                          6.36945
# det0xvd                             0
# det0xvd_dial                        0
# det0y                               450.002
# det0y_dial                          481.635
# det0z                               0
# det0z_dial                          1.23302
# det0zvd                             0
# det0zvd_dial                        0
# mag                                 1.818
# mag_dial                            1.818
# om                                  0.2499
# om_dial                             -0.610199
# phi                                 -0.0120535
# phi_dial                            0
# ry                                  0.599993
# ry_dial                             0.599993
# s1bot                               0.8
# s1bot_dial                          -1.66094
# s1hl                                0.8
# s1hl_dial                           -0.608437
# s1hr                                0.8
# s1hr_dial                           0.970938
# s1top                               0.8
# s1top_dial                          -0.461562
# s2bot                               0.45
# s2bot_dial                          1.36109
# s2hl                                0.45
# s2hl_dial                           -0.83375
# s2hr                                0.45
# s2hr_dial                           -0.118594
# s2top                               0.45
# s2top_dial                          1.44734
# w2theta                             32
# w2theta_dial                        32
# waxsch                              19.2605
# waxsch_dial                         -32.7355
# waxsh                               137.085
# waxsh_dial                          -43.5338
# waxsth                              26.0607
# waxsth_dial                         -19.4086
# waxsz                               67.0407
# waxsz_dial                          -23.7954
# wind                                65.9854
# wind_dial                           66.0041
# wpsi                                124
# wpsi_dial                           124
# wstod                               115
# wstod_dial                          115
# x                                   0
# x_dial                              1.00969
# z                                   0
# z_dial                              13.3172
# CountCutoff                         6807993
# DetectorModel                       Dectris EIGER2 Si 500K, S/N E-01-0554
# ThresholdSetting                    4023.88989258
# Saturation                          0
# FlatField                           Corrected
# BackgroundReductionExtra            0.02
# BackgroundCorrectionConstant        0.0026712
# Detector                            0
# Monitor                             0
# Pil_Roi0                            0
# SumForIntensity1                    3.11963e+08
# TransmittedFlux                     866564
# det                                 0
# mon                                 0
# pilai0                              3.11963e+08
# pilai1                              787220
# pilct0                              5.39375e+08
# pilct1                              787220
# pilroi0                             0
# pilroi1                             0
# sec                                 1
# title                               20251028_20perc_iodine_1.23mg_1_00886.edf
# usaxs0                              0
# Operation                           Azimuthal average I(q)
# Error_model                         ErrorModel.poisson
# Geometrical_correction              True
# Transmission_correction             True
# Thickness_correction                False
# Binning mode                        Uniform
# Binning factor                      1.0
# Psi                                 0.0
# Omega                               0.2499
# MaskInvalidPixels                   True
# DetectorEdge                        3
# MaskFiles                           ['WAXS_corrected.edf']
################################################################################
    q(A⁻¹)                Intensity(a.u.)            Sigma_I(a.u.)            
       0.693100             0.00815165427             0.00597911109           
       0.695741             0.00271040765             0.00281344723           
       0.698381              0.0042144156             0.00429737253           
       0.701021           -2.33926506e-05                         0           
       0.703662             0.00559805645             0.00404151884           
       0.706302             0.00845637937             0.00384569957           
       0.708942             0.00849587808             0.00497517448           
       0.711583             0.00651341872             0.00377219793           
       0.714223             0.00870298624             0.00503412554           
       0.716864             0.00616165781             0.00277146543           
       0.719504              0.0160055262             0.00482018282           
       0.722144             0.00863437493             0.00327861787           
       0.724785             0.00789745305             0.00250121072           
       0.727425             0.00433203446             0.00250606744           
       0.730065              0.0100828008             0.00270444785           
       0.732706             0.00811958833             0.00203799807           
       0.735346             0.00692388879             0.00245321673           
       0.737987              0.0108535125             0.00217041659           
       0.740627              0.0115319601             0.00333807427           
       0.743267             0.00826592311             0.00189292004           
       0.745908             0.00821551673             0.00204744741           
       0.748548             0.00740076204             0.00179121603           
       0.751189             0.00789829647             0.00249340595           
       0.753829              0.0126518803             0.00290087435           
       0.756469             0.00815849022             0.00187840669           
       0.759110             0.00619267739             0.00172462426           
       0.761750             0.00563401522             0.00145453754           
       0.764390             0.00823507293             0.00184058178           
       0.767031             0.00738761485              0.0015096375           
       0.769671             0.00577162165             0.00166450123           
       0.772312             0.00500163259             0.00117962084           
       0.774952             0.00657730963             0.00182671336           
       0.777592              0.0115299747             0.00176164189           
       0.780233             0.00544842887             0.00146104255           
       0.782873             0.00711822531             0.00159718682           
       0.785513             0.00778210892             0.00178534553           
       0.788154             0.00971887446             0.00166903516           
       0.790794             0.00572371757              0.0015312836           
       0.793435             0.00762787977             0.00158806645           
       0.796075             0.00858919401             0.00162333862           
       0.798715             0.00554904608             0.00154189509           
       0.801356             0.00658212907             0.00144532252           
       0.803996             0.00593818743             0.00139959132           
       0.806637             0.00791827816              0.0012861804           
       0.809277             0.00758909342             0.00136289624           
       0.811917             0.00513700761             0.00104823968           
       0.814558             0.00689595093              0.0012622705           
       0.817198             0.00794018687             0.00128681392           
       0.819838             0.00683691669             0.00120848912           
       0.822479             0.00678336342             0.00141352744           
       0.825119             0.00552362602              0.0010856443           
       0.827760             0.00613215302             0.00115870999           
       0.830400             0.00869861339             0.00129887835           
       0.833040             0.00700558575              0.0012212353           
       0.835681             0.00963699955             0.00162833265           
       0.838321              0.0057973247             0.00106003387           
       0.840961             0.00871360409             0.00141595951           
       0.843602             0.00860086291             0.00129006507           
       0.846242             0.00672168107             0.00114028857           
       0.848883             0.00626574553             0.00112664987           
       0.851523             0.00591885801             0.00108141659           
       0.854163             0.00646075996             0.00120153117           
       0.856804             0.00792806765             0.00119674838           
       0.859444             0.00813084201             0.00118748294           
       0.862085              0.0037480995            0.000840305505           
       0.864725             0.00671286244             0.00115087877           
       0.867365             0.00490458643            0.000912205734           
       0.870006              0.0065967177             0.00100812279           
       0.872646             0.00661233186             0.00105840665           
       0.875286             0.00469777378            0.000858270718           
       0.877927             0.00872198723             0.00112847593           
       0.880567             0.00643580848             0.00100427905           
       0.883208             0.00797417739             0.00110735012           
       0.885848             0.00661050952              0.0010468458           
       0.888488             0.00523545475            0.000873809398           
       0.891129             0.00580202727            0.000944520901           
       0.893769             0.00928344608             0.00114340488           
       0.896410             0.00755371979            0.000961623416           
       0.899050              0.0077130549             0.00106861961           
       0.901690             0.00825751893              0.0012044214           
       0.904331              0.0099614627             0.00117279186           
       0.906971             0.00546764115            0.000924344318           
       0.909611             0.00763972564            0.000994641946           
       0.912252             0.00841082452             0.00107796172           
       0.914892             0.00758469178             0.00111863519           
       0.917533             0.00763519902             0.00106174236           
       0.920173             0.00493078608            0.000791631386           
       0.922813             0.00921190987              0.0011354698           
       0.925454             0.00897450383             0.00100919804           
       0.928094             0.00630896154            0.000903342208           
       0.930734             0.00674625569             0.00100568833           
       0.933375               0.009067616             0.00115448437           
       0.936015             0.00652818858            0.000889663915           
       0.938656             0.00852711351             0.00109077387           
       0.941296             0.00619378026            0.000842503617           
       0.943936             0.00770880874             0.00092173008           
       0.946577             0.00845057093            0.000958677262           
       0.949217             0.00734050231            0.000821649998           
       0.951858             0.00734610977            0.000860432022           
       0.954498             0.00607583544            0.000905743515           
       0.957138             0.00688089489            0.000913148004           
       0.959779             0.00907661233             0.00103387249           
       0.962419             0.00777190865            0.000950321376           
       0.965059             0.00770127614              0.0009949373           
       0.967700              0.0073945695            0.000998515756           
       0.970340             0.00896072386            0.000972668213           
       0.972981             0.00796385812             0.00083544728           
       0.975621             0.00636550168            0.000794593302           
       0.978261             0.00662906584             0.00077047533           
       0.980902             0.00675778123            0.000930741829           
       0.983542             0.00693385806             0.00083490136           
       0.986182             0.00796048543            0.000878289684           
       0.988823             0.00720943415            0.000811593576           
       0.991463             0.00841706161            0.000935600003           
       0.994104             0.00799895479            0.000889735075           
       0.996744              0.0087563143            0.000949514341           
       0.999384             0.00832072192            0.000827792249           
       1.002025             0.00769127922            0.000888291987           
       1.004665             0.00928808839            0.000892086623           
       1.007306             0.00814040584            0.000830879833           
       1.009946             0.00706036149            0.000789167618           
       1.012586             0.00920403715            0.000877561711           
       1.015227             0.00791890915            0.000874484313           
       1.017867             0.00685195876            0.000781774233           
       1.020507             0.00862081875            0.000849393237           
       1.023148             0.00663041967            0.000803780564           
       1.025788             0.00851424999            0.000835164793           
       1.028429             0.00847268371            0.000872834068           
       1.031069             0.00820686727            0.000808383166           
       1.033709             0.00779991894            0.000837737337           
       1.036350             0.00884920601            0.000801414927           
       1.038990             0.00707344296            0.000729674253           
       1.041630             0.00801922543            0.000810341949           
       1.044271             0.00593585939            0.000655670946           
       1.046911              0.0084969386            0.000825158278           
       1.049552             0.00895488772            0.000889988921           
       1.052192             0.00960328057            0.000841580003           
       1.054832             0.00825441827            0.000787338859           
       1.057473             0.00862882758             0.00079355724           
       1.060113             0.00812515874            0.000751007045           
       1.062754             0.00839303587            0.000779302135           
       1.065394             0.00904572799            0.000855360664           
       1.068034              0.0087777349            0.000766645673           
       1.070675             0.00722219776            0.000725393416           
       1.073315             0.00787854429            0.000768498031           
       1.075955             0.00929034547            0.000787832686           
       1.078596             0.00838052812             0.00079525418           
       1.081236             0.00802566095            0.000745210652           
       1.083877             0.00944213881            0.000801051365           
       1.086517             0.00828510277            0.000804613755           
       1.089157             0.00834038659            0.000837657714           
       1.091798             0.00841230135            0.000737547649           
       1.094438             0.00918411349            0.000768152261           
       1.097078             0.00962296906            0.000754135457           
       1.099719             0.00877327978            0.000778867749           
       1.102359             0.00945928707            0.000757399934           
       1.105000             0.00886217466            0.000819754316           
       1.107640             0.00803053717            0.000746135347           
       1.110280              0.0092303903             0.00072988077           
       1.112921             0.00932578508            0.000788090872           
       1.115561             0.00994030705            0.000773298843           
       1.118202             0.00984058002            0.000770134961           
       1.120842             0.00852050002            0.000753172445           
       1.123482             0.00897433532            0.000769594649           
       1.126123             0.00885558831            0.000733270274           
       1.128763             0.00990894827            0.000780974134           
       1.131403              0.0100502803            0.000757883199           
       1.134044             0.00883724097            0.000731287153           
       1.136684             0.00901070946            0.000787293978           
       1.139325              0.0101568935            0.000770000991           
       1.141965             0.00908963046            0.000733239023           
       1.144605             0.00774040508             0.00064517324           
       1.147246             0.00831582258            0.000684381483           
       1.149886             0.00956523145            0.000731389834           
       1.152527             0.00873694067            0.000709170894           
       1.155167             0.00839380256            0.000661150987           
       1.157807             0.00874279162            0.000723457959           
       1.160448             0.00960655573            0.000740552278           
       1.163088             0.00945059296            0.000700620398           
       1.165728             0.00842675269            0.000679258263           
       1.168369             0.00908322525             0.00071173561           
       1.171009             0.00897454086            0.000686575297           
       1.173650             0.00945170284             0.00072307835           
       1.176290             0.00992447313            0.000724066289           
       1.178930             0.00872399681            0.000665347866           
       1.181571                0.01098523            0.000761418691           
       1.184211             0.00978001201            0.000720984206           
       1.186851             0.00929319818            0.000687128354           
       1.189492              0.0101327855            0.000712669379           
       1.192132             0.00988647317            0.000696055765           
       1.194773             0.00959594132            0.000688748304           
       1.197413             0.00885494987            0.000633927353           
       1.200053              0.0102054715            0.000697846456           
       1.202694             0.00980564849              0.0006504829           
       1.205334              0.0104644264            0.000724182601           
       1.207975             0.00998322999            0.000675172393           
       1.210615             0.00870644555            0.000695571836           
       1.213255              0.0103715861            0.000679827237           
       1.215896              0.0099750257            0.000678783882           
       1.218536             0.00949639901            0.000636828667           
       1.221176             0.00938499228            0.000688290217           
       1.223817              0.0109300094             0.00069726774           
       1.226457             0.00928578325            0.000655633336           
       1.229098               0.009849478            0.000675207418           
       1.231738             0.00924840612            0.000657500733           
       1.234378              0.0102993345            0.000651979036           
       1.237019             0.00959620527            0.000648519175           
       1.239659             0.00907454355            0.000625152158           
       1.242299              0.0101345927             0.00065226394           
       1.244940             0.00967376866            0.000619777314           
       1.247580             0.00943607966            0.000630835437           
       1.250221             0.00931787517            0.000623003764           
       1.252861               0.010072312            0.000616646048           
       1.255501              0.0102293055            0.000674757661           
       1.258142             0.00976861463            0.000619613615           
       1.260782              0.0113954223            0.000683701288           
       1.263423              0.0102315561            0.000622507086           
       1.266063               0.010930378            0.000659481729           
       1.268703              0.0105135147            0.000641416761           
       1.271344             0.00981880793            0.000640870622           
       1.273984              0.0115147712            0.000670281242           
       1.276624             0.00968734407             0.00060324714           
       1.279265             0.00980926605             0.00061711212           
       1.281905             0.00970383063            0.000616510707           
       1.284546              0.0117407391            0.000655479845           
       1.287186              0.0104890921            0.000607850188           
       1.289826              0.0111841755            0.000661510077           
       1.292467              0.0109038077             0.00063877948           
       1.295107              0.0103225776            0.000615347253           
       1.297747               0.010930925            0.000605938977           
       1.300388              0.0104817251            0.000646835147           
       1.303028              0.0113192217            0.000641703258           
       1.305669              0.0107864326            0.000641334546           
       1.308309              0.0118189911            0.000664718771           
       1.310949             0.00956347557            0.000597336352           
       1.313590              0.0124148848            0.000659310745           
       1.316230              0.0109818598            0.000661725221           
       1.318871              0.0107316617            0.000640653529           
       1.321511              0.0113413197            0.000646392378           
       1.324151              0.0118899066            0.000642219826           
       1.326792              0.0113054532            0.000630108287           
       1.329432              0.0105315565            0.000603867824           
       1.332072              0.0116708772            0.000626219126           
       1.334713              0.0102750576            0.000606440462           
       1.337353              0.0111704844            0.000606400682           
       1.339994              0.0106020827            0.000619955459           
       1.342634              0.0116502904            0.000623194247           
       1.345274              0.0111608237            0.000631253939           
       1.347915              0.0110192152            0.000609915421           
       1.350555              0.0109955282            0.000619930005           
       1.353195              0.0122133834            0.000656569069           
       1.355836              0.0110163024            0.000613839722           
       1.358476              0.0109622313            0.000594666775           
       1.361117              0.0118062081            0.000617981001           
       1.363757              0.0115621751            0.000630234587           
       1.366397              0.0104606796            0.000581322563           
       1.369038               0.010909641            0.000599577657           
       1.371678              0.0118192951            0.000618572002           
       1.374319              0.0116302875            0.000608322463           
       1.376959              0.0109075787              0.0005831942           
       1.379599              0.0108110291            0.000622235267           
       1.382240               0.011091197            0.000592336927           
       1.384880              0.0113518852            0.000634750025           
       1.387520              0.0113201889            0.000601999481           
       1.390161              0.0102333692            0.000543616178           
       1.392801              0.0118949716            0.000610649596           
       1.395442              0.0114685363            0.000607792999           
       1.398082              0.0102746578            0.000538732223           
       1.400722              0.0117674513            0.000603913847           
       1.403363              0.0107339883            0.000607136828           
       1.406003              0.0115961103            0.000590575885           
       1.408644              0.0109104596            0.000600097826           
       1.411284              0.0112281542            0.000576453131           
       1.413924              0.0115343579              0.0005820945           
       1.416565              0.0110330466            0.000567068065           
       1.419205              0.0115434881             0.00060507156           
       1.421845              0.0108184057            0.000585416229           
       1.424486              0.0109118236            0.000565143907           
       1.427126              0.0110837212            0.000591681354           
       1.429767               0.011343993             0.00056319862           
       1.432407              0.0103983134            0.000564298616           
       1.435047              0.0110061532             0.00054523994           
       1.437688              0.0110505542            0.000554507358           
       1.440328              0.0106548379            0.000555711627           
       1.442968              0.0116180121            0.000593287471           
       1.445609              0.0105542359            0.000547535675           
       1.448249              0.0101095176            0.000549443936           
       1.450890               0.011934267            0.000593078429           
       1.453530               0.011377994            0.000605846061           
       1.456170              0.0116259549            0.000594360298           
       1.458811              0.0109565698            0.000551735818           
       1.461451              0.0122770713            0.000585570288           
       1.464092              0.0110324547            0.000558724633           
       1.466732              0.0111023649            0.000555675642           
       1.469372              0.0112992305            0.000547461271           
       1.472013              0.0114158561            0.000593487269           
       1.474653              0.0111536436            0.000577582186           
       1.477293              0.0111760258             0.00059034713           
       1.479934              0.0114984561            0.000571382573           
       1.482574              0.0112099431            0.000545744998           
       1.485215              0.0100786278             0.00052711235           
       1.487855              0.0113988501            0.000567968971           
       1.490495              0.0116177943            0.000571285906           
       1.493136              0.0112443251            0.000554324876           
       1.495776              0.0118251957            0.000565874127           
       1.498416              0.0112244541             0.00056935046           
       1.501057              0.0104276516             0.00053667587           
       1.503697              0.0105831473            0.000528583813           
       1.506338              0.0115949936            0.000563386114           
       1.508978              0.0108842802             0.00054047874           
       1.511618              0.0104690504            0.000564520897           
       1.514259              0.0104189619            0.000543713117           
       1.516899             0.00958003761            0.000507635885           
       1.519540               0.010698105            0.000545091728           
       1.522180              0.0112502806            0.000563892393           
       1.524820              0.0108359238            0.000550305779           
       1.527461              0.0113992785            0.000567221089           
       1.530101              0.0108509225            0.000547875328           
       1.532741               0.011218718            0.000553850193           
       1.535382               0.011383133            0.000566875293           
       1.538022              0.0107068648            0.000517920489           
       1.540663              0.0109421815            0.000563143712           
       1.543303              0.0111835115            0.000528622831           
       1.545943              0.0112626683            0.000561484841           
       1.548584              0.0108165226            0.000560128835           
       1.551224              0.0100573041            0.000499385811           
       1.553864              0.0103429314            0.000535135221           
       1.556505               0.011369456            0.000542001293           
       1.559145              0.0102538895            0.000521029773           
       1.561786              0.0109652719            0.000539215381           
       1.564426               0.010233542            0.000504710876           
       1.567066               0.010763881            0.000542370212           
       1.569707              0.0115898088             0.00055268453           
       1.572347              0.0104926469            0.000543280418           
       1.574988              0.0100560472            0.000506239033           
       1.577628             0.00971722652            0.000518913259           
       1.580268              0.0105198087            0.000523122702           
       1.582909              0.0100163494             0.00054105816           
       1.585549               0.010107182            0.000527726854           
       1.588189             0.00977756447            0.000507721888           
       1.590830              0.0100590527            0.000514332129           
       1.593470             0.00900362523            0.000505869353           
       1.596111             0.00932650518            0.000502663281           
       1.598751             0.00974856682            0.000497962725           
       1.601391              0.0102050539            0.000520728878           
       1.604032              0.0101357196            0.000529805799           
       1.606672             0.00938520101            0.000495332067           
       1.609312             0.00861014666            0.000495258314           
       1.611953              0.0101139366            0.000525260945           
       1.614593             0.00871391094            0.000478250574           
       1.617234             0.00880111099            0.000498121569           
       1.619874             0.00813740964            0.000477079457           
       1.622514              0.0107894641            0.000541854106           
       1.625155             0.00924413887            0.000504514562           
       1.627795              0.0097372858            0.000505109933           
       1.630436              0.0093310927            0.000491880402           
       1.633076             0.00866838044            0.000480309489           
       1.635716             0.00987614825            0.000504702682           
       1.638357              0.0090721533            0.000484998314           
       1.640997              0.0083852034            0.000480399094           
       1.643637             0.00932647502            0.000493023126           
       1.646278              0.0085720273            0.000487512648           
       1.648918             0.00841597668            0.000484372515           
       1.651559             0.00883585892            0.000500160477           
       1.654199             0.00868602704            0.000482307936           
       1.656839             0.00946056334            0.000503528305           
       1.659480              0.0100486135            0.000538428797           
       1.662120             0.00900718102            0.000480114253           
       1.664761             0.00878682575            0.000492576631           
       1.667401             0.00953629202            0.000490465179           
       1.670041             0.00936991524            0.000493580817           
       1.672682             0.00892561013             0.00047975631           
       1.675322              0.0088374417            0.000474311089           
       1.677962             0.00943586719            0.000484700494           
       1.680603             0.00886764517            0.000471325662           
       1.683243             0.00856970575            0.000483408982           
       1.685884             0.00865694928             0.00048945134           
       1.688524              0.0091512411            0.000493503132           
       1.691164             0.00882683757            0.000484787088           
       1.693805             0.00944889299            0.000507088573           
       1.696445             0.00932841207            0.000506767973           
       1.699085             0.00928699371             0.00048869859           
       1.701726             0.00874973293            0.000456955528           
       1.704366             0.00931433718            0.000496678948           
       1.707007             0.00948304975            0.000489985657           
       1.709647             0.00826102828            0.000462491169           
       1.712287              0.0097560003             0.00050697453           
       1.714928             0.00890048509            0.000488140202           
       1.717568             0.00887780512            0.000459243771           
       1.720209             0.00830657214            0.000465293156           
       1.722849             0.00844263003            0.000466676693           
       1.725489             0.00857358276            0.000470676944           
       1.728130             0.00924924626            0.000519533654           
       1.730770             0.00857727821            0.000475155749           
       1.733410             0.00879942419             0.00047370444           
       1.736051             0.00889641898            0.000479623393           
       1.738691             0.00881677953            0.000467792836           
       1.741332             0.00854609438             0.00047402293           
       1.743972             0.00824463341            0.000480798017           
       1.746612             0.00876401904            0.000476009035           
       1.749253             0.00831025144            0.000472676106           
       1.751893             0.00863806306            0.000478371388           
       1.754533             0.00861791328            0.000477366899           
       1.757174             0.00868197411            0.000474650975           
       1.759814             0.00804496238            0.000449980482           
       1.762455             0.00787436754             0.00045335848           
       1.765095             0.00957100827            0.000478137627           
       1.767735             0.00906253998            0.000479616939           
       1.770376             0.00798304709            0.000451333223           
       1.773016             0.00815045466              0.0004529863           
       1.775657             0.00843090003            0.000454084651           
       1.778297             0.00787376949            0.000435046173           
       1.780937             0.00967415943             0.00050898937           
       1.783578             0.00924210487            0.000485054198           
       1.786218             0.00811653288             0.00047438187           
       1.788858             0.00879590576            0.000469025414           
       1.791499              0.0083399526             0.00045157798           
       1.794139             0.00892257859            0.000463295705           
       1.796780             0.00891420495              0.0004608458           
       1.799420             0.00858768519            0.000449821992           
       1.802060             0.00861308684            0.000454125485           
       1.804701             0.00851147537            0.000433221217           
       1.807341             0.00934142332             0.00047689926           
       1.809981              0.0100567138            0.000496470805           
       1.812622             0.00952496195             0.00047446846           
       1.815262             0.00911956311             0.00047412356           
       1.817903              0.0078267171            0.000432724319           
       1.820543             0.00963621282            0.000487629286           
       1.823183             0.00832424855            0.000452970887           
       1.825824             0.00806942002            0.000426074707           
       1.828464              0.0091170516            0.000472156392           
       1.831105             0.00799131269            0.000429824634           
       1.833745             0.00783477357            0.000434683366           
       1.836385             0.00884030928            0.000474912997           
       1.839026             0.00882586857            0.000473025714           
       1.841666             0.00794802911            0.000447293958           
       1.844306             0.00860704704            0.000452768069           
       1.846947             0.00798814437            0.000440009423           
       1.849587             0.00887228225            0.000512060323           
       1.852228             0.00744256663            0.000424084386           
       1.854868             0.00831019621            0.000473374933           
       1.857508             0.00797588785            0.000459207102           
       1.860149             0.00868509945            0.000487894769           
       1.862789             0.00766163146            0.000442314088           
       1.865429             0.00828858968            0.000480227815           
       1.868070             0.00858698115            0.000482280766           
       1.870710             0.00815218489            0.000459078546           
       1.873351             0.00887232634            0.000484846982           
       1.875991             0.00841845817            0.000479990656           
       1.878631             0.00791042755            0.000456371065           
       1.881272             0.00824946616             0.00046292577           
       1.883912             0.00708342314            0.000446425917           
       1.886553              0.0084706427            0.000482728816           
       1.889193             0.00769996585             0.00045945898           
       1.891833             0.00797789988            0.000485701499           
       1.894474             0.00767769901            0.000472326008           
       1.897114             0.00877828743            0.000488722789           
       1.899754             0.00809392611            0.000471249218           
       1.902395             0.00824840139            0.000466423945           
       1.905035             0.00815188882            0.000491122417           
       1.907676             0.00834806064            0.000468420773           
       1.910316             0.00739161056            0.000452474092           
       1.912956             0.00863873988            0.000478396703           
       1.915597             0.00803364472            0.000463916421           
       1.918237             0.00793865504            0.000476271849           
       1.920878              0.0073563282            0.000456594314           
       1.923518             0.00948050396            0.000518561049           
       1.926158             0.00830439802            0.000479033361           
       1.928799             0.00862933372            0.000482662895           
       1.931439             0.00777335989            0.000470114821           
       1.934079             0.00795680468            0.000495832189           
       1.936720             0.00812344954            0.000464188795           
       1.939360             0.00721658094            0.000466764492           
       1.942001             0.00784806246            0.000446138846           
       1.944641             0.00854652453            0.000474739152           
       1.947281             0.00763892142            0.000444687199           
       1.949922             0.00746946426            0.000454199305           
       1.952562             0.00715465139            0.000458458687           
       1.955202             0.00836898338            0.000495236456           
       1.957843             0.00789505386              0.0004685357           
       1.960483             0.00769231183            0.000483522913           
       1.963124             0.00803803512             0.00048412908           
       1.965764             0.00792285703            0.000453264518           
       1.968404             0.00850895192              0.0004652924           
       1.971045             0.00811949783            0.000463406517           
       1.973685             0.00826651712            0.000490459802           
       1.976326             0.00698460592            0.000444634201           
       1.978966             0.00797938104            0.000479414527           
       1.981606             0.00774192678            0.000482075934           
       1.984247             0.00748469712             0.00047088335           
       1.986887              0.0079250427            0.000478732897           
       1.989527             0.00749829489             0.00046065021           
       1.992168             0.00782208451            0.000488174228           
       1.994808              0.0073928774            0.000472557553           
       1.997449             0.00749546272            0.000466053126           
       2.000089             0.00802722491            0.000480389669           
       2.002729             0.00777731819            0.000473136194           
       2.005370             0.00712088314            0.000447857623           
       2.008010             0.00805748356            0.000497192836           
       2.010650             0.00799872935            0.000499073204           
       2.013291             0.00759163011            0.000466488774           
       2.015931             0.00634343452            0.000423404065           
       2.018572             0.00759511279            0.000495540432           
       2.021212             0.00729060949            0.000476782276           
       2.023852             0.00697776697            0.000441464127           
       2.026493             0.00670385464            0.000452045235           
       2.029133             0.00769008146            0.000474412558           
       2.031774             0.00780165329            0.000501484225           
       2.034414             0.00780965433            0.000461671706           
       2.037054             0.00768760942            0.000469660194           
       2.039695             0.00794671288            0.000473902908           
       2.042335             0.00838397438             0.00050585714           
       2.044975             0.00726916151             0.00046531395           
       2.047616             0.00737604396            0.000467558013           
       2.050256             0.00763560551            0.000480215468           
       2.052897             0.00713392147            0.000472728873           
       2.055537             0.00750894835            0.000468729514           
       2.058177             0.00798831298            0.000473437411           
       2.060818               0.007905052            0.000493370917           
       2.063458             0.00819059268            0.000523344859           
       2.066098             0.00790887423            0.000485124908           
       2.068739             0.00762832412            0.000483848665           
       2.071379             0.00762279488            0.000496287634           
       2.074020             0.00804192015            0.000498670544           
       2.076660              0.0079513638            0.000499863414           
       2.079300             0.00688332945            0.000476477756           
       2.081941             0.00815662619            0.000474909677           
       2.084581             0.00846935225            0.000510790829           
       2.087222             0.00733455902            0.000458420669           
       2.089862             0.00740698678            0.000501749212           
       2.092502             0.00738988197             0.00048581232           
       2.095143             0.00749092923            0.000505092111           
       2.097783             0.00717385584            0.000478552874           
       2.100423             0.00785481346            0.000482519368           
       2.103064             0.00748687458            0.000488811536           
       2.105704             0.00703719678            0.000471557327           
       2.108345             0.00792986444            0.000480916923           
       2.110985             0.00708666654            0.000485577835           
       2.113625             0.00751526966            0.000504409839           
       2.116266             0.00850530579            0.000544220059           
       2.118906             0.00759501816            0.000479273914           
       2.121546             0.00667367358            0.000440686416           
       2.124187             0.00785807618            0.000501957375           
       2.126827             0.00728816148            0.000488807562           
       2.129468              0.0079139779            0.000510662842           
       2.132108             0.00749468826            0.000483495572           
       2.134748             0.00782405371            0.000492088686           
       2.137389             0.00730736192            0.000496130015           
       2.140029             0.00637277233            0.000414790763           
       2.142670             0.00770891773            0.000487557842           
       2.145310               0.007220153            0.000459258663           
       2.147950             0.00795955642            0.000496316787           
       2.150591             0.00768536579            0.000482764656           
       2.153231             0.00769222357            0.000497152818           
       2.155871             0.00692199241            0.000455602963           
       2.158512             0.00731764191            0.000488786832           
       2.161152             0.00676921182            0.000455381528           
       2.163793              0.0073773384            0.000473256565           
       2.166433             0.00701253773            0.000473816622           
       2.169073             0.00821464504            0.000501405348           
       2.171714             0.00669099626            0.000449139448           
       2.174354             0.00707256568            0.000482505426           
       2.176995             0.00702446017            0.000478838346           
       2.179635             0.00853845813            0.000557866288           
       2.182275              0.0072026764            0.000483762647           
       2.184916             0.00689040776            0.000457010914           
       2.187556              0.0082913563             0.00049629748           
       2.190196             0.00805086463            0.000511047461           
       2.192837             0.00695961184            0.000472566698           
       2.195477             0.00729195318             0.00046116797           
       2.198118             0.00743373727            0.000477560923           
       2.200758              0.0069151829            0.000472550995           
       2.203398             0.00677232713            0.000470636164           
       2.206039             0.00741225485            0.000465986435           
       2.208679             0.00687073018            0.000459082748           
       2.211319             0.00672309504            0.000456742155           
       2.213960             0.00718196866            0.000478396957           
       2.216600             0.00734068075            0.000500329324           
       2.219241             0.00699076165            0.000466643432           
       2.221881             0.00662991961            0.000455374869           
       2.224521             0.00659773622            0.000459834803           
       2.227162             0.00783485748            0.000491061734           
       2.229802             0.00720074938            0.000485507655           
       2.232443             0.00707220009            0.000473565242           
       2.235083             0.00635557428            0.000462173614           
       2.237723             0.00845214282            0.000511471983           
       2.240364              0.0074783133            0.000492957827           
       2.243004             0.00764797732            0.000494539021           
       2.245644             0.00826424648            0.000519223487           
       2.248285             0.00652929601            0.000452269547           
       2.250925             0.00809952119            0.000506785319           
       2.253566             0.00749813204            0.000521290366           
       2.256206             0.00683527089            0.000487763482           
       2.258846             0.00740630337            0.000482990942           
       2.261487             0.00704802007            0.000494529988           
       2.264127             0.00738207848            0.000488796941           
       2.266767             0.00852182113            0.000539168731           
       2.269408             0.00717366351            0.000496711032           
       2.272048              0.0077498345            0.000513191427           
       2.274689             0.00690203641            0.000490689581           
       2.277329             0.00757855384            0.000484129374           
       2.279969             0.00753641714            0.000513893387           
       2.282610             0.00721156128            0.000488714411           
       2.285250             0.00670201891            0.000450938091           
       2.287891             0.00744069088            0.000509420807           
       2.290531             0.00727828332            0.000510603421           
       2.293171             0.00758821253            0.000507853277           
       2.295812             0.00704284663            0.000487296618           
       2.298452             0.00708011455             0.00051092924           
       2.301092             0.00723442107            0.000479861225           
       2.303733             0.00682659954            0.000484948001           
       2.306373             0.00758670217            0.000519284871           
       2.309014             0.00775525566            0.000514779661           
       2.311654             0.00759879968            0.000531750642           
       2.314294             0.00775253197            0.000494834667           
       2.316935              0.0079356297            0.000502712391           
       2.319575             0.00644632625             0.00047473406           
       2.322215             0.00683034662             0.00050927657           
       2.324856             0.00706254133            0.000476119066           
       2.327496             0.00801400244            0.000539288731           
       2.330137             0.00744184355            0.000497295885           
       2.332777             0.00819182391            0.000537982903           
       2.335417             0.00702829092            0.000483439028           
       2.338058             0.00787002684            0.000526851571           
       2.340698             0.00725683604            0.000501935004           
       2.343339             0.00659778242            0.000489132185           
       2.345979             0.00688061296            0.000472572516           
       2.348619              0.0067975911            0.000486882505           
       2.351260             0.00678440954            0.000483576262           
       2.353900             0.00675555222            0.000481018118           
       2.356540             0.00788918755            0.000519075126           
       2.359181             0.00676730314            0.000474012965           
       2.361821             0.00712170552            0.000469720544           
       2.364462             0.00630888119              0.0004623847           
       2.367102             0.00600646731            0.000463645743           
       2.369742             0.00749447957            0.000545127461           
       2.372383             0.00725485621            0.000485656267           
       2.375023             0.00727064968            0.000511085372           
       2.377663             0.00746187707             0.00049505731           
       2.380304             0.00712426284             0.00049179378           
       2.382944             0.00696568116            0.000463175323           
       2.385585             0.00686634442             0.00049044949           
       2.388225             0.00645936445            0.000473457335           
       2.390865                0.00741371            0.000502018252           
       2.393506             0.00666830522            0.000467129931           
       2.396146             0.00731876517            0.000529142967           
       2.398787             0.00685274342            0.000471865547           
       2.401427             0.00725923172            0.000468772815           
       2.404067             0.00690662267            0.000467445187           
       2.406708             0.00698598067            0.000464485479           
       2.409348             0.00729831574            0.000503570816           
       2.411988             0.00781396467            0.000510520259           
       2.414629             0.00752443889            0.000516575222           
       2.417269             0.00679114404            0.000496488413           
       2.419910             0.00689755839            0.000501524243           
       2.422550             0.00683852391            0.000477769698           
       2.425190             0.00757711079            0.000530118392           
       2.427831              0.0061537918            0.000475055384           
       2.430471             0.00702834618            0.000483673693           
       2.433112             0.00726940696            0.000478991762           
       2.435752             0.00656381814            0.000481693326           
       2.438392             0.00716640662            0.000485805415           
       2.441033             0.00755675659            0.000528692133           
       2.443673             0.00722627596            0.000517399675           
       2.446313             0.00664109601            0.000496445416           
       2.448954             0.00758923172            0.000505302265           
       2.451594             0.00667267143            0.000509454104           
       2.454235              0.0064744194             0.00047084357           
       2.456875             0.00801431225            0.000548137899           
       2.459515             0.00722439492            0.000533896547           
       2.462156             0.00833228504            0.000541345453           
       2.464796             0.00809263311            0.000526620529           
       2.467436             0.00847477368            0.000557297096           
       2.470077             0.00719967268            0.000486860208           
       2.472717             0.00777423548            0.000508105573           
       2.475358             0.00670353392            0.000476740435           
       2.477998             0.00710703098            0.000482603186           
       2.480638             0.00732108759            0.000498520625           
       2.483279             0.00790862371            0.000541537234           
       2.485919             0.00735803657            0.000503400451           
       2.488560             0.00715269954            0.000494939865           
       2.491200             0.00698029547            0.000503477569           
       2.493840             0.00695295105            0.000531700696           
       2.496481             0.00722924956             0.00053329363           
       2.499121             0.00698954084            0.000510040939           
       2.501761             0.00729822491            0.000528087313           
       2.504402             0.00593367383            0.000469209853           
       2.507042             0.00712822847            0.000510466089           
       2.509683             0.00796740032             0.00053142946           
       2.512323             0.00668328482            0.000511180567           
       2.514963             0.00655130999            0.000499855561           
       2.517604             0.00677734366            0.000527548854           
       2.520244             0.00812018427            0.000541362284           
       2.522884             0.00732135493            0.000521395904           
       2.525525              0.0111405974            0.000650470623           
       2.528165             0.00827587887            0.000551896379           
       2.530806             0.00803827781            0.000553396781           
       2.533446             0.00707328579            0.000508037348           
       2.536086             0.00709641017            0.000504312568           
       2.538727             0.00670001729            0.000470104677           
       2.541367             0.00688939884            0.000481398074           
       2.544008             0.00716614166            0.000507053822           
       2.546648             0.00732025687            0.000521267535           
       2.549288              0.0064886873            0.000500767465           
       2.551929             0.00638922212             0.00048899361           
       2.554569             0.00743060231             0.00050804852           
       2.557209             0.00671847247            0.000487527045           
       2.559850             0.00693847159            0.000497035863           
       2.562490             0.00664883544            0.000502876863           
       2.565131             0.00768260249            0.000560475835           
       2.567771             0.00672639538            0.000505636687           
       2.570411             0.00736922642             0.00052352053           
       2.573052             0.00713705132            0.000521695821           
       2.575692             0.00642962742            0.000492167563           
       2.578332             0.00740446071            0.000530345657           
       2.580973             0.00716126311            0.000516600904           
       2.583613             0.00749600408             0.00051595187           
       2.586254             0.00719585984            0.000504814297           
       2.588894             0.00733654781            0.000529325374           
       2.591534             0.00684310048            0.000529203097           
       2.594175             0.00713155269            0.000530046877           
       2.596815             0.00617178589            0.000495999051           
       2.599456             0.00637128959            0.000477895253           
       2.602096             0.00715375221            0.000510244812           
       2.604736             0.00697742811            0.000515866362           
       2.607377             0.00578045925            0.000457164088           
       2.610017             0.00759874737            0.000514985091           
       2.612657             0.00774785832            0.000553112603           
       2.615298             0.00737320419            0.000526793767           
       2.617938             0.00723971158            0.000558409975           
       2.620579             0.00718342811            0.000533980088           
       2.623219             0.00799474042            0.000562525034           
       2.625859             0.00688512367            0.000507559681           
       2.628500             0.00639699552            0.000486030213           
       2.631140             0.00733560204            0.000528486421           
       2.633780             0.00756165058            0.000536100916           
       2.636421             0.00657755905            0.000512296688           
       2.639061             0.00721145243            0.000504972634           
       2.641702             0.00754716588            0.000528552328           
       2.644342             0.00694785076            0.000509293189           
       2.646982             0.00717311145            0.000509747136           
       2.649623              0.0064870692            0.000508007253           
       2.652263              0.0066198146            0.000508028899           
       2.654904             0.00684239215            0.000517018615           
       2.657544              0.0070946934            0.000495874864           
       2.660184             0.00623599629            0.000491998057           
       2.662825             0.00755277028            0.000554018241           
       2.665465             0.00645991148            0.000495546771           
       2.668105             0.00611893903            0.000508353522           
       2.670746             0.00722992787            0.000510465604           
       2.673386             0.00776267326            0.000545113498           
       2.676027             0.00771626147            0.000534758991           
       2.678667              0.0102106292            0.000600232415           
       2.681307              0.0118248538            0.000634671187           
       2.683948              0.0145152803            0.000722480026           
       2.686588              0.0115665865            0.000634239353           
       2.689229              0.0110664732            0.000606206067           
       2.691869             0.00947857069            0.000592954291           
       2.694509             0.00828432158            0.000554647217           
       2.697150             0.00772224247            0.000526812781           
       2.699790             0.00785415366            0.000556984627           
       2.702430             0.00773387886            0.000528318081           
       2.705071             0.00656079488            0.000502812643           
       2.707711             0.00618524063            0.000473843943           
       2.710352             0.00720321128            0.000540307576           
       2.712992             0.00731806406            0.000554667684           
       2.715632             0.00698728202            0.000502856439           
       2.718273              0.0074231006            0.000537149856           
       2.720913              0.0066855981            0.000508317958           
       2.723553             0.00717125094            0.000529989118           
       2.726194             0.00817172832            0.000591397805           
       2.728834             0.00732553052            0.000560203734           
       2.731475             0.00776480935            0.000532294891           
       2.734115             0.00903145685            0.000591887808           
       2.736755             0.00627338956            0.000497360829           
       2.739396             0.00691863254            0.000519286496           
       2.742036             0.00725089798            0.000556363173           
       2.744677             0.00690681177            0.000526861456           
       2.747317              0.0059716226             0.00048640257           
       2.749957             0.00741234395            0.000545713409           
       2.752598             0.00733888454            0.000548895517           
       2.755238             0.00769182651             0.00057208356           
       2.757878             0.00660149127            0.000525353845           
       2.760519             0.00818160352            0.000578656174           
       2.763159             0.00929758663            0.000610695405           
       2.765800             0.00790664186            0.000536687353           
       2.768440             0.00842716563            0.000558153643           
       2.771080             0.00836865354            0.000560855326           
       2.773721             0.00663805316            0.000512394558           
       2.776361             0.00714448203            0.000538914773           
       2.779001             0.00773923938            0.000580866661           
       2.781642             0.00612625116            0.000512994042           
       2.784282              0.0065540311            0.000539327547           
       2.786923             0.00736464655             0.00057674182           
       2.789563             0.00657661408            0.000524911298           
       2.792203             0.00663712854            0.000503741892           
       2.794844             0.00601107576            0.000525409761           
       2.797484             0.00768081075            0.000560512504           
       2.800125             0.00668854389            0.000549992778           
       2.802765              0.0072920651             0.00056439105           
       2.805405             0.00675897814            0.000545208737           
       2.808046              0.0072232528            0.000573531205           
       2.810686             0.00680519515            0.000511530447           
       2.813326             0.00601251712            0.000499435642           
       2.815967             0.00715333254            0.000560249569           
       2.818607             0.00658626133            0.000513003063           
       2.821248             0.00719383056            0.000525012097           
       2.823888             0.00771183477            0.000564255789           
       2.826528             0.00694163718             0.00051844846           
       2.829169             0.00639906164            0.000521391051           
       2.831809             0.00693111992             0.00055001517           
       2.834449             0.00667833674            0.000543304241           
       2.837090             0.00642804924            0.000514818748           
       2.839730             0.00669993651             0.00052302746           
       2.842371             0.00682671279            0.000528714603           
       2.845011             0.00607495188            0.000502730163           
       2.847651             0.00739445717            0.000555328194           
       2.850292             0.00615188688             0.00051149594           
       2.852932             0.00679225979            0.000549171806           
       2.855573              0.0065085534            0.000521468024           
       2.858213              0.0070944299            0.000571720357           
       2.860853             0.00725661542            0.000537876014           
       2.863494              0.0067378529            0.000536620758           
       2.866134             0.00645357431            0.000545857858           
       2.868774             0.00735552963            0.000572729207           
       2.871415             0.00648387177            0.000546100016           
       2.874055              0.0065548135             0.00052485163           
       2.876696             0.00669535836            0.000544796473           
       2.879336             0.00710215249            0.000540795139           
       2.881976             0.00718569666            0.000561064031           
       2.884617             0.00730522784            0.000557402991           
       2.887257             0.00735130626            0.000562044292           
       2.889897             0.00659092688            0.000521230789           
       2.892538             0.00701979058            0.000589294952           
       2.895178             0.00739512294            0.000546436207           
       2.897819             0.00734591344            0.000555559439           
       2.900459             0.00736077497            0.000545302818           
       2.903099              0.0060923761            0.000491021965           
       2.905740             0.00759219432            0.000562321245           
       2.908380             0.00655418088            0.000528404873           
       2.911021             0.00686321617            0.000549509979           
       2.913661             0.00742596001            0.000571423262           
       2.916301             0.00620329688            0.000522765429           
       2.918942             0.00685467965            0.000525636238           
       2.921582             0.00729423276            0.000567326159           
       2.924222              0.0072924425            0.000549562484           
       2.926863             0.00774012761            0.000589741966           
       2.929503             0.00712793499            0.000572644206           
       2.932144             0.00622025886            0.000513512241           
       2.934784             0.00690599032            0.000532205477           
       2.937424             0.00754201333            0.000561883253           
       2.940065             0.00636760052            0.000492488061           
       2.942705             0.00707948037            0.000518636754           
       2.945346             0.00715671568            0.000553399096           
       2.947986             0.00648778213            0.000537257507           
       2.950626             0.00612318343            0.000519004181           
       2.953267             0.00617111926            0.000512613273           
       2.955907             0.00682806018             0.00055935448           
       2.958547             0.00738534303            0.000549185906           
       2.961188             0.00689118093            0.000553453867           
       2.963828             0.00804254119            0.000584860355           
       2.966469               0.007534394            0.000555324936           
       2.969109             0.00626990981            0.000514092408           
       2.971749             0.00749521478            0.000558579278           
       2.974390             0.00833245601            0.000578752308           
       2.977030             0.00679825918            0.000534446116           
       2.979670             0.00901719184             0.00059870972           
       2.982311             0.00930246586            0.000630271863           
       2.984951             0.00719200091            0.000527077449           
       2.987592             0.00683690289            0.000524193785           
       2.990232             0.00604885875             0.00051277604           
       2.992872             0.00827837261            0.000565051894           
       2.995513             0.00849327652            0.000559936111           
       2.998153              0.0114834185            0.000662022153           
       3.000794              0.0118179108            0.000650508488           
       3.003434              0.0122018831            0.000661989774           
       3.006074              0.0451269452             0.00125523696           
       3.008715               0.121385951             0.00198728602           
       3.011355               0.183940805             0.00235905325           
       3.013995              0.0934521598             0.00168606137           
       3.016636              0.0632482224             0.00135828421           
       3.019276               0.125567353             0.00188126245           
       3.021917               0.491942884             0.00358046595           
       3.024557                1.65523841             0.00645717361           
       3.027197                1.15997366             0.00527008254           
       3.029838                0.51156926             0.00354946234           
       3.032478               0.261356659             0.00253961858           
       3.035118              0.0714815575             0.00134597347           
       3.037759              0.0956054743             0.00155460543           
       3.040399               0.134519904             0.00190218096           
       3.043040               0.540120904             0.00385829112           
       3.045680               0.396957435             0.00311204327           
       3.048320              0.0825971114             0.00145045164           
       3.050961               0.107352606             0.00168272386           
       3.053601              0.0845759866             0.00143850393           
       3.056242              0.0548106186             0.00123123209           
       3.058882              0.0478870669             0.00123451455           
       3.061522              0.0370244391             0.00106500861           
       3.064163              0.0429880771             0.00113312899           
       3.066803               0.103747331             0.00185324724           
       3.069443              0.0998740216             0.00190243224           
       3.072084              0.0539670178             0.00136171766           
       3.074724              0.0396086585             0.00130281367           
       3.077365              0.0863311348             0.00199106092           
       3.080005              0.0197065859            0.000956666348           
       3.082645              0.0116285876            0.000772011917           
       3.085286              0.0122197824            0.000797636911           
       3.087926              0.0081095417            0.000644779944           
       3.090566             0.00998632613            0.000701062558           
       3.093207             0.00957901415             0.00071449564           
       3.095847             0.00836352345            0.000639910129           
       3.098488              0.0084378996            0.000712698818           
       3.101128             0.00963156791             0.00076633983           
       3.103768             0.00903088986            0.000728097801           
       3.106409             0.00929308346            0.000786060137           
       3.109049             0.00831423667            0.000713510107           
       3.111690             0.00832915723             0.00070189033           
       3.114330             0.00832354522            0.000716580318           
       3.116970             0.00758597221            0.000689346746           
       3.119611              0.0134187365            0.000975903046           
       3.122251              0.0198473449             0.00124150277           
       3.124891              0.0350598699             0.00166543711           
       3.127532               0.026104432             0.00140588019           
       3.130172              0.0148274049              0.0010778641           
       3.132813              0.0076236818            0.000760876759           
       3.135453             0.00894661823            0.000817465077           
       3.138093             0.00550072403            0.000694532833           
       3.140734             0.00597103442            0.000667590668           
       3.143374             0.00802001683             0.00081822255           
       3.146014             0.00724928741            0.000837459656           
       3.148655             0.00633706196            0.000727868406           
       3.151295             0.00540758362            0.000716518941           
       3.153936             0.00530369338            0.000685454807           
       3.156576             0.00603041755            0.000720967155           
       3.159216             0.00678272655            0.000768441448           
       3.161857              0.0066264722            0.000756447388           
       3.164497              0.0080004163            0.000873328159           
       3.167138             0.00712516692            0.000851572462           
       3.169778             0.00706150583             0.00083377898           
       3.172418             0.00606725755            0.000764994651           
       3.175059             0.00551621243            0.000646669164           
       3.177699             0.00492445671            0.000647011462           
       3.180339             0.00546143603            0.000730040549           
       3.182980             0.00593261335             0.00078667335           
       3.185620             0.00780707668            0.000919052606           
       3.188261             0.00594132524            0.000816055354           
       3.190901             0.00548584693            0.000721191498           
       3.193541             0.00490702377            0.000716705744           
       3.196182             0.00589978836            0.000818987973           
       3.198822             0.00544485874            0.000787042449           
       3.201463             0.00624833184            0.000828589458           
       3.204103             0.00586254761            0.000797719451           
       3.206743             0.00542312592            0.000767169043           
       3.209384             0.00530278238             0.00081961251           
       3.212024             0.00483820894            0.000729896063           
       3.214664             0.00523499275            0.000863359429           
       3.217305             0.00601576988            0.000879757302           
       3.219945             0.00530622978            0.000850422215           
       3.222586              0.0066852991            0.000909199944           
       3.225226             0.00745692084             0.00106523414           
       3.227866              0.0064973057            0.000908810596           
       3.230507             0.00749232408              0.0010116495           
       3.233147             0.00736743277             0.00101128291           
       3.235787             0.00493555903            0.000847066636           
       3.238428             0.00590970594             0.00100024114           
       3.241068              0.0063694063            0.000970970296           
       3.243709             0.00537595052            0.000921618568           
       3.246349             0.00524076691            0.000829510907           
       3.248989              0.0064018637             0.00108254483           
       3.251630             0.00528194533            0.000946898909           
       3.254270             0.00651533349            0.000939898081           
       3.256911             0.00629316893             0.00100789678           
       3.259551             0.00522972874            0.000989170045           
       3.262191             0.00408381877            0.000892856658           
       3.264832             0.00403239494            0.000927009242           
       3.267472             0.00487130265            0.000955823509           
       3.270112             0.00748430826             0.00130931259           
       3.272753             0.00632478847             0.00110170495           
       3.275393             0.00399197868            0.000893068721           
       3.278034             0.00458881335            0.000958043899           
       3.280674              0.0068167883             0.00126709865           
       3.283314             0.00413321228            0.000882417261           
       3.285955             0.00481919308              0.0009831156           
       3.288595             0.00449187837             0.00105595657           
       3.291235             0.00524813262             0.00117334023           
       3.293876             0.00589009803             0.00126089576           
       3.296516             0.00372120802            0.000962146661           
       3.299157             0.00583671825             0.00118984974           
       3.301797             0.00694989315              0.0014810253           
       3.304437             0.00685919231             0.00127473169           
       3.307078             0.00600735298             0.00131411283           
       3.309718             0.00583245566             0.00133650967           
       3.312359             0.00490441193             0.00122586601           
       3.314999             0.00651320141             0.00139090867           
       3.317639              0.0081956121             0.00149218006           
       3.320280             0.00457791322             0.00118571928           
       3.322920             0.00346978606             0.00104965896           
       3.325560             0.00540132283             0.00131051467           
       3.328201             0.00461533054             0.00109102592           
       3.330841             0.00495573417             0.00137594334           
       3.333482             0.00512688936             0.00132285067           
       3.336122             0.00580578044              0.0014083602           
       3.338762             0.00638086974             0.00170554662           
       3.341403             0.00581178425             0.00155534692           
       3.344043             0.00611695949             0.00153196512           
       3.346683             0.00600201979             0.00154924767           
       3.349324             0.00353550353             0.00133687622           
       3.351964             0.00450374673             0.00159557638           
       3.354605             0.00668864559             0.00222379076           
       3.357245             0.00896738833              0.0023228201           
       3.359885             0.00344647883              0.0011525399           
       3.362526             0.00530895947             0.00178883835           
       3.365166             0.00536402155             0.00169594781           
       3.367807             0.00702900194             0.00248459187           
       3.370447             0.00238994028             0.00120178112           
       3.373087              0.0055215924             0.00195340044           
       3.375728             0.00260700092             0.00151484755           
       3.378368              0.0038246639             0.00272310805           
       3.381008             0.00320075926             0.00185726074           
       3.383649             0.00621237115             0.00207567584           
       3.386289             0.00580017425             0.00237373315           
       3.388930             0.00243304215             0.00243180924           
       3.391570              0.0047729484              0.0024094091           
       3.394210             0.00976783784             0.00436200707           
       3.396851             0.00238949055             0.00241331271           
       3.399491             0.00702146056              0.0041380598           
       3.402131           -2.60792716e-05                         0           
       3.404772              0.0190859079              0.0136538684           
       3.407412                       nan                       nan           
       3.410053               0.018305805              0.0133883758           
       3.412693                       nan                       nan           
       3.415333             0.00887938227             0.00933339017           
