################################################################################
# EDF_DataBlockID                     0.Image.Psd
# EDF_BinarySize                      4366944
# EDF_HeaderSize                      2560
# ByteOrder                           LowByteFirst
# DataType                            FloatValue
# Dim_1                               1028
# Dim_2                               1062
# Image                               0
# HeaderID                            EH:000000:000000:000000
# Size                                4366944
# Center_1                            607.5200
# Center_2                            651.5500
# Comment                             Xenocs_Cell_Window - 20251028_20perc_iodine_1.23mg
# DDummy                              0.6
# Date                                2025-10-29T15:20:56
# Delta                               0
# Dummy                               -1.5
# ExposureTime                        360
# Gamma                               0
# Intensity1                          8.50277e-10
# PSize_1                             7.5e-05
# PSize_2                             7.5e-05
# Pressure                            0.0327463
# SampleDistance                      0.450002
# SampleEnvKind                       large
# SampleEnvPN                         ElectroChemical cell
# SampleEnvSN                         1141
# Thickness                           0
# Wavelength                          1.541891e-10
# Wavelength                          1.54189e-10
# aux                                 0
# aux_dial                            0.002375
# beamx                               588.434
# beamx_dial                          588.434
# beamz                               657.808
# beamz_dial                          657.808
# det0x                               0
# det0x_dial                          6.36945
# det0xvd                             0
# det0xvd_dial                        0
# det0y                               450.002
# det0y_dial                          481.635
# det0z                               0
# det0z_dial                          1.23302
# det0zvd                             0
# det0zvd_dial                        0
# mag                                 1.818
# mag_dial                            1.818
# om                                  0.2499
# om_dial                             -0.610199
# phi                                 -0.0120535
# phi_dial                            0
# ry                                  0.599993
# ry_dial                             0.599993
# s1bot                               0.8
# s1bot_dial                          -1.66094
# s1hl                                0.8
# s1hl_dial                           -0.608437
# s1hr                                0.8
# s1hr_dial                           0.970938
# s1top                               0.8
# s1top_dial                          -0.461562
# s2bot                               0.45
# s2bot_dial                          1.36109
# s2hl                                0.45
# s2hl_dial                           -0.83375
# s2hr                                0.45
# s2hr_dial                           -0.118594
# s2top                               0.45
# s2top_dial                          1.44734
# w2theta                             32
# w2theta_dial                        32
# waxsch                              19.2605
# waxsch_dial                         -32.7355
# waxsh                               137.085
# waxsh_dial                          -43.5338
# waxsth                              26.0607
# waxsth_dial                         -19.4086
# waxsz                               67.0407
# waxsz_dial                          -23.7954
# wind                                65.9854
# wind_dial                           66.0041
# wpsi                                124
# wpsi_dial                           124
# wstod                               115
# wstod_dial                          115
# x                                   0
# x_dial                              1.00969
# z                                   0
# z_dial                              13.3172
# CountCutoff                         15302352
# DetectorModel                       Dectris EIGER2 Si 1M, S/N E-02-0362
# ThresholdSetting                    4023.88989258
# Saturation                          0
# FlatField                           Corrected
# BackgroundReductionExtra            0.02
# BackgroundCorrectionConstant        0.0026712
# Detector                            0
# Monitor                             0
# Pil_Roi0                            0
# SumForIntensity1                    3.061e+08
# TransmittedFlux                     850277
# det                                 0
# mon                                 0
# pilai0                              3.061e+08
# pilai1                              766892
# pilct0                              5.30676e+08
# pilct1                              766892
# pilroi0                             0
# pilroi1                             0
# sec                                 1
# title                               20251028_20perc_iodine_1.23mg_0_00227.edf
# usaxs0                              0
# Operation                           Azimuthal average I(q)
# Error_model                         ErrorModel.poisson
# Geometrical_correction              True
# Transmission_correction             True
# Thickness_correction                False
# Binning mode                        Uniform
# Binning factor                      1.0
# Psi                                 0.0
# Omega                               0.2499
# MaskInvalidPixels                   True
# DetectorEdge                        3
# MaskFiles                           ['20251028_20perc_iodine_1.23mg_0_00012_mask.edf']
################################################################################
    q(A⁻¹)                Intensity(a.u.)            Sigma_I(a.u.)            
       0.000340                371946.351                120.753922           
       0.001019                359703.706                72.7192175           
       0.001698                350363.413                50.7482596           
       0.002377                330833.909                44.1074378           
       0.003056                307613.342                35.9455771           
       0.003735                253326.309                28.7680801           
       0.004415                205361.008                 25.901793           
       0.005094                 153770.34                19.4105515           
       0.005773                101642.036                14.6104981           
       0.006452                59261.4896                10.6891677           
       0.007131                32406.1301                7.65736963           
       0.007810                16184.2053                5.37027614           
       0.008490                 8068.0287                3.36098974           
       0.009169                3861.07213                2.29788392           
       0.009848                 1181.6293                1.22905219           
       0.010527                452.588835               0.760644763           
       0.011206                114.428388               0.365031515           
       0.011885                53.3966643               0.231680031           
       0.012564                24.9945497               0.162736872           
       0.013244                17.1389716               0.125984078           
       0.013923                12.3754719               0.108781195           
       0.014602                9.54793876              0.0886161097           
       0.015281                7.52197583              0.0800668437           
       0.015960                6.15893133              0.0719308763           
       0.016639                5.01162058              0.0612726104           
       0.017319                4.23027881              0.0554184741           
       0.017998                3.48982711              0.0481552218           
       0.018677                 2.9574549              0.0459140545           
       0.019356                2.55112838              0.0421358581           
       0.020035                2.18307543              0.0365690193           
       0.020714                1.87371411              0.0342375628           
       0.021394                1.59007371              0.0298421192           
       0.022073                1.43678704              0.0295138994           
       0.022752                1.31731649              0.0270339173           
       0.023431                1.09752045              0.0239523166           
       0.024110                1.03609125              0.0242631355           
       0.024789               0.910884691              0.0211280697           
       0.025469               0.828897331               0.020769716           
       0.026148               0.693479525              0.0178497421           
       0.026827               0.654805423              0.0176224432           
       0.027506               0.649238049              0.0178004095           
       0.028185                0.57248131              0.0159402446           
       0.028864               0.548292553              0.0155123218           
       0.029544               0.478780071              0.0140567341           
       0.030223               0.463658989              0.0140313381           
       0.030902               0.421314333              0.0134976789           
       0.031581               0.378303823              0.0121584543           
       0.032260               0.344190265              0.0117949173           
       0.032939                0.32653413                0.01107733           
       0.033619               0.294932207              0.0106823836           
       0.034298               0.276951712              0.0100738221           
       0.034977               0.268589736             0.00972561723           
       0.035656               0.234822989             0.00933441953           
       0.036335                0.21555763             0.00867389842           
       0.037014               0.185324558             0.00806663923           
       0.037693               0.203853414             0.00813868552           
       0.038373               0.179097966             0.00770338729           
       0.039052               0.177272092             0.00769662735           
       0.039731                0.16944147             0.00734935647           
       0.040410               0.157629062             0.00704102778           
       0.041089               0.140436747             0.00654186436           
       0.041768               0.145323875             0.00668948543           
       0.042448                0.13072763             0.00629542214           
       0.043127               0.124604989             0.00600106976           
       0.043806               0.112926954             0.00575553833           
       0.044485               0.121837649             0.00585548836           
       0.045164               0.103871449             0.00551311123           
       0.045843              0.0993686337               0.005171861           
       0.046523               0.116009352             0.00560745481           
       0.047202               0.101729608             0.00528770473           
       0.047881              0.0940415464             0.00498593397           
       0.048560               0.098742727             0.00515560645           
       0.049239              0.0974685052             0.00491826831           
       0.049918              0.0861407625             0.00471403171           
       0.050598              0.0901518985             0.00475018382           
       0.051277              0.0845536063             0.00458573291           
       0.051956              0.0822574562             0.00449463586           
       0.052635              0.0766230611             0.00424591003           
       0.053314              0.0899352768             0.00473447115           
       0.053993              0.0746902439             0.00419624185           
       0.054673              0.0789044733             0.00421692495           
       0.055352              0.0774148718             0.00423828359           
       0.056031              0.0726633951             0.00401988185           
       0.056710              0.0687990766             0.00400738258           
       0.057389              0.0717648284             0.00394677588           
       0.058068              0.0595109771             0.00363110758           
       0.058748              0.0613051867             0.00373141126           
       0.059427              0.0708536914             0.00394357219           
       0.060106              0.0681292987             0.00390361182           
       0.060785              0.0632928218             0.00364976993           
       0.061464              0.0649828791             0.00378731712           
       0.062143              0.0578728168             0.00353781641           
       0.062822              0.0617012732             0.00361009441           
       0.063502              0.0565256829             0.00344919536           
       0.064181              0.0568034226             0.00342114671           
       0.064860              0.0485567973              0.0032112517           
       0.065539              0.0545586387             0.00337064846           
       0.066218              0.0507688538             0.00318185477           
       0.066897               0.044619512             0.00300596426           
       0.067577              0.0476150092             0.00313505947           
       0.068256              0.0488050951             0.00325196416           
       0.068935              0.0468271193             0.00313387881           
       0.069614              0.0428225174              0.0030267149           
       0.070293              0.0429961617             0.00306081149           
       0.070972              0.0460088018             0.00314304545           
       0.071652              0.0449187521             0.00311128577           
       0.072331               0.044084785             0.00302733492           
       0.073010              0.0378913872             0.00287076662           
       0.073689              0.0385379563             0.00287924674           
       0.074368               0.037295555             0.00282730409           
       0.075047              0.0441140979             0.00304186144           
       0.075727              0.0404330872             0.00289419955           
       0.076406              0.0413498908             0.00298522503           
       0.077085              0.0394533408             0.00286146612           
       0.077764              0.0349164279             0.00268248417           
       0.078443              0.0321201893             0.00258876069           
       0.079122              0.0390611387             0.00282737244           
       0.079802              0.0391575479             0.00286088326           
       0.080481              0.0347511872             0.00260420342           
       0.081160              0.0301643008             0.00247604342           
       0.081839              0.0329000047             0.00254448836           
       0.082518              0.0320062349             0.00251180192           
       0.083197              0.0357721443             0.00261420474           
       0.083876              0.0351601962               0.002548682           
       0.084556              0.0351384317             0.00261875281           
       0.085235              0.0330393493             0.00249026864           
       0.085914              0.0339407954             0.00254853115           
       0.086593              0.0330655862             0.00249926824           
       0.087272              0.0293849785             0.00232276235           
       0.087951              0.0301547727             0.00240614184           
       0.088631              0.0320391209             0.00239570539           
       0.089310              0.0306446131             0.00239268203           
       0.089989              0.0304745481             0.00235813883           
       0.090668              0.0302105638             0.00237381961           
       0.091347              0.0281358081             0.00230368323           
       0.092026              0.0246652456             0.00206167495           
       0.092706               0.032615766             0.00245683257           
       0.093385              0.0260440512             0.00216169861           
       0.094064              0.0272034229             0.00223500258           
       0.094743              0.0258438633             0.00214523938           
       0.095422              0.0287381411             0.00223695022           
       0.096101              0.0274026705             0.00222934349           
       0.096781              0.0261101697             0.00214497412           
       0.097460              0.0314051689             0.00228826457           
       0.098139               0.028459635             0.00216155214           
       0.098818               0.027923387             0.00211472367           
       0.099497              0.0229175304             0.00191974809           
       0.100176              0.0290562785             0.00210489232           
       0.100856              0.0256471562               0.001976292           
       0.101535              0.0257130791             0.00197501383           
       0.102214              0.0262981792             0.00199737048           
       0.102893              0.0252462649             0.00193471807           
       0.103572              0.0242306979             0.00186740467           
       0.104251              0.0291880966             0.00205712079           
       0.104931              0.0314679043             0.00211650292           
       0.105610              0.0252928006             0.00190560131           
       0.106289              0.0226542268             0.00177345442           
       0.106968              0.0258679046             0.00190069755           
       0.107647              0.0243660122             0.00184580236           
       0.108326              0.0244074318             0.00182265664           
       0.109005              0.0233280397             0.00177068721           
       0.109685              0.0193606087             0.00159500935           
       0.110364              0.0220726887             0.00172240881           
       0.111043              0.0233427447             0.00176424626           
       0.111722              0.0235799566             0.00175151461           
       0.112401              0.0294494105             0.00196284766           
       0.113080              0.0236205654             0.00173775242           
       0.113760              0.0243436765             0.00179361746           
       0.114439              0.0228722354              0.0017137531           
       0.115118               0.023689768             0.00173096089           
       0.115797              0.0248944884             0.00179086676           
       0.116476              0.0198617204             0.00157569025           
       0.117155              0.0196194317              0.0015786808           
       0.117835              0.0207580137             0.00159156132           
       0.118514              0.0219000072             0.00165548258           
       0.119193              0.0215122235             0.00164077212           
       0.119872              0.0230861842             0.00167847938           
       0.120551              0.0231223207             0.00166860327           
       0.121230              0.0236080753             0.00166907207           
       0.121910              0.0170835821             0.00143354541           
       0.122589              0.0233682473             0.00167834927           
       0.123268              0.0224614375             0.00161358461           
       0.123947              0.0197262195             0.00152192971           
       0.124626              0.0219068053              0.0015842343           
       0.125305              0.0211661565             0.00156486505           
       0.125985              0.0194552737             0.00148864629           
       0.126664              0.0237912831             0.00163051624           
       0.127343              0.0222928663             0.00159662982           
       0.128022              0.0209382334             0.00153549152           
       0.128701               0.020951413             0.00152797351           
       0.129380              0.0209493595             0.00150876242           
       0.130059              0.0207196147             0.00150395117           
       0.130739              0.0197766113             0.00147966099           
       0.131418               0.021555705             0.00154045772           
       0.132097               0.020868385             0.00149626088           
       0.132776              0.0202737608             0.00146813137           
       0.133455              0.0194283949             0.00144836253           
       0.134134              0.0199380388             0.00146256371           
       0.134814              0.0217038886             0.00151023416           
       0.135493              0.0222262914             0.00153448637           
       0.136172              0.0192691538              0.0014179793           
       0.136851              0.0209996251             0.00148889076           
       0.137530              0.0190821199             0.00138556757           
       0.138209               0.020062307             0.00143738789           
       0.138889              0.0198042308             0.00143440802           
       0.139568              0.0197712913             0.00143259521           
       0.140247              0.0204693908             0.00145575713           
       0.140926              0.0148936413             0.00120625237           
       0.141605              0.0178760776             0.00135509455           
       0.142284              0.0180240472             0.00133814381           
       0.142964              0.0166868534             0.00129247387           
       0.143643              0.0169534159              0.0013011105           
       0.144322              0.0178519493             0.00130720657           
       0.145001              0.0177162255             0.00132895764           
       0.145680              0.0198109713             0.00137208238           
       0.146359              0.0166114986             0.00126100686           
       0.147039              0.0186259038             0.00134627126           
       0.147718              0.0179104889             0.00129837886           
       0.148397              0.0191798753             0.00136448058           
       0.149076              0.0180827139             0.00128377921           
       0.149755              0.0188364925             0.00133049449           
       0.150434              0.0189681053             0.00133567949           
       0.151114               0.016213196             0.00122804931           
       0.151793               0.017988846             0.00129356175           
       0.152472              0.0192281209             0.00131375367           
       0.153151              0.0201721224             0.00135862578           
       0.153830              0.0204175344             0.00135690653           
       0.154509              0.0182857965             0.00127876112           
       0.155188              0.0157504265             0.00118636436           
       0.155868              0.0207184881              0.0013509816           
       0.156547              0.0173431244             0.00124398418           
       0.157226               0.019870143             0.00129901019           
       0.157905              0.0189055933             0.00127773229           
       0.158584              0.0177411755             0.00123550981           
       0.159263               0.020369332             0.00132873517           
       0.159943              0.0158909896             0.00117448992           
       0.160622              0.0190390792             0.00126076342           
       0.161301              0.0165536889              0.0011913197           
       0.161980              0.0170532534             0.00118860562           
       0.162659              0.0155246363             0.00114665307           
       0.163338              0.0179142059             0.00122170356           
       0.164018              0.0175520364             0.00120294394           
       0.164697              0.0172631819             0.00120832301           
       0.165376              0.0177165229             0.00119734106           
       0.166055              0.0182096127             0.00122189465           
       0.166734                0.01738748             0.00118864433           
       0.167413              0.0164244419             0.00115606665           
       0.168093              0.0160001216             0.00115182905           
       0.168772               0.018425639             0.00119990633           
       0.169451              0.0172723446              0.0011831216           
       0.170130              0.0166615542             0.00114675918           
       0.170809              0.0174510904             0.00118762118           
       0.171488              0.0183405154             0.00120641074           
       0.172168              0.0157673834             0.00110783968           
       0.172847              0.0154167707             0.00110984299           
       0.173526               0.019978673             0.00123931946           
       0.174205              0.0154946955             0.00109644546           
       0.174884              0.0176561866             0.00116432666           
       0.175563              0.0173295025             0.00115842991           
       0.176243              0.0159420428             0.00112220806           
       0.176922              0.0175860441             0.00114793607           
       0.177601              0.0176755462             0.00116350113           
       0.178280              0.0160135356             0.00109508758           
       0.178959               0.019097387             0.00120551165           
       0.179638              0.0174792642              0.0011499887           
       0.180317              0.0165965577             0.00111241185           
       0.180997              0.0150546548             0.00106522876           
       0.181676              0.0159148062             0.00108354246           
       0.182355              0.0160299559             0.00109398648           
       0.183034              0.0171699642              0.0011140479           
       0.183713              0.0137314009             0.00100840197           
       0.184392              0.0156555598             0.00107641358           
       0.185072               0.015433681             0.00105657837           
       0.185751              0.0150889224             0.00104761711           
       0.186430              0.0168043857             0.00109782285           
       0.187109              0.0166830921             0.00110603563           
       0.187788                0.01665392             0.00110234379           
       0.188467              0.0154211709             0.00104820772           
       0.189147              0.0158768622              0.0010743529           
       0.189826              0.0138383366             0.00098527601           
       0.190505              0.0174353719             0.00112414529           
       0.191184              0.0167065291             0.00108453915           
       0.191863              0.0148835842             0.00102581689           
       0.192542              0.0124086867            0.000945486428           
       0.193222              0.0159811291             0.00104894519           
       0.193901              0.0147800124             0.00102227773           
       0.194580              0.0148388263             0.00100639194           
       0.195259                0.01713644             0.00109392374           
       0.195938              0.0146747597             0.00101472364           
       0.196617              0.0180857522             0.00111077401           
       0.197297               0.017353781              0.0010925068           
       0.197976              0.0146040271            0.000986826279           
       0.198655               0.015826841             0.00103853111           
       0.199334               0.017472202             0.00108155675           
       0.200013              0.0158540256             0.00102968503           
       0.200692              0.0161123388             0.00104428337           
       0.201371              0.0162135715             0.00103576102           
       0.202051              0.0157159106              0.0010229124           
       0.202730              0.0157284761             0.00101310044           
       0.203409              0.0153381451             0.00100716634           
       0.204088              0.0155766492             0.00101384408           
       0.204767              0.0155467931             0.00100754846           
       0.205446              0.0162492654             0.00103207255           
       0.206126              0.0154846246            0.000993808862           
       0.206805              0.0141044779            0.000965874337           
       0.207484              0.0149232433            0.000975652456           
       0.208163              0.0141956375              0.0009572886           
       0.208842              0.0137353733            0.000939089994           
       0.209521              0.0146409605            0.000961495858           
       0.210201              0.0151789567             0.00098992693           
       0.210880              0.0171252902             0.00103084708           
       0.211559              0.0155760976            0.000997651063           
       0.212238              0.0162936735             0.00101518055           
       0.212917               0.014939313            0.000968461822           
       0.213596              0.0140284883            0.000944023911           
       0.214276              0.0154557567            0.000970240124           
       0.214955              0.0152964026            0.000985523428           
       0.215634              0.0147610051            0.000961183918           
       0.216313              0.0143242193             0.00094486791           
       0.216992              0.0131321927            0.000904472703           
       0.217671              0.0143680075            0.000939665729           
       0.218351              0.0148336866            0.000964109789           
       0.219030                0.01413375            0.000926234057           
       0.219709               0.016264022            0.000999785028           
       0.220388              0.0153560342            0.000970228219           
       0.221067                0.01405198            0.000928853678           
       0.221746              0.0145174442            0.000943145147           
       0.222426              0.0146388737            0.000932927323           
       0.223105              0.0172618234             0.00102686649           
       0.223784               0.015065706            0.000949808476           
       0.224463              0.0170770111             0.00101927671           
       0.225142              0.0155743747            0.000957998687           
       0.225821              0.0156605068            0.000964513592           
       0.226500              0.0162184248            0.000987785027           
       0.227180              0.0154761091            0.000950049124           
       0.227859              0.0147974184            0.000933151381           
       0.228538              0.0137393513            0.000890141888           
       0.229217              0.0161334356            0.000972218058           
       0.229896              0.0150024105             0.00093706916           
       0.230575              0.0131775195            0.000864229797           
       0.231255              0.0143165951            0.000914294751           
       0.231934              0.0132681444            0.000874166548           
       0.232613              0.0149419037            0.000931089433           
       0.233292              0.0131018029            0.000863450555           
       0.233971              0.0118275787            0.000820006213           
       0.234650              0.0144032384            0.000915541071           
       0.235330              0.0142517678            0.000902761585           
       0.236009              0.0142012043            0.000899216254           
       0.236688              0.0149385476            0.000918964522           
       0.237367              0.0140250827             0.00089171812           
       0.238046              0.0136349721            0.000885420954           
       0.238725              0.0141640157            0.000888512262           
       0.239405              0.0139823391            0.000888269756           
       0.240084              0.0155951369            0.000932127444           
       0.240763              0.0141601731            0.000896713475           
       0.241442              0.0124794098            0.000829953015           
       0.242121              0.0127972095            0.000842040781           
       0.242800              0.0142721576            0.000893452541           
       0.243480              0.0140218487            0.000881436527           
       0.244159              0.0140884985            0.000883956412           
       0.244838              0.0129709043            0.000834215033           
       0.245517              0.0139234999            0.000876737806           
       0.246196              0.0141497882            0.000884259746           
       0.246875              0.0153177753            0.000907206523           
       0.247554              0.0151765866            0.000912193392           
       0.248234              0.0140428817             0.00086415628           
       0.248913              0.0130573577            0.000842628672           
       0.249592              0.0137517552            0.000856527042           
       0.250271              0.0120961333            0.000800981332           
       0.250950              0.0136413073            0.000855813202           
       0.251629              0.0130739183            0.000830705052           
       0.252309              0.0134048764            0.000842860909           
       0.252988              0.0136390062            0.000835544862           
       0.253667              0.0142861303            0.000865128321           
       0.254346              0.0128660816            0.000820837134           
       0.255025               0.013314408            0.000833186818           
       0.255704               0.013365721            0.000830967389           
       0.256384              0.0145893447            0.000865168333           
       0.257063              0.0152832194            0.000890551875           
       0.257742              0.0138417097            0.000841641312           
       0.258421               0.012327199            0.000792734241           
       0.259100               0.011802654            0.000777037423           
       0.259779              0.0134027927            0.000827335084           
       0.260459              0.0117247193            0.000775330811           
       0.261138              0.0116011103            0.000756161279           
       0.261817              0.0123373634            0.000795527376           
       0.262496              0.0144076131            0.000851255178           
       0.263175              0.0133546712             0.00082131954           
       0.263854              0.0145879175            0.000854416854           
       0.264534               0.011824968            0.000762689904           
       0.265213              0.0125641848            0.000798556731           
       0.265892              0.0125281027            0.000787193033           
       0.266571              0.0127802752            0.000793268019           
       0.267250               0.013313914            0.000811023993           
       0.267929              0.0127320382            0.000792290133           
       0.268609              0.0132827902            0.000813675693           
       0.269288              0.0123155306            0.000770474123           
       0.269967              0.0113444412            0.000747441539           
       0.270646              0.0117827711             0.00075845175           
       0.271325              0.0139830411             0.00082761775           
       0.272004              0.0116304973            0.000747269397           
       0.272683              0.0118588193            0.000755501039           
       0.273363              0.0127279129            0.000787687621           
       0.274042              0.0128684776            0.000787352302           
       0.274721               0.011653141            0.000748806246           
       0.275400              0.0126231911            0.000774189895           
       0.276079              0.0133689486            0.000801254705           
       0.276758              0.0113643445            0.000748066994           
       0.277438              0.0117888413            0.000753357745           
       0.278117              0.0100972849            0.000709895015           
       0.278796              0.0126668307            0.000787036815           
       0.279475              0.0120838425            0.000781410582           
       0.280154             0.00991910206            0.000697783284           
       0.280833              0.0119749588            0.000771355304           
       0.281513               0.012405332            0.000797411062           
       0.282192              0.0124358779            0.000784771361           
       0.282871              0.0115380329            0.000761193398           
       0.283550              0.0103535362            0.000724927595           
       0.284229               0.011716651            0.000782499893           
       0.284908              0.0112826036            0.000775968389           
       0.285588             0.00998018193            0.000721261848           
       0.286267               0.010057159            0.000735631167           
       0.286946              0.0105518968            0.000748607651           
       0.287625              0.0101489799            0.000746676612           
       0.288304              0.0119022534            0.000797781295           
       0.288983              0.0112791269            0.000786451986           
       0.289663             0.00899880195            0.000706579882           
       0.290342              0.0113023988            0.000787655385           
       0.291021              0.0114392077            0.000796677183           
       0.291700              0.0108539456            0.000765891771           
       0.292379             0.00956750622            0.000735536892           
       0.293058             0.00965822544             0.00073622435           
       0.293738              0.0102150921            0.000750793148           
       0.294417              0.0101701466            0.000757847022           
       0.295096              0.0106512551            0.000767039209           
       0.295775             0.00945545784            0.000733737712           
       0.296454              0.0105400095            0.000764655943           
       0.297133              0.0100783597            0.000751260048           
       0.297812             0.00946501026            0.000731692611           
       0.298492              0.0108073563            0.000783368578           
       0.299171              0.0112578739             0.00079801707           
       0.299850              0.0108315535            0.000777416179           
       0.300529             0.00941175814            0.000732838587           
       0.301208              0.0105173468            0.000776571705           
       0.301887             0.00961444495            0.000741607624           
       0.302567             0.00879134634            0.000705601031           
       0.303246             0.00975239982            0.000748020448           
       0.303925             0.00950328364            0.000747885838           
       0.304604              0.0103810744            0.000764784763           
       0.305283             0.00957958131            0.000745564362           
       0.305962             0.00854792541            0.000700020314           
       0.306642             0.00950462361            0.000748180525           
       0.307321              0.0106676252            0.000790103172           
       0.308000              0.0089495459              0.0007151084           
       0.308679              0.0100974872             0.00077603723           
       0.309358             0.00964566621            0.000748216311           
       0.310037              0.0096933604             0.00075173504           
       0.310717             0.00839032258            0.000698713125           
       0.311396             0.00910632486            0.000732797665           
       0.312075             0.00893063197            0.000734896762           
       0.312754              0.0103452223            0.000775137541           
       0.313433             0.00911615194            0.000733965077           
       0.314112             0.00858588281            0.000712135107           
       0.314792             0.00727122617            0.000659978569           
       0.315471              0.0083117179            0.000696894712           
       0.316150              0.0095170426            0.000752616343           
       0.316829             0.00889654155            0.000732473147           
       0.317508              0.0101638957            0.000774123664           
       0.318187             0.00796363938             0.00069426877           
       0.318866             0.00862627009            0.000712841838           
       0.319546             0.00744812803            0.000672305809           
       0.320225              0.0083459358            0.000711687449           
       0.320904             0.00891149157            0.000724034796           
       0.321583             0.00669219603            0.000641260079           
       0.322262              0.0081273297            0.000695971222           
       0.322941             0.00742940494            0.000673942814           
       0.323621             0.00909374436             0.00074106941           
       0.324300             0.00679876618            0.000641272808           
       0.324979             0.00762653213             0.00068041796           
       0.325658             0.00806927132            0.000701159051           
       0.326337             0.00773530798            0.000687392344           
       0.327016             0.00787684519             0.00068924889           
       0.327696             0.00862145954            0.000729111211           
       0.328375             0.00851796896            0.000718606462           
       0.329054              0.0069040291            0.000650464384           
       0.329733             0.00695948261            0.000655456435           
       0.330412             0.00827861049            0.000709024116           
       0.331091             0.00689667361            0.000658884647           
       0.331771             0.00832072114            0.000704755288           
       0.332450             0.00761150542            0.000687138447           
       0.333129             0.00737622993            0.000674689724           
       0.333808             0.00771598753            0.000690965336           
       0.334487             0.00710940539              0.0006663945           
       0.335166             0.00591537803            0.000598967172           
       0.335846             0.00651700383             0.00063973692           
       0.336525             0.00669209205            0.000641873225           
       0.337204             0.00704005139            0.000660075015           
       0.337883             0.00598979739            0.000609658651           
       0.338562             0.00595007939            0.000611005944           
       0.339241             0.00715271505            0.000671170028           
       0.339921             0.00727118845            0.000665357346           
       0.340600             0.00717454147            0.000673471861           
       0.341279             0.00709866924            0.000662727831           
       0.341958             0.00533024285            0.000582377467           
       0.342637             0.00548292863            0.000582315383           
       0.343316              0.0074256633            0.000679634101           
       0.343995             0.00648314741            0.000645437355           
       0.344675             0.00678959996            0.000648377068           
       0.345354             0.00738668995            0.000680747081           
       0.346033             0.00591892011            0.000607782939           
       0.346712             0.00617837317            0.000624923246           
       0.347391             0.00568666949             0.00060325284           
       0.348070             0.00694233771            0.000657069663           
       0.348750             0.00760865209            0.000697819077           
       0.349429             0.00735400046            0.000677185477           
       0.350108             0.00669598128            0.000653954896           
       0.350787             0.00594010676            0.000605475044           
       0.351466              0.0051793661             0.00057579098           
       0.352145             0.00667174131            0.000654043136           
       0.352825             0.00539046498              0.0005852323           
       0.353504             0.00552513034            0.000592352079           
       0.354183              0.0060069968             0.00061052683           
       0.354862              0.0059683415            0.000622700571           
       0.355541             0.00573882763            0.000602613313           
       0.356220             0.00551557793            0.000591891644           
       0.356900             0.00769796469            0.000705895315           
       0.357579             0.00554836415            0.000591938554           
       0.358258             0.00577949134            0.000612502325           
       0.358937             0.00660258348            0.000642358179           
       0.359616             0.00546105451            0.000592353865           
       0.360295             0.00373401788            0.000490222019           
       0.360975             0.00522439336            0.000577379281           
       0.361654             0.00581294271            0.000612173513           
       0.362333             0.00491344644            0.000559958327           
       0.363012              0.0056836851            0.000609999846           
       0.363691             0.00576390337            0.000602170092           
       0.364370             0.00592419487            0.000618059121           
       0.365050             0.00503330588             0.00056664603           
       0.365729             0.00539632857            0.000592319145           
       0.366408             0.00691360904            0.000671923047           
       0.367087             0.00511205954            0.000568516488           
       0.367766             0.00560656002            0.000607784017           
       0.368445             0.00534092227            0.000582678752           
       0.369124             0.00412084108            0.000515836828           
       0.369804             0.00509119755            0.000572445193           
       0.370483             0.00585639287            0.000616644848           
       0.371162             0.00454291423            0.000546258126           
       0.371841             0.00589255336            0.000611284601           
       0.372520              0.0052206336            0.000586911299           
       0.373199             0.00501349632             0.00056827859           
       0.373879              0.0047529346            0.000559720453           
       0.374558             0.00536657344            0.000586077068           
       0.375237             0.00596432995            0.000618868483           
       0.375916             0.00481498906            0.000566704202           
       0.376595             0.00460653896            0.000543468062           
       0.377274             0.00529169267            0.000591807742           
       0.377954             0.00499401891            0.000565889888           
       0.378633             0.00388452261            0.000505393407           
       0.379312             0.00441321673            0.000538553337           
       0.379991             0.00403977773            0.000512597126           
       0.380670             0.00513242685            0.000587987115           
       0.381349             0.00393005885             0.00050713666           
       0.382029             0.00404515103            0.000521880867           
       0.382708             0.00372675381            0.000489982339           
       0.383387             0.00446432481            0.000548435057           
       0.384066             0.00489073972            0.000568763039           
       0.384745             0.00434988299            0.000538501324           
       0.385424             0.00404921868            0.000521322119           
       0.386104             0.00421012076            0.000525704514           
       0.386783             0.00434272872            0.000545468111           
       0.387462             0.00488962899            0.000564397932           
       0.388141             0.00525698778             0.00059456255           
       0.388820             0.00538128897            0.000597202258           
       0.389499             0.00396717046            0.000515652025           
       0.390178             0.00414292707            0.000529049077           
       0.390858             0.00400333606            0.000515851705           
       0.391537              0.0035463811            0.000490477138           
       0.392216             0.00398028071            0.000513103512           
       0.392895             0.00500106381            0.000577085237           
       0.393574              0.0041736023            0.000525879752           
       0.394253             0.00456105626            0.000552221135           
       0.394933             0.00500973951            0.000585359305           
       0.395612             0.00302963783            0.000441985807           
       0.396291             0.00411306075            0.000525470566           
       0.396970             0.00474735571            0.000559534356           
       0.397649             0.00432879812            0.000535944245           
       0.398328             0.00407317714            0.000517594239           
       0.399008             0.00419923134            0.000524400158           
       0.399687             0.00397206928            0.000512002406           
       0.400366             0.00426555659            0.000528551338           
       0.401045             0.00456550032            0.000545785017           
       0.401724             0.00405377361            0.000515147366           
       0.402403             0.00393192574            0.000511300469           
       0.403083              0.0048434891            0.000559299905           
       0.403762              0.0035256716            0.000479537775           
       0.404441             0.00343861693            0.000476596728           
       0.405120             0.00413262737            0.000520769786           
       0.405799             0.00337809839            0.000468789617           
       0.406478             0.00443335219            0.000537055119           
       0.407158             0.00413450976            0.000517665139           
       0.407837             0.00427830085            0.000531237835           
       0.408516             0.00367642766            0.000488170699           
       0.409195             0.00443300481             0.00054213404           
       0.409874             0.00348510705            0.000487378566           
       0.410553             0.00357580745            0.000498989436           
       0.411233             0.00338656608            0.000483089823           
       0.411912             0.00369465424            0.000511735331           
       0.412591             0.00347885774            0.000499852249           
       0.413270             0.00308084444            0.000468155404           
       0.413949             0.00352042488            0.000505906621           
       0.414628             0.00322241461            0.000483151219           
       0.415307             0.00337546362            0.000499992282           
       0.415987             0.00354940005            0.000508487645           
       0.416666             0.00341884354            0.000496045701           
       0.417345             0.00316114713            0.000484949969           
       0.418024             0.00271469831            0.000449413827           
       0.418703              0.0038214089            0.000532229347           
       0.419382             0.00348273787            0.000505608093           
       0.420062              0.0026094661            0.000438878745           
       0.420741              0.0028866828            0.000464057426           
       0.421420             0.00276288802            0.000455719678           
       0.422099             0.00372372787            0.000529073971           
       0.422778             0.00332596455            0.000502726444           
       0.423457             0.00404929514            0.000558100927           
       0.424137             0.00264763037            0.000443931381           
       0.424816             0.00262792264            0.000451519333           
       0.425495             0.00237494323            0.000428830471           
       0.426174             0.00354676492            0.000524236509           
       0.426853             0.00211896469            0.000402741942           
       0.427532             0.00254953835             0.00044550458           
       0.428212             0.00243736501            0.000438469238           
       0.428891             0.00266372032            0.000457334778           
       0.429570             0.00187322735            0.000383779705           
       0.430249             0.00301002787            0.000483962051           
       0.430928             0.00194613196            0.000397655251           
       0.431607             0.00271809491            0.000461876456           
       0.432287             0.00207088601            0.000406107291           
       0.432966             0.00161188634            0.000361437541           
       0.433645             0.00178560635            0.000380813383           
       0.434324             0.00280301037            0.000474248404           
       0.435003               0.001770445            0.000377551213           
       0.435682             0.00261591093            0.000462693623           
       0.436361             0.00139717312            0.000337695691           
       0.437041              0.0020323435            0.000406741978           
       0.437720             0.00198086047            0.000403494037           
       0.438399             0.00225050178            0.000432324892           
       0.439078             0.00187402423             0.00040595017           
       0.439757             0.00271263058            0.000485396596           
       0.440436             0.00293875077              0.0005166086           
       0.441116             0.00154879856            0.000381172761           
       0.441795             0.00184101314             0.00041607896           
       0.442474             0.00269869193            0.000505165035           
       0.443153             0.00292847013            0.000538508509           
       0.443832             0.00196447875            0.000441801576           
       0.444511             0.00292817757            0.000536958874           
       0.445191             0.00256617745            0.000514899739           
       0.445870             0.00174288595            0.000424351434           
       0.446549             0.00264277869            0.000528052719           
       0.447228             0.00133815983            0.000373628411           
       0.447907             0.00384400392            0.000640852437           
       0.448586             0.00203939399             0.00047801613           
       0.449266             0.00165294065             0.00042639037           
       0.449945             0.00338925755            0.000608073402           
       0.450624             0.00230625645            0.000509565589           
       0.451303             0.00106387063            0.000350577612           
       0.451982             0.00172296279              0.0004433887           
       0.452661             0.00205061637            0.000492725887           
       0.453341             0.00158949019            0.000435322777           
       0.454020             0.00219123175             0.00051190331           
       0.454699             0.00198565008            0.000491749189           
       0.455378             0.00211906083            0.000508272961           
       0.456057             0.00181617553             0.00047891677           
       0.456736             0.00155558872            0.000441847231           
       0.457416             0.00180714605            0.000476248589           
       0.458095             0.00316091715            0.000638974769           
       0.458774              0.0023323337            0.000556127568           
       0.459453             0.00155089911            0.000455780466           
       0.460132             0.00198679276            0.000504729175           
       0.460811             0.00119591566            0.000406200818           
       0.461490             0.00116555198            0.000396932583           
       0.462170             0.00093371504            0.000360813771           
       0.462849             0.00164570541            0.000482125025           
       0.463528             0.00262288477            0.000607246413           
       0.464207             0.00201023692            0.000541564289           
       0.464886             0.00211050565            0.000550585442           
       0.465565             0.00173587186            0.000504818268           
       0.466245             0.00219403079            0.000569302598           
       0.466924             0.00122643372            0.000435695824           
       0.467603             0.00218830841            0.000569645634           
       0.468282             0.00090454452            0.000374924437           
       0.468961            0.000938430681            0.000384391299           
       0.469640             0.00173491842             0.00052473626           
       0.470320             0.00158699228            0.000502214238           
       0.470999             0.00208870124            0.000581589848           
       0.471678             0.00133363161             0.00046919257           
       0.472357            0.000832584159            0.000371756007           
       0.473036             0.00101276886            0.000412602438           
       0.473715            0.000518729882             0.00029759899           
       0.474395              0.0021307985            0.000611496844           
       0.475074            0.000202547513            0.000188538104           
       0.475753            0.000707424777            0.000349310899           
       0.476432             0.00115711465            0.000463009712           
       0.477111             0.00130783596            0.000486289252           
       0.477790            0.000216924174            0.000199106875           
       0.478470             0.00023829626            0.000211444553           
       0.479149            6.04626962e-05            0.000107609494           
       0.479828            0.000249463158            0.000218065256           
       0.480507            0.000255701744            0.000222555056           
       0.481186            0.000877243123            0.000421513906           
       0.481865            0.000659368494            0.000360914604           
       0.482545            0.000684247984            0.000371979276           
       0.483224            8.51099484e-05            0.000132086854           
       0.483903            9.47154624e-05             0.00014153617           
       0.484582             0.00033202231            0.000269306141           
       0.485261            0.000703957661            0.000382200241           
       0.485940            0.000124391699            0.000167143282           
       0.486619           -0.000320975974                         0           
       0.487299            0.000116443723            0.000162486113           
       0.487978            0.000107011539            0.000154179296           
       0.488657            0.000632672534            0.000390356714           
       0.489336            0.000363040266            0.000290514358           
       0.490015             0.00130899345            0.000555979291           
       0.490694           -0.000321092581                         0           
       0.491374           -0.000321111936                         0           
       0.492053           -0.000321131492                         0           
       0.492732           -0.000321150912                         0           
       0.493411           -0.000321170584                         0           
       0.494090           -0.000321190385                         0           
       0.494769           -0.000321209804                         0           
       0.495449           -0.000321229495                         0           
       0.496128           -0.000321249248                         0           
       0.496807           -0.000321268783                         0           
       0.497486           -0.000321288499                         0           
       0.498165           -0.000321308499                         0           
       0.498844           -0.000321328197                         0           
       0.499524           -0.000321347988                         0           
       0.500203           -3.37578152e-05                         0           
       0.500882           -1.79191738e-05                         0           
       0.501561            0.000279920865            0.000290904837           
       0.502240           -0.000321427608                         0           
       0.502919            -7.4509738e-07                         0           
       0.503599           -0.000321467581                         0           
       0.504278           -0.000321487888                         0           
       0.504957           -0.000321507957                         0           
       0.505636           -0.000321527898                         0           
       0.506315           -0.000321548166                         0           
       0.506994           -0.000321568073                         0           
       0.507673            2.27908895e-05            8.91800591e-05           
       0.508353           -0.000321608223                         0           
       0.509032           -0.000321628422                         0           
       0.509711             1.9084546e-05            8.11457624e-05           
       0.510390           -0.000321669151                         0           
       0.511069           -0.000321689607                         0           
       0.511748           -0.000321709981                         0           
       0.512428             -0.0003217305                         0           
       0.513107            6.45123194e-05            0.000157062532           
       0.513786           -0.000321770969                         0           
       0.514465           -0.000321791581                         0           
       0.515144           -0.000321812179                         0           
       0.515823           -0.000321832589                         0           
       0.516503           -0.000321853191                         0           
       0.517182            -0.00032187379                         0           
       0.517861            0.000534810497            0.000478905982           
       0.518540           -0.000321915006                         0           
       0.519219           -0.000321935552                         0           
       0.519898           -0.000321956306                         0           
       0.520578           -0.000321977184                         0           
       0.521257           -0.000321997793                         0           
       0.521936            0.000140761873            0.000254981948           
       0.522615           -0.000322039357                         0           
       0.523294            -0.00032206034                         0           
       0.523973           -0.000322081034                         0           
       0.524653           -0.000322101578                         0           
       0.525332           -0.000322122421                         0           
       0.526011           -0.000322143639                         0           
       0.526690           -0.000322164817                         0           
       0.527369           -0.000322185819                         0           
       0.528048           -0.000322206972                         0           
       0.528728           -0.000322228099                         0           
       0.529407           -0.000322249128                         0           
       0.530086            -0.00032227005                         0           
       0.530765           -0.000322291001                         0           
       0.531444            0.000205299399            0.000327471113           
       0.532123            0.000253713031            0.000381822402           
       0.532802           -0.000322355104                         0           
       0.533482           -0.000322376407                         0           
       0.534161           -0.000322397744                         0           
       0.534840           -0.000322418897                         0           
       0.535519           -0.000322440443                         0           
       0.536198           -0.000322461766                         0           
       0.536877           -0.000322482795                         0           
       0.537557           -0.000322504186                         0           
       0.538236           -0.000322525769                         0           
       0.538915           -0.000322547344                         0           
       0.539594           -0.000322568891                         0           
       0.540273           -0.000322590774                         0           
       0.540952           -0.000322612413                         0           
       0.541632           -0.000322633657                         0           
       0.542311           -0.000322655096                         0           
       0.542990            0.000407249312            0.000542753445           
       0.543669           -0.000322698635                         0           
       0.544348           -0.000322720469                         0           
       0.545027           -0.000322742256                         0           
       0.545707           -0.000322764109                         0           
       0.546386           -0.000322786023                         0           
       0.547065            0.000420993803            0.000560401204           
       0.547744           -0.000322829424                         0           
       0.548423           -0.000322851413                         0           
       0.549102           -0.000322873425                         0           
       0.549782           -0.000322895325                         0           
       0.550461           -0.000322917486                         0           
       0.551140            -0.00032293978                         0           
       0.551819           -0.000322961811                         0           
       0.552498            -0.00032298403                         0           
       0.553177           -0.000323005867                         0           
       0.553856           -0.000323027783                         0           
       0.554536           -0.000323049771                         0           
       0.555215            0.000637346278            0.000779080582           
       0.555894           -0.000323094365                         0           
       0.556573           -0.000323116767                         0           
       0.557252           -0.000323139152                         0           
       0.557931           -0.000323161434                         0           
       0.558611           -0.000323184238                         0           
       0.559290           -0.000323206462                         0           
       0.559969           -0.000323228139                         0           
       0.560648             0.00057697159            0.000727288246           
       0.561327           -0.000323273139                         0           
       0.562006           -0.000323295781                         0           
       0.562686           -0.000323318436                         0           
       0.563365           -0.000323341175                         0           
       0.564044           -0.000323363798                         0           
       0.564723           -0.000323386372                         0           
       0.565402           -0.000323408525                         0           
       0.566081           -0.000323430826                         0           
       0.566761           -0.000323453366                         0           
       0.567440           -0.000323476365                         0           
       0.568119           -0.000323499182                         0           
       0.568798           -0.000323522319                         0           
       0.569477           -0.000323545308                         0           
       0.570156           -0.000323568409                         0           
       0.570836           -0.000323591423                         0           
       0.571515            -0.00032361395                         0           
       0.572194            -0.00032363713                         0           
       0.572873           -0.000323659779                         0           
       0.573552           -0.000323682296                         0           
       0.574231           -0.000323705269                         0           
       0.574911           -0.000323728821                         0           
       0.575590            -0.00032375192                         0           
       0.576269           -0.000323774949                         0           
       0.576948            -0.00032379842                         0           
       0.577627           -0.000323821174                         0           
       0.578306            -0.00032384425                         0           
       0.578985           -0.000323867524                         0           
       0.579665           -0.000323890663                         0           
       0.580344           -0.000323914152                         0           
       0.581023           -0.000323937616                         0           
       0.581702           -0.000323960863                         0           
       0.582381           -0.000323983899                         0           
       0.583060           -0.000324007622                         0           
       0.583740           -0.000324030972                         0           
       0.584419             -0.0003240544                         0           
       0.585098             -0.0003240778                         0           
       0.585777           -0.000324101382                         0           
       0.586456           -0.000324125348                         0           
       0.587135           -0.000324148677                         0           
       0.587815           -0.000324171754                         0           
       0.588494            -0.00032419555                         0           
       0.589173           -0.000324219892                         0           
       0.589852           -0.000324242941                         0           
       0.590531           -0.000324266859                         0           
       0.591210           -0.000324290224                         0           
       0.591890           -0.000324314042                         0           
       0.592569           -0.000324337062                         0           
       0.593248           -0.000324362231                         0           
       0.593927            -0.00032438616                         0           
       0.594606           -0.000324410581                         0           
       0.595285           -0.000324433547                         0           
       0.595965           -0.000324454978                         0           
       0.596644           -0.000324477032                         0           
