################################################################################
# EDF_DataBlockID                     0.Image.Psd
# EDF_BinarySize                      2105344
# EDF_HeaderSize                      2560
# ByteOrder                           LowByteFirst
# DataType                            FloatValue
# Dim_1                               512
# Dim_2                               1028
# Image                               0
# HeaderID                            EH:000000:000000:000000
# Size                                2105344
# Center_1                            304.9000
# Center_2                            588.7000
# Comment                             Xenocs_Cell_Window - 20251028_20perc_iodine_1.23mg
# DDummy                              0.6
# Date                                2025-11-02T04:49:52
# Delta                               21.910000
# Dummy                               -1.5
# ExposureTime                        360
# Gamma                               15.360000
# Intensity1                          8.73488e-10
# PSize_1                             7.5e-05
# PSize_2                             7.5e-05
# Pressure                            0.0326576
# SampleDistance                      0.115750
# SampleEnvKind                       large
# SampleEnvPN                         ElectroChemical cell
# SampleEnvSN                         1141
# Thickness                           0
# Wavelength                          1.541891e-10
# Wavelength                          1.54189e-10
# aux                                 0
# aux_dial                            0.002375
# beamx                               588.434
# beamx_dial                          588.434
# beamz                               657.808
# beamz_dial                          657.808
# det0x                               0
# det0x_dial                          6.36945
# det0xvd                             0
# det0xvd_dial                        0
# det0y                               450.002
# det0y_dial                          481.635
# det0z                               0
# det0z_dial                          1.23302
# det0zvd                             0
# det0zvd_dial                        0
# mag                                 1.818
# mag_dial                            1.818
# om                                  0.2499
# om_dial                             -0.610199
# phi                                 -0.0120535
# phi_dial                            0
# ry                                  0.599993
# ry_dial                             0.599993
# s1bot                               0.8
# s1bot_dial                          -1.66094
# s1hl                                0.8
# s1hl_dial                           -0.608437
# s1hr                                0.8
# s1hr_dial                           0.970938
# s1top                               0.8
# s1top_dial                          -0.461562
# s2bot                               0.45
# s2bot_dial                          1.36109
# s2hl                                0.45
# s2hl_dial                           -0.83375
# s2hr                                0.45
# s2hr_dial                           -0.118594
# s2top                               0.45
# s2top_dial                          1.44734
# w2theta                             32
# w2theta_dial                        32
# waxsch                              19.2605
# waxsch_dial                         -32.7355
# waxsh                               137.085
# waxsh_dial                          -43.5338
# waxsth                              26.0607
# waxsth_dial                         -19.4086
# waxsz                               67.0407
# waxsz_dial                          -23.7954
# wind                                65.9854
# wind_dial                           66.0041
# wpsi                                124
# wpsi_dial                           124
# wstod                               115
# wstod_dial                          115
# x                                   0
# x_dial                              1.00969
# z                                   0
# z_dial                              13.3172
# CountCutoff                         6807993
# DetectorModel                       Dectris EIGER2 Si 500K, S/N E-01-0554
# ThresholdSetting                    4023.88989258
# Saturation                          0
# FlatField                           Corrected
# BackgroundReductionExtra            0.02
# BackgroundCorrectionConstant        0.0026712
# Detector                            0
# Monitor                             0
# Pil_Roi0                            0
# SumForIntensity1                    3.14456e+08
# TransmittedFlux                     873488
# det                                 0
# mon                                 0
# pilai0                              3.14456e+08
# pilai1                              790385
# pilct0                              5.43576e+08
# pilct1                              790385
# pilroi0                             0
# pilroi1                             0
# sec                                 1
# title                               20251028_20perc_iodine_1.23mg_1_01004.edf
# usaxs0                              0
# Operation                           Azimuthal average I(q)
# Error_model                         ErrorModel.poisson
# Geometrical_correction              True
# Transmission_correction             True
# Thickness_correction                False
# Binning mode                        Uniform
# Binning factor                      1.0
# Psi                                 0.0
# Omega                               0.2499
# MaskInvalidPixels                   True
# DetectorEdge                        3
# MaskFiles                           ['WAXS_corrected.edf']
################################################################################
    q(A⁻¹)                Intensity(a.u.)            Sigma_I(a.u.)            
       0.693100              0.0121564719             0.00727259448           
       0.695741             0.00815164312               0.004859772           
       0.698381           -2.32246277e-05                         0           
       0.701021              0.0172824233              0.0122535147           
       0.703662              0.0138972831             0.00634253354           
       0.706302              0.0117815652             0.00452122865           
       0.708942             0.00555851105              0.0040082543           
       0.711583              0.0064143032             0.00372852077           
       0.714223             0.00859337834             0.00498245873           
       0.716864              0.0110700194             0.00370004256           
       0.719504             0.00862264076             0.00352387528           
       0.722144             0.00615774409             0.00275776985           
       0.724785             0.00695112455             0.00233725523           
       0.727425             0.00575371775             0.00287668911           
       0.730065             0.00644584795             0.00215377285           
       0.732706             0.00651262681             0.00181796999           
       0.735346              0.0120437462             0.00322265283           
       0.737987              0.0107315506             0.00214961674           
       0.740627             0.00381289305             0.00191180499           
       0.743267             0.00688425684             0.00172062794           
       0.745908             0.00916700073             0.00215417408           
       0.748548             0.00427998968             0.00135675977           
       0.751189             0.00941628214             0.00271167637           
       0.753829             0.00857383344              0.0023785416           
       0.756469              0.0110824138             0.00218058871           
       0.759110             0.00473348144             0.00150181851           
       0.761750             0.00479834156               0.001337006           
       0.764390              0.0109857409             0.00211742442           
       0.767031             0.00579875118             0.00133216997           
       0.769671             0.00620570915             0.00171910638           
       0.772312             0.00603224348             0.00129032118           
       0.774952             0.00753167421             0.00194699069           
       0.777592             0.00718380254             0.00138500868           
       0.780233             0.00466216818             0.00134614871           
       0.782873             0.00705258693              0.0015834922           
       0.785513             0.00648111703             0.00162282022           
       0.788154             0.00652489608             0.00136212244           
       0.790794             0.00650040194             0.00162539339           
       0.793435             0.00656970694             0.00146795114           
       0.796075             0.00635597625             0.00139089997           
       0.798715             0.00678430923             0.00169812762           
       0.801356             0.00780019139             0.00156713371           
       0.803996             0.00785786067             0.00160360832           
       0.806637             0.00739324862             0.00123787279           
       0.809277             0.00704111315             0.00130755617           
       0.811917             0.00700095432               0.001218866           
       0.814558             0.00843268157             0.00139030489           
       0.817198             0.00851235252              0.0013270798           
       0.819838             0.00653129043             0.00117647838           
       0.822479             0.00586515104             0.00130916128           
       0.825119             0.00697307341             0.00121495276           
       0.827760              0.0067276317             0.00120884666           
       0.830400             0.00706511921             0.00116593694           
       0.833040             0.00758406559             0.00126561034           
       0.835681             0.00680277199             0.00136265847           
       0.838321             0.00673158625             0.00113772287           
       0.840961             0.00636855399             0.00120571368           
       0.843602             0.00648593705             0.00111583201           
       0.846242             0.00420724017             0.00089855843           
       0.848883             0.00783486139             0.00125484506           
       0.851523             0.00783723951             0.00123944562           
       0.854163             0.00973803864             0.00146926738           
       0.856804             0.00734498069             0.00114732473           
       0.859444             0.00893606492             0.00123995129           
       0.862085             0.00785776625             0.00121186169           
       0.864725             0.00942580023              0.0013583343           
       0.867365             0.00773718527              0.0011411821           
       0.870006             0.00761586481             0.00107889939           
       0.872646             0.00705611877             0.00108900539           
       0.875286             0.00637680518            0.000995982415           
       0.877927             0.00751768833             0.00104351473           
       0.880567             0.00717086576             0.00105587011           
       0.883208             0.00547429695            0.000913856566           
       0.885848             0.00737228211             0.00110112867           
       0.888488             0.00634072922            0.000957813513           
       0.891129             0.00684613758             0.00102191871           
       0.893769              0.0061524532             0.00092713172           
       0.896410              0.0090763429             0.00104990956           
       0.899050             0.00675748939            0.000996264063           
       0.901690             0.00504451149            0.000937637744           
       0.904331             0.00521372414            0.000845094469           
       0.906971              0.0079193632             0.00110802805           
       0.909611             0.00873532603             0.00105934958           
       0.912252               0.008069747             0.00105168545           
       0.914892             0.00654344703              0.0010348911           
       0.917533             0.00863144569             0.00112440453           
       0.920173             0.00843908725             0.00103153629           
       0.922813             0.00775228817             0.00103749868           
       0.925454               0.006526249            0.000857185559           
       0.928094             0.00792504455             0.00100843072           
       0.930734             0.00755115497             0.00105976739           
       0.933375             0.00653193123             0.00097596479           
       0.936015             0.00840397807              0.0010054117           
       0.938656             0.00944513008             0.00114342985           
       0.941296              0.0081971655            0.000965378403           
       0.943936              0.0085339605            0.000965955878           
       0.946577             0.00840780366            0.000952450758           
       0.949217             0.00719917513            0.000810470456           
       0.951858              0.0085949868            0.000927005509           
       0.954498             0.00737189682            0.000993719257           
       0.957138             0.00696463764            0.000915039464           
       0.959779             0.00794554678            0.000963471411           
       0.962419              0.0077165629            0.000943171034           
       0.965059             0.00842015106             0.00103620613           
       0.967700             0.00841135448             0.00106072619           
       0.970340             0.00848260636            0.000942604878           
       0.972981             0.00683923777            0.000771139578           
       0.975621             0.00827333494            0.000902278762           
       0.978261             0.00913031698            0.000900631949           
       0.980902             0.00746421072            0.000974296099           
       0.983542             0.00818171337            0.000903320104           
       0.986182             0.00730913945            0.000838248876           
       0.988823             0.00824192899            0.000864319468           
       0.991463             0.00742081857            0.000874999326           
       0.994104             0.00775218891            0.000872425024           
       0.996744             0.00664455449            0.000823845249           
       0.999384             0.00702514387            0.000757600605           
       1.002025             0.00620511613            0.000794700091           
       1.004665             0.00748543839            0.000797671962           
       1.007306             0.00749605416            0.000794151567           
       1.009946             0.00769752259            0.000820735321           
       1.012586             0.00655610113             0.00073770573           
       1.015227             0.00776612056            0.000862567831           
       1.017867             0.00760552284            0.000820371131           
       1.020507             0.00889825235            0.000859525471           
       1.023148             0.00820541999            0.000890613449           
       1.025788             0.00803414983             0.00080805476           
       1.028429             0.00698246365             0.00078921873           
       1.031069              0.0090199864            0.000844118362           
       1.033709             0.00844521711            0.000868240593           
       1.036350             0.00769025162            0.000744127577           
       1.038990             0.00828483968            0.000786552106           
       1.041630              0.0087866557            0.000844861977           
       1.044271             0.00838999337            0.000776420147           
       1.046911             0.00851175208             0.00082259744           
       1.049552              0.0079932915            0.000837508461           
       1.052192             0.00783291124            0.000757040392           
       1.054832             0.00766553066            0.000755720866           
       1.057473              0.0102293007            0.000860591766           
       1.060113             0.00813098006            0.000748292482           
       1.062754             0.00802858113            0.000759167445           
       1.065394             0.00850580759            0.000826146637           
       1.068034             0.00881960271            0.000765420025           
       1.070675             0.00802911145            0.000761806221           
       1.073315             0.00965902143            0.000847536057           
       1.075955             0.00886608461            0.000766577113           
       1.078596             0.00823749823             0.00078530757           
       1.081236             0.00822893677            0.000751592369           
       1.083877             0.00876148524            0.000768574358           
       1.086517             0.00757738341            0.000766425567           
       1.089157              0.0109346008            0.000955315484           
       1.091798             0.00730508086            0.000684568696           
       1.094438             0.00859165516            0.000740012338           
       1.097078             0.00897321957            0.000725338639           
       1.099719             0.00953592316            0.000808790335           
       1.102359             0.00764268892            0.000678095717           
       1.105000             0.00902619921            0.000824020216           
       1.107640             0.00756436335            0.000721279115           
       1.110280             0.00886091082            0.000712283561           
       1.112921              0.0102445566             0.00082271995           
       1.115561             0.00855284399            0.000714454516           
       1.118202             0.00890677553            0.000729774349           
       1.120842             0.00858555123            0.000753039615           
       1.123482             0.00975362007            0.000799126736           
       1.126123             0.00776004674            0.000683690253           
       1.128763             0.00909019062            0.000745042787           
       1.131403             0.00906283735            0.000716831588           
       1.134044             0.00912548276            0.000740166406           
       1.136684             0.00907696744            0.000787045201           
       1.139325              0.0081577598            0.000687334497           
       1.141965             0.00731504661            0.000655168269           
       1.144605              0.0100237101            0.000731274788           
       1.147246             0.00915958693            0.000715410709           
       1.149886              0.0096728707            0.000732572682           
       1.152527             0.00837758925            0.000691675816           
       1.155167             0.00935739962            0.000695297575           
       1.157807             0.00729378495            0.000658167695           
       1.160448             0.00890236355             0.00071006218           
       1.163088             0.00699532187            0.000600383778           
       1.165728             0.00949829671            0.000718289507           
       1.168369             0.00873193936            0.000695065701           
       1.171009             0.00874412308            0.000675012841           
       1.173650              0.0089969443            0.000702667222           
       1.176290             0.00806782592            0.000650241535           
       1.178930             0.00915895088            0.000679024953           
       1.181571             0.00978289546             0.00071568928           
       1.184211             0.00847639891            0.000668549549           
       1.186851             0.00993287182            0.000707562057           
       1.189492             0.00974873392            0.000696257092           
       1.192132               0.009813686             0.00069073469           
       1.194773             0.00906332505            0.000666702953           
       1.197413             0.00942028433            0.000651253834           
       1.200053             0.00950827818             0.00067091288           
       1.202694             0.00877386209             0.00061286522           
       1.205334             0.00878597243             0.00066093255           
       1.207975             0.00885098831            0.000633208697           
       1.210615             0.00870758734            0.000692854934           
       1.213255             0.00889278256            0.000626998725           
       1.215896             0.00906275148            0.000644430957           
       1.218536               0.010193135            0.000657156587           
       1.221176              0.0102720401            0.000717224042           
       1.223817              0.0108815137            0.000692956243           
       1.226457             0.00922063546              0.0006507348           
       1.229098                 0.0107105            0.000701305623           
       1.231738              0.0109033801             0.00071107469           
       1.234378              0.0102932263            0.000649197235           
       1.237019              0.0103022228            0.000669283896           
       1.239659             0.00922369671            0.000627765865           
       1.242299              0.0100932295            0.000648346459           
       1.244940              0.0110269057            0.000659077531           
       1.247580             0.00961532464             0.00063426991           
       1.250221              0.0104824438            0.000658165855           
       1.252861              0.0105609208            0.000628918126           
       1.255501             0.00949165996            0.000647392533           
       1.258142               0.010671214            0.000645034923           
       1.260782              0.0104267503             0.00065139965           
       1.263423              0.0105612479            0.000629945421           
       1.266063             0.00942833765            0.000610062865           
       1.268703              0.0103463198            0.000633769215           
       1.271344              0.0105915824            0.000662969053           
       1.273984              0.0099830349            0.000621630842           
       1.276624              0.0110554575            0.000641878928           
       1.279265              0.0089628275            0.000587543719           
       1.281905              0.0116397221            0.000672530794           
       1.284546              0.0103741919            0.000613706345           
       1.287186              0.0102691079             0.00059905378           
       1.289826              0.0100549702            0.000624736271           
       1.292467              0.0102029332            0.000615454903           
       1.295107              0.0111928681            0.000638217534           
       1.297747              0.0126331914             0.00064882686           
       1.300388              0.0104808254            0.000644238716           
       1.303028              0.0100932086            0.000603548865           
       1.305669              0.0113452923            0.000655126872           
       1.308309             0.00999949802            0.000608987936           
       1.310949              0.0112564775            0.000645482055           
       1.313590               0.010515967            0.000604387208           
       1.316230              0.0106278186            0.000648386041           
       1.318871              0.0111419106            0.000650191701           
       1.321511              0.0114824204            0.000647817987           
       1.324151              0.0101331715            0.000590526013           
       1.326792              0.0109050994            0.000616393241           
       1.329432              0.0119294881            0.000640145007           
       1.332072              0.0106545692            0.000595956245           
       1.334713              0.0108483253            0.000620653543           
       1.337353              0.0098695842            0.000567734068           
       1.339994              0.0112602786            0.000636372367           
       1.342634              0.0121596281            0.000634142787           
       1.345274              0.0112910368            0.000632404188           
       1.347915              0.0104797128            0.000592435158           
       1.350555              0.0121030455            0.000647819164           
       1.353195              0.0119560095            0.000647034443           
       1.355836              0.0116951564            0.000629958486           
       1.358476              0.0120376068             0.00062067767           
       1.361117              0.0114524669            0.000606235381           
       1.363757              0.0108452513            0.000607958762           
       1.366397              0.0111395803            0.000597507685           
       1.369038              0.0100413143            0.000572937622           
       1.371678              0.0108510993            0.000590341331           
       1.374319              0.0100010936            0.000561867903           
       1.376959              0.0116024664             0.00059909546           
       1.379599              0.0114297935            0.000637253378           
       1.382240              0.0122323457            0.000619592742           
       1.384880              0.0105917715            0.000610695728           
       1.387520              0.0120740318            0.000619251814           
       1.390161              0.0110715502            0.000563195423           
       1.392801              0.0114288131            0.000596187388           
       1.395442              0.0117311849            0.000612272123           
       1.398082              0.0116312365            0.000570918432           
       1.400722              0.0109724752            0.000580841897           
       1.403363              0.0107516137            0.000605221983           
       1.406003              0.0106799316            0.000564515181           
       1.408644              0.0102401851            0.000579063623           
       1.411284              0.0120907595            0.000595810922           
       1.413924             0.00995328057            0.000538581903           
       1.416565              0.0115825951            0.000578711685           
       1.419205              0.0119795052            0.000613945049           
       1.421845              0.0115250869            0.000601834501           
       1.424486              0.0118153227            0.000585740192           
       1.427126              0.0111782781            0.000591840107           
       1.429767              0.0118297029            0.000572845327           
       1.432407              0.0113246812             0.00058655991           
       1.435047              0.0104121011            0.000528215235           
       1.437688              0.0111320903            0.000554339076           
       1.440328              0.0112132672            0.000567824326           
       1.442968              0.0110705897            0.000576841494           
       1.445609              0.0106084984             0.00054676138           
       1.448249               0.011545592            0.000584841417           
       1.450890              0.0107565369            0.000560818509           
       1.453530              0.0114685284            0.000605836082           
       1.456170              0.0101443699            0.000552993294           
       1.458811              0.0111152796            0.000553510571           
       1.461451              0.0101012721            0.000529043678           
       1.464092              0.0118736775            0.000577332778           
       1.466732              0.0113260049            0.000559015479           
       1.469372              0.0113831698            0.000547308791           
       1.472013              0.0107361141            0.000573261234           
       1.474653              0.0113436229            0.000580167168           
       1.477293              0.0104778983            0.000569341312           
       1.479934              0.0115738408            0.000570975963           
       1.482574                0.01055055            0.000527348189           
       1.485215              0.0110194838            0.000548978029           
       1.487855              0.0110621725             0.00055729629           
       1.490495              0.0119427368            0.000576919807           
       1.493136              0.0105122175            0.000533846858           
       1.495776              0.0104770975            0.000530527636           
       1.498416              0.0103113413             0.00054353372           
       1.501057              0.0110104808            0.000549280024           
       1.503697              0.0101169686            0.000514758458           
       1.506338              0.0105773849            0.000535959392           
       1.508978              0.0116509975            0.000556970463           
       1.511618               0.011293321            0.000583994913           
       1.514259              0.0101115428            0.000533504574           
       1.516899              0.0108505239            0.000538103619           
       1.519540              0.0110436106            0.000551624512           
       1.522180              0.0102306402            0.000535596604           
       1.524820              0.0104184687            0.000537458453           
       1.527461              0.0102126823            0.000534755732           
       1.530101               0.010351802            0.000533001265           
       1.532741              0.0107973442            0.000541191565           
       1.535382                 0.0113265            0.000563217756           
       1.538022              0.0114697685            0.000533926047           
       1.540663              0.0112405868            0.000568504131           
       1.543303              0.0110715722             0.00052388181           
       1.545943              0.0103046753            0.000534941626           
       1.548584              0.0107658268             0.00055659544           
       1.551224              0.0107060862            0.000513195246           
       1.553864              0.0100746768            0.000526052544           
       1.556505              0.0106322401            0.000522053146           
       1.559145               0.010854424            0.000533941238           
       1.561786              0.0100995715            0.000515437359           
       1.564426              0.0105188372            0.000509665683           
       1.567066              0.0103349519            0.000529343355           
       1.569707               0.010659346            0.000527929951           
       1.572347              0.0109987435             0.00055401932           
       1.574988             0.00915450187             0.00048109538           
       1.577628              0.0114047032            0.000559934785           
       1.580268              0.0102566046            0.000514485694           
       1.582909              0.0102556372            0.000545308656           
       1.585549             0.00983759553            0.000518573695           
       1.588189             0.00975226179            0.000505050805           
       1.590830             0.00959352269            0.000500294832           
       1.593470              0.0100029899            0.000531087929           
       1.596111             0.00994592711            0.000517025758           
       1.598751             0.00889976389            0.000473900909           
       1.601391             0.00917343087            0.000491747045           
       1.604032             0.00955882731            0.000512464247           
       1.606672              0.0088579569            0.000479306465           
       1.609312              0.0099395536            0.000530007226           
       1.611953             0.00963284374            0.000510580359           
       1.614593             0.00963507868            0.000500896993           
       1.617234              0.0092162376            0.000507709489           
       1.619874              0.0100151908            0.000527168062           
       1.622514             0.00936320372            0.000502766714           
       1.625155                0.01012472            0.000525900805           
       1.627795             0.00953026363            0.000497727066           
       1.630436              0.0100026698            0.000507251201           
       1.633076             0.00886708369            0.000483854114           
       1.635716             0.00957774623            0.000495045737           
       1.638357              0.0097267821            0.000500197461           
       1.640997              0.0086997938            0.000487384495           
       1.643637             0.00924834709            0.000489004027           
       1.646278              0.0101360623            0.000528020277           
       1.648918             0.00987848572            0.000522690093           
       1.651559             0.00909651656            0.000505468843           
       1.654199             0.00917555351            0.000493743971           
       1.656839             0.00865589504            0.000479725971           
       1.659480             0.00898906157            0.000507229186           
       1.662120             0.00891611734            0.000475784064           
       1.664761             0.00830707108            0.000477038698           
       1.667401             0.00976913254            0.000494445308           
       1.670041             0.00881708444            0.000476897221           
       1.672682             0.00972110228            0.000498690787           
       1.675322             0.00893863243            0.000475124458           
       1.677962             0.00919080235            0.000476465122           
       1.680603              0.0087820536            0.000467182777           
       1.683243             0.00865457102            0.000483867423           
       1.685884             0.00934999669            0.000506646053           
       1.688524             0.00913820639            0.000491193087           
       1.691164             0.00916512214            0.000492027589           
       1.693805             0.00823903604            0.000471632158           
       1.696445               0.008627042            0.000485409314           
       1.699085             0.00875965105            0.000472736095           
       1.701726             0.00751960052            0.000421935213           
       1.704366             0.00905471096            0.000487763076           
       1.707007             0.00969589612             0.00049348639           
       1.709647             0.00950226691             0.00049405108           
       1.712287             0.00820222158            0.000463007299           
       1.714928             0.00839347234            0.000472150463           
       1.717568             0.00893303377            0.000458840567           
       1.720209             0.00825611273            0.000462035559           
       1.722849             0.00867981308            0.000471307411           
       1.725489             0.00851544213            0.000467215458           
       1.728130             0.00840511291            0.000493292076           
       1.730770             0.00789732855            0.000454122681           
       1.733410             0.00907927431            0.000479267243           
       1.736051              0.0076531742            0.000443083311           
       1.738691             0.00913354749            0.000474231253           
       1.741332             0.00861565736            0.000474058096           
       1.743972             0.00811985812            0.000475251027           
       1.746612             0.00748352016            0.000438115236           
       1.749253             0.00970419169            0.000508754309           
       1.751893             0.00827978481            0.000466485754           
       1.754533               0.008870164            0.000482379581           
       1.757174             0.00823430852            0.000460416152           
       1.759814             0.00952046673             0.00048756513           
       1.762455             0.00808586301            0.000457582011           
       1.765095             0.00835307101            0.000444906769           
       1.767735             0.00828349467            0.000456718069           
       1.770376             0.00798788037            0.000449676905           
       1.773016             0.00851056436            0.000461046978           
       1.775657             0.00910276122            0.000469957167           
       1.778297              0.0086298328            0.000453645958           
       1.780937             0.00900480188            0.000489115047           
       1.783578             0.00861236237            0.000466377745           
       1.786218             0.00880890024            0.000492238413           
       1.788858             0.00870829824             0.00046483047           
       1.791499              0.0077888192            0.000434668959           
       1.794139             0.00923572858            0.000469483694           
       1.796780              0.0081266623            0.000438270545           
       1.799420             0.00894407574            0.000457237889           
       1.802060              0.0087834575            0.000456773672           
       1.804701             0.00860188028             0.00043378631           
       1.807341             0.00854702933            0.000454359455           
       1.809981             0.00894402315            0.000466341405           
       1.812622             0.00914627006            0.000463094458           
       1.815262             0.00941806691            0.000479907189           
       1.817903             0.00909390974            0.000464588713           
       1.820543             0.00902551897            0.000470050513           
       1.823183             0.00904310925            0.000470249681           
       1.825824             0.00931875126            0.000456052986           
       1.828464              0.0079010165            0.000437796214           
       1.831105              0.0079941643            0.000428194046           
       1.833745             0.00860554607            0.000453754414           
       1.836385             0.00927610856            0.000484546083           
       1.839026             0.00817572655            0.000453462158           
       1.841666             0.00900062187            0.000474101594           
       1.844306             0.00844942851            0.000446821663           
       1.846947             0.00812345612              0.0004419583           
       1.849587             0.00758889699            0.000471698646           
       1.852228             0.00828904766             0.00044577436           
       1.854868             0.00875449946            0.000483935106           
       1.857508             0.00815253606            0.000462420726           
       1.860149             0.00854308689            0.000481967801           
       1.862789             0.00747672602            0.000435208859           
       1.865429             0.00800212181            0.000469982211           
       1.868070             0.00800636684            0.000463841155           
       1.870710             0.00867702869            0.000471745052           
       1.873351             0.00792266047            0.000456345019           
       1.875991             0.00787158037            0.000462295133           
       1.878631             0.00800479878            0.000457262074           
       1.881272             0.00771885272            0.000446012122           
       1.883912             0.00828233398            0.000480812806           
       1.886553             0.00871581892            0.000487720479           
       1.889193             0.00891173904            0.000492329008           
       1.891833             0.00732405893            0.000463524739           
       1.894474             0.00760094865            0.000468092916           
       1.897114             0.00695128066            0.000433173574           
       1.899754             0.00853984007            0.000482133983           
       1.902395             0.00883752029            0.000480875894           
       1.905035              0.0080355779            0.000485669736           
       1.907676             0.00774071405            0.000449268233           
       1.910316             0.00796671303            0.000467881222           
       1.912956             0.00790520783            0.000455818004           
       1.915597             0.00830879255            0.000469920339           
       1.918237             0.00901604136             0.00050554666           
       1.920878             0.00817178349             0.00047932516           
       1.923518             0.00765196134            0.000464026105           
       1.926158             0.00800750471            0.000468524313           
       1.928799             0.00776074814            0.000455909798           
       1.931439             0.00836776473            0.000485820834           
       1.934079             0.00827474033            0.000503633263           
       1.936720             0.00833665322            0.000468373298           
       1.939360             0.00750635641            0.000474153006           
       1.942001             0.00836306617            0.000458715517           
       1.944641              0.0080561682            0.000459088476           
       1.947281             0.00805791828            0.000454906231           
       1.949922              0.0080481507            0.000469593025           
       1.952562             0.00883810806            0.000507525036           
       1.955202             0.00778631703            0.000475788725           
       1.957843             0.00795506322            0.000468445214           
       1.960483              0.0080480333            0.000492612413           
       1.963124              0.0074608029            0.000464569671           
       1.965764             0.00779034254             0.00044767304           
       1.968404             0.00690828787            0.000417585093           
       1.971045             0.00881575739            0.000480949212           
       1.973685             0.00725117963            0.000457528672           
       1.976326             0.00679320744            0.000436758333           
       1.978966             0.00805838979            0.000479868865           
       1.981606             0.00783273252            0.000482969182           
       1.984247             0.00789904683            0.000481820654           
       1.986887             0.00780579748             0.00047323075           
       1.989527             0.00746390476            0.000457767452           
       1.992168             0.00790844272            0.000488912266           
       1.994808             0.00844879117            0.000503172728           
       1.997449             0.00786792538            0.000475595971           
       2.000089             0.00701303003            0.000447234855           
       2.002729             0.00819500292            0.000483746287           
       2.005370              0.0077344631            0.000464900462           
       2.008010             0.00776667205            0.000486199471           
       2.010650             0.00797001112            0.000496198064           
       2.013291             0.00749791671            0.000461759493           
       2.015931             0.00762273891            0.000462296032           
       2.018572             0.00755937647            0.000492409948           
       2.021212             0.00707841915            0.000467927072           
       2.023852             0.00794796208            0.000469285279           
       2.026493             0.00800641646            0.000492051477           
       2.029133             0.00739453978            0.000463359564           
       2.031774             0.00696826091            0.000472060873           
       2.034414             0.00787985125            0.000461900267           
       2.037054              0.0079090226            0.000474483764           
       2.039695             0.00774352988            0.000465947464           
       2.042335             0.00738863785             0.00047299544           
       2.044975             0.00708521034            0.000457564305           
       2.047616              0.0074460646            0.000467906423           
       2.050256             0.00738616171            0.000470430704           
       2.052897             0.00700711364            0.000466647988           
       2.055537             0.00800716645            0.000482107647           
       2.058177             0.00771007768            0.000463272226           
       2.060818             0.00708056607             0.00046507931           
       2.063458             0.00791889232            0.000512547792           
       2.066098             0.00663402984            0.000442544349           
       2.068739             0.00730838162            0.000471712556           
       2.071379              0.0070509058            0.000475412551           
       2.074020             0.00775747358            0.000487827007           
       2.076660             0.00756505011            0.000485633115           
       2.079300             0.00762064432            0.000499356893           
       2.081941              0.0072376333            0.000445580193           
       2.084581             0.00806128226            0.000496354435           
       2.087222             0.00847442534            0.000490799561           
       2.089862             0.00755457748            0.000504711097           
       2.092502             0.00720109773            0.000477662311           
       2.095143             0.00702921463            0.000487335435           
       2.097783             0.00767392318            0.000492985538           
       2.100423              0.0076740198            0.000475039935           
       2.103064             0.00768628129            0.000493311403           
       2.105704             0.00651525169            0.000451930964           
       2.108345              0.0075866959            0.000468527801           
       2.110985             0.00801483515            0.000514347937           
       2.113625             0.00763347309            0.000506342294           
       2.116266             0.00781604975            0.000519631041           
       2.118906             0.00738093518            0.000470594589           
       2.121546             0.00777748104            0.000473847413           
       2.124187             0.00759629602            0.000491565632           
       2.126827             0.00715719526            0.000482472101           
       2.129468             0.00752508232            0.000495980177           
       2.132108             0.00749038839            0.000481437298           
       2.134748             0.00699203786            0.000463341504           
       2.137389             0.00762137838            0.000504665719           
       2.140029             0.00797154268            0.000462070149           
       2.142670             0.00777105262            0.000487574759           
       2.145310             0.00707092849            0.000452683046           
       2.147950             0.00745603893            0.000478454303           
       2.150591              0.0072949942            0.000468476188           
       2.153231             0.00724468288            0.000480557651           
       2.155871              0.0068666477            0.000451975832           
       2.158512              0.0073273757            0.000487169399           
       2.161152             0.00730647569            0.000471229185           
       2.163793             0.00735430771            0.000470640767           
       2.166433             0.00756492851            0.000490170252           
       2.169073             0.00897337819            0.000521968622           
       2.171714             0.00703039783            0.000458561519           
       2.174354             0.00770610911            0.000501652676           
       2.176995             0.00724677083            0.000484425012           
       2.179635             0.00859301221            0.000557423092           
       2.182275             0.00749849285            0.000491636617           
       2.184916             0.00774340483            0.000482549581           
       2.187556             0.00718776701            0.000460254588           
       2.190196              0.0080620228            0.000509370552           
       2.192837             0.00710561358            0.000475601534           
       2.195477             0.00723305701            0.000457477769           
       2.198118             0.00735949624            0.000473283183           
       2.200758             0.00815423434            0.000511105189           
       2.203398              0.0074073015            0.000490250667           
       2.206039             0.00743311965            0.000464788651           
       2.208679             0.00680223839            0.000454974754           
       2.211319             0.00809025505            0.000499044678           
       2.213960             0.00825185922            0.000510757098           
       2.216600             0.00727957496            0.000496263861           
       2.219241             0.00679775515            0.000458329191           
       2.221881             0.00676477916            0.000458156223           
       2.224521             0.00769790408             0.00049472341           
       2.227162             0.00696203294            0.000461063167           
       2.229802             0.00788896991            0.000506161646           
       2.232443             0.00742711009            0.000483375162           
       2.235083             0.00657283644             0.00046814028           
       2.237723              0.0076207623            0.000483737208           
       2.240364              0.0069610509            0.000473715062           
       2.243004             0.00749409041            0.000487594259           
       2.245644             0.00693560205             0.00047376899           
       2.248285             0.00740371618            0.000479690258           
       2.250925             0.00754952589            0.000487333248           
       2.253566             0.00736414594             0.00051456021           
       2.256206             0.00635747005            0.000468538657           
       2.258846             0.00681423542            0.000461443629           
       2.261487             0.00685853162            0.000485899541           
       2.264127             0.00712816021            0.000478409424           
       2.266767             0.00703460246            0.000487921685           
       2.269408             0.00669422096            0.000477919968           
       2.272048             0.00718146564            0.000492052647           
       2.274689             0.00786773988            0.000521813198           
       2.277329             0.00752055089            0.000480357904           
       2.279969             0.00789761772            0.000523974882           
       2.282610             0.00752424442             0.00049721451           
       2.285250             0.00635169227             0.00043725086           
       2.287891             0.00693553877            0.000489871304           
       2.290531              0.0073561914            0.000511290357           
       2.293171             0.00708099488            0.000488638302           
       2.295812             0.00759798966            0.000504127607           
       2.298452             0.00717310177            0.000512231122           
       2.301092             0.00638101177            0.000448880139           
       2.303733             0.00731825821            0.000500113611           
       2.306373              0.0074203053             0.00051151914           
       2.309014             0.00741554011             0.00050137949           
       2.311654             0.00709005359            0.000511601882           
       2.314294              0.0077816201            0.000493793305           
       2.316935              0.0072681849            0.000479196598           
       2.319575             0.00728546822            0.000502683736           
       2.322215             0.00689882029            0.000509790327           
       2.324856             0.00729978591            0.000482127588           
       2.327496             0.00696791975            0.000500864245           
       2.330137             0.00854805451            0.000530860105           
       2.332777             0.00742761979            0.000510240412           
       2.335417              0.0073507681            0.000492441963           
       2.338058             0.00774464259              0.0005205623           
       2.340698             0.00743330249            0.000505983765           
       2.343339             0.00679012626            0.000494240148           
       2.345979             0.00723945912            0.000482813945           
       2.348619              0.0070981002            0.000495552378           
       2.351260             0.00826790104             0.00053171441           
       2.353900             0.00745366655            0.000503254697           
       2.356540             0.00769168263            0.000510501011           
       2.359181             0.00666147991            0.000468424515           
       2.361821             0.00672986765            0.000454802309           
       2.364462             0.00666025047            0.000473199647           
       2.367102              0.0075632426            0.000518206174           
       2.369742             0.00759969543            0.000546760666           
       2.372383             0.00677841408            0.000467574147           
       2.375023             0.00795883053            0.000532602646           
       2.377663             0.00725677474            0.000486267343           
       2.380304             0.00707721855            0.000488220733           
       2.382944             0.00743573189             0.00047664751           
       2.385585             0.00678061558            0.000485442624           
       2.388225             0.00699987782            0.000490911307           
       2.390865             0.00830640407            0.000529273424           
       2.393506             0.00662513555            0.000463766308           
       2.396146             0.00724910298            0.000524527311           
       2.398787             0.00696451064            0.000473808869           
       2.401427             0.00730075224            0.000468244564           
       2.404067             0.00670048143            0.000458587995           
       2.406708             0.00757599341            0.000481781474           
       2.409348             0.00622815112            0.000463340913           
       2.411988             0.00648209922            0.000463134301           
       2.414629             0.00668805522            0.000485085493           
       2.417269             0.00654605211            0.000485511169           
       2.419910             0.00742761366            0.000518371053           
       2.422550             0.00719816644             0.00048822522           
       2.425190             0.00711011204            0.000511482908           
       2.427831              0.0058977144            0.000463219212           
       2.430471              0.0076451374            0.000502447155           
       2.433112             0.00673610973            0.000459256149           
       2.435752             0.00705249069            0.000497319479           
       2.438392             0.00731255609             0.00048878524           
       2.441033             0.00712702928            0.000511400623           
       2.443673             0.00605487814            0.000471729932           
       2.446313             0.00754581264            0.000527079936           
       2.448954             0.00713432386              0.0004879784           
       2.451594             0.00725739711            0.000529197141           
       2.454235              0.0069284388            0.000485138535           
       2.456875             0.00698254614            0.000509607086           
       2.459515             0.00775168021            0.000550840858           
       2.462156             0.00701283999            0.000494665076           
       2.464796              0.0075250418            0.000505800399           
       2.467436             0.00693181709            0.000502016652           
       2.470077             0.00724762948            0.000486539098           
       2.472717             0.00787082687            0.000509221981           
       2.475358             0.00654420801            0.000469170266           
       2.477998             0.00851973367            0.000526297055           
       2.480638             0.00743964277            0.000500545107           
       2.483279             0.00753055743            0.000526336246           
       2.485919             0.00754698695            0.000507798342           
       2.488560             0.00668820699            0.000476698897           
       2.491200             0.00638230169            0.000479516701           
       2.493840             0.00757982993            0.000552947914           
       2.496481             0.00748593371            0.000540523558           
       2.499121             0.00701589857            0.000508972379           
       2.501761             0.00776874598            0.000542680759           
       2.504402             0.00731886392            0.000519037784           
       2.507042             0.00608732038            0.000469851936           
       2.509683             0.00688693601             0.00049212132           
       2.512323             0.00745077904            0.000537591066           
       2.514963              0.0072602531            0.000524116925           
       2.517604             0.00663470036            0.000519894756           
       2.520244             0.00845019787            0.000550060352           
       2.522884             0.00709848595            0.000511359816           
       2.525525              0.0113499992            0.000653947995           
       2.528165             0.00766173362            0.000528914967           
       2.530806             0.00752314303            0.000533244804           
       2.533446             0.00842168781            0.000552149212           
       2.536086             0.00789791585            0.000529917837           
       2.538727              0.0070662381            0.000480864364           
       2.541367             0.00660096337            0.000469341758           
       2.544008             0.00753488848            0.000517871046           
       2.546648             0.00652082398            0.000490027673           
       2.549288             0.00585598748            0.000473837689           
       2.551929             0.00768227391            0.000534067235           
       2.554569             0.00709034813            0.000494309333           
       2.557209             0.00744564612             0.00051119487           
       2.559850             0.00662542365            0.000483765056           
       2.562490             0.00678856946            0.000506115741           
       2.565131               0.007219941             0.00054117956           
       2.567771             0.00704611606               0.000515459           
       2.570411             0.00598070777            0.000469754455           
       2.573052             0.00745730831            0.000531154478           
       2.575692             0.00680373529             0.00050427291           
       2.578332             0.00791527275            0.000546156482           
       2.580973             0.00721941484            0.000516634252           
       2.583613             0.00655432703            0.000480540711           
       2.586254             0.00776617979            0.000522355135           
       2.588894             0.00669965857            0.000503819558           
       2.591534             0.00703907923            0.000534595988           
       2.594175             0.00741553709            0.000538350831           
       2.596815             0.00739823512            0.000540892967           
       2.599456             0.00685947838            0.000493897058           
       2.602096             0.00689572612            0.000498968929           
       2.604736             0.00608925284            0.000480002366           
       2.607377             0.00666561498            0.000488970769           
       2.610017             0.00769789996            0.000516275641           
       2.612657             0.00736257621            0.000537043507           
       2.615298             0.00751129968            0.000529592581           
       2.617938             0.00713365913            0.000552103579           
       2.620579             0.00700584663            0.000525244303           
       2.623219             0.00710464674            0.000528180989           
       2.625859             0.00731123196            0.000520952797           
       2.628500             0.00638200687            0.000483532564           
       2.631140             0.00720751213            0.000521771667           
       2.633780             0.00709384547               0.000517191           
       2.636421             0.00700701604            0.000526656655           
       2.639061             0.00609388909            0.000462355039           
       2.641702             0.00712408943            0.000511484613           
       2.644342             0.00785491199            0.000539367953           
       2.646982             0.00768937868            0.000525676399           
       2.649623             0.00801775975            0.000562527835           
       2.652263             0.00734165572            0.000532886063           
       2.654904              0.0067083593            0.000509896707           
       2.657544             0.00708317133            0.000493504369           
       2.660184             0.00692732821            0.000516493899           
       2.662825             0.00688358702            0.000526805353           
       2.665465             0.00686313618            0.000508750121           
       2.668105             0.00717024479            0.000548108598           
       2.670746             0.00769032952            0.000524377231           
       2.673386             0.00777011758            0.000543208964           
       2.676027             0.00766142513            0.000530739313           
       2.678667             0.00999513671            0.000591506352           
       2.681307              0.0115863667            0.000625743545           
       2.683948              0.0143637652            0.000715845223           
       2.686588              0.0116405115            0.000633736122           
       2.689229              0.0100674875              0.0005759013           
       2.691869              0.0102470511            0.000614074538           
       2.694509             0.00918348913            0.000581653133           
       2.697150             0.00694339063            0.000497556306           
       2.699790             0.00787405142            0.000555474959           
       2.702430             0.00806089097            0.000537229887           
       2.705071             0.00614759178            0.000484788512           
       2.707711             0.00718010625            0.000508503936           
       2.710352             0.00755591344            0.000551179831           
       2.712992             0.00658788967            0.000524179182           
       2.715632             0.00714220721            0.000506381641           
       2.718273             0.00643433285            0.000498111309           
       2.720913             0.00740376504            0.000532799102           
       2.723553             0.00801981483            0.000558243292           
       2.726194             0.00734158925            0.000558328298           
       2.728834             0.00747600996            0.000563680802           
       2.731475             0.00792191789            0.000535517808           
       2.734115             0.00821790542             0.00056235804           
       2.736755             0.00779190791            0.000552095497           
       2.739396              0.0068315344            0.000513958291           
       2.742036             0.00757972124            0.000566579615           
       2.744677             0.00687815874            0.000523679489           
       2.747317             0.00628609218            0.000497063538           
       2.749957             0.00720613037            0.000535932077           
       2.752598             0.00720661639            0.000541766577           
       2.755238             0.00842381716             0.00059630856           
       2.757878             0.00792393069            0.000573288292           
       2.760519             0.00811852949             0.00057413221           
       2.763159              0.0101801966            0.000636486899           
       2.765800              0.0074508715            0.000518920365           
       2.768440             0.00912601373            0.000578529365           
       2.771080             0.00812064197            0.000550288055           
       2.773721             0.00788857141            0.000556359075           
       2.776361             0.00737826961            0.000545486272           
       2.779001             0.00855736363            0.000608371912           
       2.781642             0.00664631776            0.000532203006           
       2.784282              0.0066871593            0.000542614055           
       2.786923             0.00694781081            0.000557957772           
       2.789563             0.00727148384             0.00054975364           
       2.792203             0.00578594413            0.000468464756           
       2.794844             0.00777762463            0.000595274633           
       2.797484             0.00741654576            0.000548598307           
       2.800125             0.00618949652            0.000526975843           
       2.802765             0.00779230408            0.000581111735           
       2.805405             0.00705374154            0.000554758425           
       2.808046             0.00677315259            0.000553169115           
       2.810686             0.00663500489            0.000503087667           
       2.813326              0.0053780586            0.000470474386           
       2.815967              0.0061818364            0.000518749783           
       2.818607               0.007886668            0.000559138128           
       2.821248             0.00710575556            0.000519716123           
       2.823888              0.0062900418            0.000507569809           
       2.826528             0.00632291563            0.000492839124           
       2.829169              0.0071990795            0.000550827686           
       2.831809             0.00619148391            0.000517776322           
       2.834449             0.00661294635            0.000538490801           
       2.837090             0.00678804316            0.000526937255           
       2.839730             0.00655304491            0.000515207966           
       2.842371             0.00743489069            0.000549572045           
       2.845011             0.00738611616            0.000552132661           
       2.847651             0.00704700414            0.000539971313           
       2.850292             0.00695357386            0.000541643962           
       2.852932              0.0064625549            0.000533549923           
       2.855573             0.00691564205            0.000535394062           
       2.858213             0.00575759662            0.000513000009           
       2.860853             0.00695700576            0.000524563605           
       2.863494             0.00647703724            0.000524042794           
       2.866134             0.00589988382            0.000519843944           
       2.868774             0.00685544515            0.000550721507           
       2.871415             0.00692498464             0.00056212932           
       2.874055             0.00822448323            0.000585575018           
       2.876696             0.00645810506            0.000532931974           
       2.879336             0.00900142008            0.000606408315           
       2.881976             0.00708107792            0.000554752828           
       2.884617             0.00661326961            0.000528241328           
       2.887257             0.00634690937            0.000520165186           
       2.889897             0.00788950982            0.000568006984           
       2.892538             0.00712040842            0.000591146258           
       2.895178             0.00769439654            0.000555169886           
       2.897819              0.0075774406            0.000562005735           
       2.900459             0.00732486965            0.000541810942           
       2.903099             0.00679269857            0.000516417069           
       2.905740              0.0079691102            0.000573822536           
       2.908380             0.00718687446            0.000551124201           
       2.911021              0.0069756817            0.000551793935           
       2.913661             0.00605304607            0.000513854841           
       2.916301             0.00581040926            0.000503930667           
       2.918942             0.00780856148             0.00055879059           
       2.921582             0.00559895665            0.000495072044           
       2.924222             0.00764879569            0.000560594653           
       2.926863             0.00753678486            0.000579632705           
       2.929503             0.00854036004            0.000624328191           
       2.932144             0.00756214568            0.000563950442           
       2.934784              0.0072446981            0.000542935643           
       2.937424             0.00685880247            0.000533701518           
       2.940065             0.00699452336            0.000514113153           
       2.942705             0.00712331091             0.00051817374           
       2.945346              0.0085824192            0.000603612569           
       2.947986             0.00711547513            0.000560412955           
       2.950626             0.00777040512            0.000582339035           
       2.953267             0.00701862433            0.000544509832           
       2.955907             0.00644848243            0.000541425943           
       2.958547             0.00713277692             0.00053757024           
       2.961188             0.00657672771            0.000538531834           
       2.963828              0.0081376795            0.000585973097           
       2.966469             0.00695593756            0.000531462589           
       2.969109             0.00685479323            0.000535401487           
       2.971749             0.00730886898            0.000549401344           
       2.974390             0.00811776193            0.000568978986           
       2.977030             0.00705860784            0.000542420936           
       2.979670             0.00807325946            0.000564257005           
       2.982311             0.00837689511            0.000595720116           
       2.984951             0.00720270122            0.000525374656           
       2.987592             0.00710637391            0.000532301928           
       2.990232             0.00759427574             0.00057227666           
       2.992872             0.00752060994             0.00053643145           
       2.995513             0.00739173801            0.000520290597           
       2.998153             0.00895594688            0.000582323786           
       3.000794              0.0113322771             0.00063447287           
       3.003434              0.0127558202            0.000674161421           
       3.006074              0.0432445716              0.0012238985           
       3.008715                0.11618585              0.0019365318           
       3.011355                0.18648779             0.00236589657           
       3.013995              0.0927457298             0.00167300607           
       3.016636              0.0613997797              0.0013329742           
       3.019276               0.124882413             0.00186867384           
       3.021917               0.475462713             0.00350600305           
       3.024557                1.63478011             0.00639166064           
       3.027197                1.17544142             0.00528403516           
       3.029838               0.513173621             0.00354090573           
       3.032478               0.267812458             0.00256058353           
       3.035118              0.0699111469             0.00132581998           
       3.037759               0.095985911             0.00155150934           
       3.040399               0.135048857             0.00189834814           
       3.043040               0.520557585             0.00377273013           
       3.045680               0.411071565             0.00315430892           
       3.048320              0.0864963284             0.00147839849           
       3.050961               0.104471747             0.00165339962           
       3.053601              0.0825034567             0.00141512707           
       3.056242              0.0579899057             0.00126140813           
       3.058882              0.0466414936             0.00121351506           
       3.061522              0.0364071999             0.00105189978           
       3.064163              0.0416024285             0.00111029027           
       3.066803               0.101961529             0.00182993184           
       3.069443               0.104018615             0.00193379446           
       3.072084              0.0544751796             0.00136268051           
       3.074724              0.0397314603             0.00129964982           
       3.077365              0.0827289089             0.00194133874           
       3.080005              0.0188795652            0.000932658484           
       3.082645             0.00990958013            0.000709839228           
       3.085286              0.0137913916            0.000844013518           
       3.087926             0.00910357571            0.000680442167           
       3.090566              0.0105868465            0.000718967167           
       3.093207              0.0112007259            0.000769545158           
       3.095847             0.00810330415            0.000627375082           
       3.098488             0.00663034782            0.000629258177           
       3.101128             0.00991148817            0.000774308784           
       3.103768             0.00961325607            0.000748223859           
       3.106409              0.0086336118            0.000754647196           
       3.109049             0.00794761558            0.000694831045           
       3.111690             0.00861789089            0.000711117022           
       3.114330             0.00922572422            0.000751420065           
       3.116970             0.00839912458            0.000722471912           
       3.119611              0.0114057914            0.000896159728           
       3.122251              0.0162103626             0.00111754417           
       3.124891              0.0341687564             0.00163760639           
       3.127532              0.0245340173             0.00135752354           
       3.130172              0.0155514932             0.00109948505           
       3.132813             0.00817442064            0.000784751725           
       3.135453             0.00901547871            0.000817346113           
       3.138093             0.00546351422            0.000689430896           
       3.140734             0.00673672194            0.000706287681           
       3.143374             0.00711852927            0.000767804746           
       3.146014             0.00603417576             0.00076102174           
       3.148655             0.00661981308            0.000740975085           
       3.151295             0.00724878438             0.00082628619           
       3.153936             0.00587251149            0.000718411722           
       3.156576             0.00519271598            0.000666363073           
       3.159216             0.00594203829            0.000716387831           
       3.161857             0.00624685344            0.000731543315           
       3.164497             0.00811744243             0.00087619875           
       3.167138             0.00786307299            0.000891029516           
       3.169778             0.00585106575            0.000755947474           
       3.172418              0.0078581182            0.000867148169           
       3.175059             0.00584110982            0.000662798012           
       3.177699             0.00471032093            0.000630274753           
       3.180339             0.00639558058            0.000786874362           
       3.182980             0.00599718061            0.000787801547           
       3.185620             0.00525587563            0.000751087507           
       3.188261             0.00556645402            0.000786754287           
       3.190901             0.00526282508            0.000703574472           
       3.193541             0.00558379221            0.000761497144           
       3.196182             0.00416029493            0.000685004174           
       3.198822             0.00584449235            0.000812175895           
       3.201463             0.00566072997            0.000785534801           
       3.204103             0.00506504653            0.000738534112           
       3.206743             0.00655565516            0.000840129289           
       3.209384             0.00680577859            0.000924841766           
       3.212024             0.00566738743            0.000786831998           
       3.214664             0.00621392652            0.000936889779           
       3.217305             0.00659982494            0.000917815379           
       3.219945             0.00581376417            0.000886629395           
       3.222586             0.00551899055            0.000822812071           
       3.225226             0.00589226986            0.000943145017           
       3.227866             0.00630462172            0.000891678096           
       3.230507              0.0060893524            0.000908404334           
       3.233147             0.00716756772            0.000993510197           
       3.235787             0.00646394633             0.00096553967           
       3.238428             0.00738440856             0.00111365709           
       3.241068             0.00588010116            0.000929224639           
       3.243709             0.00594696639            0.000965479767           
       3.246349             0.00613773796             0.00089413007           
       3.248989             0.00397638177            0.000849784033           
       3.251630             0.00557350553            0.000968819192           
       3.254270             0.00563626393            0.000870722864           
       3.256911             0.00592100072            0.000973757396           
       3.259551             0.00705728475             0.00114451647           
       3.262191             0.00734208601             0.00119242232           
       3.264832             0.00865219198             0.00135250057           
       3.267472             0.00518611141            0.000982308547           
       3.270112             0.00337404704            0.000875618499           
       3.272753             0.00627904966             0.00109335477           
       3.275393             0.00474071756            0.000969359037           
       3.278034             0.00632520137             0.00112032555           
       3.280674             0.00654875951             0.00123700625           
       3.283314             0.00560729873             0.00102371446           
       3.285955              0.0053792947             0.00103455109           
       3.288595             0.00320614603            0.000888578009           
       3.291235             0.00440444957             0.00107062957           
       3.293876             0.00640844164               0.001309984           
       3.296516              0.0059295856             0.00120971572           
       3.299157             0.00602657463             0.00120424507           
       3.301797             0.00719779828             0.00150122262           
       3.304437             0.00611368124             0.00119868629           
       3.307078             0.00396598443              0.0010635023           
       3.309718              0.0063798405             0.00139226896           
       3.312359             0.00730965745             0.00149063014           
       3.314999             0.00292586279            0.000928539079           
       3.317639             0.00594645989             0.00126599395           
       3.320280             0.00605137007             0.00135783441           
       3.322920              0.0046911544             0.00121565008           
       3.325560             0.00595955178             0.00137110422           
       3.328201             0.00538038542             0.00117330847           
       3.330841             0.00453807932             0.00131145816           
       3.333482             0.00714013131             0.00155492268           
       3.336122             0.00472216055             0.00126510235           
       3.338762             0.00584627056             0.00162605399           
       3.341403             0.00328370877             0.00116446569           
       3.344043             0.00753095655             0.00169308201           
       3.346683             0.00472325317             0.00136887755           
       3.349324             0.00502484472             0.00158744517           
       3.351964             0.00669693667             0.00193794106           
       3.354605             0.00514789305             0.00194317287           
       3.357245             0.00472046945             0.00167859928           
       3.359885             0.00229823391            0.000937426281           
       3.362526             0.00293357294             0.00132445342           
       3.365166             0.00697365334             0.00192605752           
       3.367807             0.00786933117             0.00261847836           
       3.370447             0.00297127865             0.00133467459           
       3.373087             0.00746922224             0.00226291713           
       3.375728             0.00432852501             0.00194419649           
       3.378368             0.00372042899              0.0026750789           
       3.381008           -2.57030923e-05                         0           
       3.383649             0.00545643503             0.00193756899           
       3.386289             0.00384564963             0.00192516555           
       3.388930           -2.57643677e-05                         0           
       3.391570             0.00478246135             0.00240223097           
       3.394210             0.00389151816             0.00274232249           
       3.396851             0.00232241718             0.00236975206           
       3.399491             0.00225696345             0.00233677633           
       3.402131             0.00951974423              0.0067899099           
       3.404772             0.00945436634             0.00957166218           
       3.407412                       nan                       nan           
       3.410053              0.0272540219              0.0162712391           
       3.412693                       nan                       nan           
       3.415333           -2.59983753e-05                         0           
