################################################################################
# EDF_DataBlockID                     0.Image.Psd
# EDF_BinarySize                      2105344
# EDF_HeaderSize                      2560
# ByteOrder                           LowByteFirst
# DataType                            FloatValue
# Dim_1                               512
# Dim_2                               1028
# Image                               0
# HeaderID                            EH:000000:000000:000000
# Size                                2105344
# Center_1                            304.9000
# Center_2                            588.7000
# Comment                             Xenocs_Cell_Window - 20251028_20perc_iodine_1.23mg
# DDummy                              0.6
# Date                                2025-10-31T01:45:52
# Delta                               21.910000
# Dummy                               -1.5
# ExposureTime                        360
# Gamma                               15.360000
# Intensity1                          8.55387e-10
# PSize_1                             7.5e-05
# PSize_2                             7.5e-05
# Pressure                            0.0327997
# SampleDistance                      0.115750
# SampleEnvKind                       large
# SampleEnvPN                         ElectroChemical cell
# SampleEnvSN                         1141
# Thickness                           0
# Wavelength                          1.541891e-10
# Wavelength                          1.54189e-10
# aux                                 0
# aux_dial                            0.002375
# beamx                               588.434
# beamx_dial                          588.434
# beamz                               657.808
# beamz_dial                          657.808
# det0x                               0
# det0x_dial                          6.36945
# det0xvd                             0
# det0xvd_dial                        0
# det0y                               450.002
# det0y_dial                          481.635
# det0z                               0
# det0z_dial                          1.23302
# det0zvd                             0
# det0zvd_dial                        0
# mag                                 1.818
# mag_dial                            1.818
# om                                  0.2499
# om_dial                             -0.610199
# phi                                 -0.0120535
# phi_dial                            0
# ry                                  0.599993
# ry_dial                             0.599993
# s1bot                               0.8
# s1bot_dial                          -1.66094
# s1hl                                0.8
# s1hl_dial                           -0.608437
# s1hr                                0.8
# s1hr_dial                           0.970938
# s1top                               0.8
# s1top_dial                          -0.461562
# s2bot                               0.45
# s2bot_dial                          1.36109
# s2hl                                0.45
# s2hl_dial                           -0.83375
# s2hr                                0.45
# s2hr_dial                           -0.118594
# s2top                               0.45
# s2top_dial                          1.44734
# w2theta                             32
# w2theta_dial                        32
# waxsch                              19.2605
# waxsch_dial                         -32.7355
# waxsh                               137.085
# waxsh_dial                          -43.5338
# waxsth                              26.0607
# waxsth_dial                         -19.4086
# waxsz                               67.0407
# waxsz_dial                          -23.7954
# wind                                65.9854
# wind_dial                           66.0041
# wpsi                                124
# wpsi_dial                           124
# wstod                               115
# wstod_dial                          115
# x                                   0
# x_dial                              1.00969
# z                                   0
# z_dial                              13.3172
# CountCutoff                         6807993
# DetectorModel                       Dectris EIGER2 Si 500K, S/N E-01-0554
# ThresholdSetting                    4023.88989258
# Saturation                          0
# FlatField                           Corrected
# BackgroundReductionExtra            0.02
# BackgroundCorrectionConstant        0.0026712
# Detector                            0
# Monitor                             0
# Pil_Roi0                            0
# SumForIntensity1                    3.07939e+08
# TransmittedFlux                     855387
# det                                 0
# mon                                 0
# pilai0                              3.07939e+08
# pilai1                              773552
# pilct0                              5.33338e+08
# pilct1                              773552
# pilroi0                             0
# pilroi1                             0
# sec                                 1
# title                               20251028_20perc_iodine_1.23mg_1_00540.edf
# usaxs0                              0
# Operation                           Azimuthal average I(q)
# Error_model                         ErrorModel.poisson
# Geometrical_correction              True
# Transmission_correction             True
# Thickness_correction                False
# Binning mode                        Uniform
# Binning factor                      1.0
# Psi                                 0.0
# Omega                               0.2499
# MaskInvalidPixels                   True
# DetectorEdge                        3
# MaskFiles                           ['WAXS_corrected.edf']
################################################################################
    q(A⁻¹)                Intensity(a.u.)            Sigma_I(a.u.)            
       0.693100           -2.37356925e-05                         0           
       0.695741             0.00562163406             0.00407823033           
       0.698381             0.00426948368             0.00435352458           
       0.701021           -2.36983131e-05                         0           
       0.703662             0.00279484944              0.0028742476           
       0.706302             0.00705814473             0.00353628618           
       0.708942              0.0142932685             0.00649514655           
       0.711583             0.00662228819             0.00382836212           
       0.714223              0.0117757649             0.00589390939           
       0.716864             0.00756697456             0.00309129757           
       0.719504             0.00734728125             0.00328708447           
       0.722144             0.00746019532             0.00306739319           
       0.724785             0.00635406556             0.00225814382           
       0.727425             0.00583229422             0.00292674923           
       0.730065             0.00794340701             0.00241607508           
       0.732706             0.00558223284             0.00170082541           
       0.735346             0.00616194352             0.00232937135           
       0.737987             0.00702230018             0.00175718157           
       0.740627             0.00583638894             0.00239020715           
       0.743267             0.00698141126             0.00175096393           
       0.745908             0.00570911119              0.0017179027           
       0.748548             0.00656438161             0.00169795296           
       0.751189              0.0120195993             0.00309592384           
       0.753829             0.00674940165             0.00213256863           
       0.756469             0.00655280235             0.00169440514           
       0.759110               0.006318029             0.00175333568           
       0.761750             0.00492796494              0.0013692058           
       0.764390             0.00866908724              0.0019007591           
       0.767031             0.00525010548              0.0012809246           
       0.769671             0.00682586153             0.00182193521           
       0.772312             0.00785075501             0.00148751467           
       0.774952             0.00974734149             0.00223824875           
       0.777592              0.0078955575             0.00146728288           
       0.780233             0.00590448542             0.00153086625           
       0.782873             0.00652876934             0.00153958799           
       0.785513             0.00743376691             0.00175629351           
       0.788154             0.00753740619             0.00147940628           
       0.790794             0.00661248208              0.0016566005           
       0.793435             0.00904256449              0.0017403298           
       0.796075             0.00901503256             0.00167392333           
       0.798715             0.00909416177             0.00198676269           
       0.801356             0.00893392023              0.0016948123           
       0.803996             0.00634873356             0.00145658837           
       0.806637             0.00886465328             0.00136973447           
       0.809277             0.00496453009             0.00110949645           
       0.811917             0.00802108367             0.00131838124           
       0.814558             0.00626024495             0.00121051454           
       0.817198             0.00528007864             0.00105618399           
       0.819838             0.00838302869             0.00134688984           
       0.822479             0.00749260013              0.0014952609           
       0.825119              0.0110122805             0.00154288321           
       0.827760             0.00644647059             0.00119577167           
       0.830400             0.00606029705             0.00109121272           
       0.833040             0.00601489151             0.00113896406           
       0.835681             0.00612200659             0.00130628551           
       0.838321             0.00568597604             0.00105664096           
       0.840961             0.00929863479             0.00147224645           
       0.843602             0.00718505236             0.00118679189           
       0.846242              0.0077937081              0.0012358532           
       0.848883             0.00923570396             0.00137675479           
       0.851523             0.00358391144            0.000846977161           
       0.854163             0.00838894847             0.00137805325           
       0.856804             0.00786648729             0.00119985453           
       0.859444             0.00911898924             0.00126576175           
       0.862085             0.00610904989             0.00107978549           
       0.864725             0.00800651159             0.00126507528           
       0.867365             0.00687364313             0.00108693629           
       0.870006             0.00617575763              0.0009817787           
       0.872646             0.00753673448              0.0011373283           
       0.875286              0.0090396947             0.00119832364           
       0.877927             0.00648802724            0.000979625107           
       0.880567             0.00620057875            0.000992174272           
       0.883208             0.00790136183             0.00110946086           
       0.885848              0.0056638989             0.00097530846           
       0.888488             0.00751648956             0.00105381902           
       0.891129             0.00777212221             0.00110029844           
       0.893769             0.00999453453             0.00119411379           
       0.896410             0.00742401556            0.000959539882           
       0.899050             0.00749534319             0.00106029006           
       0.901690              0.0101520889             0.00134415818           
       0.904331             0.00742182412             0.00101890505           
       0.906971             0.00804279119             0.00112838205           
       0.909611             0.00537640942             0.00083983323           
       0.912252             0.00671011535            0.000969098778           
       0.914892             0.00735580184             0.00110880077           
       0.917533             0.00625792424            0.000967482493           
       0.920173             0.00952241948             0.00110728031           
       0.922813             0.00624090555            0.000940683554           
       0.925454             0.00839877482            0.000982648383           
       0.928094             0.00822459786             0.00103812511           
       0.930734             0.00712556792             0.00104030516           
       0.933375              0.0092265123             0.00117213944           
       0.936015             0.00737077087            0.000951491875           
       0.938656             0.00751741298             0.00103082966           
       0.941296             0.00601366982            0.000835569666           
       0.943936             0.00825896922            0.000960267096           
       0.946577             0.00868765801             0.00097836241           
       0.949217             0.00742130239            0.000831539783           
       0.951858             0.00796756025            0.000901923151           
       0.954498              0.0061513795            0.000917291757           
       0.957138             0.00711546026            0.000934628908           
       0.959779             0.00714687142            0.000923383417           
       0.962419             0.00645348185            0.000871610993           
       0.965059             0.00884583146             0.00107325444           
       0.967700             0.00777538892             0.00103057246           
       0.970340             0.00832372028            0.000943563024           
       0.972981             0.00726436659            0.000803110247           
       0.975621             0.00683278652            0.000828603009           
       0.978261             0.00905596025            0.000906397761           
       0.980902              0.0067158404            0.000933891344           
       0.983542             0.00793682818             0.00089906312           
       0.986182             0.00787561385            0.000879284084           
       0.988823             0.00871669251            0.000898220314           
       0.991463             0.00873578256            0.000959356159           
       0.994104             0.00860998399            0.000929103853           
       0.996744             0.00877033644            0.000956462579           
       0.999384             0.00736584236            0.000783918765           
       1.002025              0.0081049095             0.00091780314           
       1.004665             0.00746572067            0.000805005271           
       1.007306             0.00773219962            0.000815052749           
       1.009946             0.00902272326            0.000897932323           
       1.012586             0.00754916194            0.000799938969           
       1.015227             0.00812519613            0.000891569634           
       1.017867             0.00749793854            0.000823121449           
       1.020507              0.0077314225            0.000809623758           
       1.023148             0.00807265331             0.00089267658           
       1.025788             0.00995506181            0.000908949926           
       1.028429             0.00810420165            0.000859202061           
       1.031069             0.00814564341            0.000810606818           
       1.033709             0.00909960636            0.000910737311           
       1.036350              0.0073374654            0.000734509313           
       1.038990             0.00839242172            0.000799974682           
       1.041630             0.00755166674            0.000791484687           
       1.044271             0.00821318332            0.000776280889           
       1.046911             0.00836549658            0.000824082862           
       1.049552             0.00907901132             0.00090197148           
       1.052192             0.00747763018            0.000747457646           
       1.054832             0.00814714737            0.000787299971           
       1.057473              0.0081429829            0.000775913169           
       1.060113             0.00815977835            0.000757506325           
       1.062754             0.00776231912            0.000754329464           
       1.065394             0.00760974055            0.000789644174           
       1.068034             0.00820476515            0.000746028699           
       1.070675             0.00880076014            0.000805968397           
       1.073315             0.00827850324            0.000792893174           
       1.075955             0.00878645271            0.000771158854           
       1.078596             0.00864932514            0.000813168182           
       1.081236             0.00728964305            0.000714843183           
       1.083877              0.0100482901            0.000831745108           
       1.086517              0.0085687102            0.000823597896           
       1.089157             0.00708037323            0.000776820318           
       1.091798             0.00895764382            0.000766034917           
       1.094438             0.00996244022            0.000805249669           
       1.097078             0.00801785554            0.000692855913           
       1.099719             0.00776831796            0.000737675274           
       1.102359              0.0085472978            0.000724651969           
       1.105000             0.00892030251            0.000827794143           
       1.107640              0.0077874986            0.000739542787           
       1.110280             0.00829645621            0.000696477675           
       1.112921              0.0113484269            0.000875024933           
       1.115561             0.00854262638            0.000721542914           
       1.118202             0.00917192492            0.000748351674           
       1.120842               0.008834028            0.000771898623           
       1.123482             0.00949766581            0.000796871573           
       1.126123              0.0079793003             0.00070057845           
       1.128763             0.00929196284            0.000761194427           
       1.131403             0.00901693476              0.0007225396           
       1.134044             0.00827326875            0.000712175715           
       1.136684             0.00969340085            0.000821891561           
       1.139325             0.00911366121            0.000734135581           
       1.141965             0.00946148149            0.000752958478           
       1.144605             0.00914298155            0.000705760619           
       1.147246             0.00849359442             0.00069616214           
       1.149886             0.00816559386            0.000680164662           
       1.152527             0.00908353004            0.000727809192           
       1.155167             0.00958737792            0.000711197462           
       1.157807             0.00915621879            0.000745187076           
       1.160448             0.00984497424             0.00075456761           
       1.163088             0.00772922206            0.000637734834           
       1.165728              0.0105025445            0.000763257481           
       1.168369             0.00936527384            0.000727407696           
       1.171009             0.00871129939            0.000680836017           
       1.173650             0.00832481059            0.000683024856           
       1.176290             0.00968884832             0.00072007822           
       1.178930             0.00919805686            0.000687635141           
       1.181571              0.0104812223            0.000748589824           
       1.184211              0.0105515943            0.000753761754           
       1.186851             0.00967905473            0.000705814769           
       1.189492             0.00899168341            0.000675714402           
       1.192132              0.0103642534            0.000717317372           
       1.194773             0.00967844591            0.000696207284           
       1.197413             0.00947483384            0.000660011097           
       1.200053              0.0095906286            0.000680903984           
       1.202694             0.00881962182            0.000620928657           
       1.205334             0.00958495772            0.000697596788           
       1.207975             0.00983437296            0.000674483723           
       1.210615              0.0119812177            0.000821279577           
       1.213255             0.00974730442            0.000663341601           
       1.215896              0.0100569277             0.00068600325           
       1.218536             0.00963159433            0.000645522252           
       1.221176              0.0100733728            0.000717729982           
       1.223817              0.0105319326            0.000688909762           
       1.226457              0.0104524464             0.00070013168           
       1.229098              0.0100822771            0.000687588987           
       1.231738              0.0112760107            0.000730734368           
       1.234378              0.0100443688            0.000648051283           
       1.237019              0.0106103822            0.000686368856           
       1.239659              0.0106837456            0.000682738052           
       1.242299             0.00988257737            0.000648297474           
       1.244940             0.00952693087             0.00061906084           
       1.247580             0.00934213932            0.000631775022           
       1.250221             0.00930985523             0.00062679091           
       1.252861              0.0103456133             0.00062902584           
       1.255501               0.010047904            0.000673102941           
       1.258142              0.0100593695            0.000632861742           
       1.260782             0.00996975117            0.000643668629           
       1.263423              0.0112820084            0.000657939049           
       1.266063             0.00970575777             0.00062548788           
       1.268703             0.00989896801            0.000626441182           
       1.271344              0.0115167377            0.000698593784           
       1.273984             0.00877633459             0.00058898603           
       1.276624              0.0100019269            0.000616955365           
       1.279265              0.0110105856             0.00065806687           
       1.281905              0.0110843405            0.000663197602           
       1.284546              0.0107776932            0.000632111267           
       1.287186             0.00930349068            0.000576195109           
       1.289826              0.0106980971            0.000651188533           
       1.292467              0.0106491679             0.00063538755           
       1.295107             0.00908702345            0.000581106872           
       1.297747              0.0112859632            0.000619710346           
       1.300388              0.0106942548            0.000657614663           
       1.303028              0.0104979387             0.00062200944           
       1.305669              0.0105845413            0.000639441381           
       1.308309              0.0109362853            0.000643578688           
       1.310949             0.00999493079            0.000614638787           
       1.313590             0.00981428097            0.000590020428           
       1.316230               0.010844176            0.000661846107           
       1.318871             0.00950712914            0.000606922771           
       1.321511              0.0104090325            0.000623287781           
       1.324151               0.010952381            0.000620394241           
       1.326792              0.0109072973            0.000622943671           
       1.329432             0.00982333386            0.000587008053           
       1.332072              0.0112155698            0.000617880157           
       1.334713                0.01065812            0.000621663458           
       1.337353              0.0111493102            0.000609770872           
       1.339994              0.0111796457             0.00064076372           
       1.342634              0.0114764903            0.000622556263           
       1.345274             0.00970576518             0.00059250206           
       1.347915              0.0102110137            0.000590945882           
       1.350555              0.0109067163             0.00062144202           
       1.353195              0.0111701471            0.000631990964           
       1.355836              0.0112630317            0.000624717564           
       1.358476                0.01071954            0.000591876731           
       1.361117              0.0116324842            0.000617412107           
       1.363757              0.0106419005            0.000608570727           
       1.366397              0.0121479764            0.000630533547           
       1.369038              0.0100731549            0.000579885122           
       1.371678              0.0118635721            0.000623765293           
       1.374319              0.0107137789            0.000587663837           
       1.376959              0.0112783626            0.000596885522           
       1.379599              0.0115345673            0.000646905371           
       1.382240              0.0120183725              0.0006206138           
       1.384880              0.0112788925            0.000636826255           
       1.387520              0.0111863694            0.000602327729           
       1.390161              0.0105064915             0.00055440981           
       1.392801              0.0116813781            0.000609082901           
       1.395442              0.0108428303            0.000594828851           
       1.398082               0.010782288            0.000555473997           
       1.400722              0.0105681886            0.000576040551           
       1.403363              0.0109069727            0.000615994918           
       1.406003              0.0110872301             0.00058123274           
       1.408644              0.0106786669            0.000597555225           
       1.411284              0.0119646612            0.000598934073           
       1.413924              0.0113882202            0.000582161806           
       1.416565              0.0123589483            0.000604083846           
       1.419205              0.0117315731            0.000613953295           
       1.421845              0.0110249226             0.00059482594           
       1.424486               0.010961208             0.00057010991           
       1.427126              0.0104159671            0.000577316389           
       1.429767              0.0108387244            0.000554098138           
       1.432407              0.0115612795            0.000598893338           
       1.435047              0.0115879503            0.000563108645           
       1.437688             0.00992723061            0.000528991066           
       1.440328              0.0110886613            0.000570603743           
       1.442968              0.0114993009             0.00059409238           
       1.445609              0.0112205639            0.000568231577           
       1.448249              0.0106166743            0.000566723752           
       1.450890              0.0112295792             0.00057904857           
       1.453530              0.0121337162            0.000629716909           
       1.456170              0.0111834837            0.000586736395           
       1.458811              0.0109310245             0.00055468102           
       1.461451              0.0108542667             0.00055418005           
       1.464092              0.0109244672            0.000559604082           
       1.466732              0.0116217352            0.000572226674           
       1.469372              0.0105233197            0.000531770629           
       1.472013              0.0111193418            0.000589543293           
       1.474653              0.0112947334            0.000585008799           
       1.477293              0.0113673118            0.000599254968           
       1.479934               0.010968817            0.000561702191           
       1.482574             0.00983653652            0.000514550687           
       1.485215              0.0113650853            0.000563388317           
       1.487855               0.011466151            0.000573352772           
       1.490495              0.0106133333            0.000549587149           
       1.493136              0.0113088113            0.000559532284           
       1.495776              0.0112106618            0.000554562238           
       1.498416              0.0103209981            0.000549511655           
       1.501057              0.0108502326            0.000551007276           
       1.503697               0.010051561            0.000518492161           
       1.506338              0.0108016649            0.000547312329           
       1.508978              0.0100777224            0.000523454521           
       1.511618              0.0109347996            0.000580698617           
       1.514259              0.0113016588            0.000569964333           
       1.516899              0.0108765713            0.000544419551           
       1.519540              0.0115138666            0.000569174925           
       1.522180             0.00935221498            0.000517476698           
       1.524820              0.0105767423            0.000547225168           
       1.527461              0.0105293138             0.00054869717           
       1.530101              0.0116537338            0.000571478582           
       1.532741              0.0114178181            0.000562381796           
       1.535382               0.010338964            0.000543768611           
       1.538022              0.0109786452            0.000527867965           
       1.540663             0.00980011157            0.000536416084           
       1.543303              0.0105952619            0.000517883015           
       1.545943              0.0113889675            0.000568301187           
       1.548584              0.0107803107            0.000562831943           
       1.551224              0.0101691805            0.000505425773           
       1.553864              0.0109941963            0.000555318902           
       1.556505              0.0106882128            0.000528934658           
       1.559145              0.0100042178            0.000517998845           
       1.561786              0.0100999852            0.000520873111           
       1.564426             0.00934521028            0.000485448556           
       1.567066              0.0100235221            0.000526793683           
       1.569707                0.01104967             0.00054316631           
       1.572347             0.00974613451            0.000527007411           
       1.574988                0.01004195            0.000509178436           
       1.577628             0.00986388938            0.000526219212           
       1.580268              0.0105522034            0.000527339401           
       1.582909              0.0110412057            0.000571763552           
       1.585549             0.00996333116            0.000527370015           
       1.588189              0.0101199125            0.000519897728           
       1.590830              0.0102251544            0.000521938159           
       1.593470              0.0101304984            0.000540087429           
       1.596111             0.00955006897            0.000511964617           
       1.598751             0.00932296098            0.000490142522           
       1.601391             0.00980334089            0.000513700588           
       1.604032             0.00922160387            0.000508641326           
       1.606672             0.00966517903            0.000505939521           
       1.609312             0.00962863948            0.000527142416           
       1.611953             0.00963904013            0.000516120239           
       1.614593              0.0105854794            0.000530546199           
       1.617234             0.00868401099            0.000498018848           
       1.619874             0.00989209862            0.000529432801           
       1.622514             0.00923082406            0.000504454112           
       1.625155              0.0100404543            0.000529219887           
       1.627795             0.00985875858            0.000511560573           
       1.630436             0.00900696487            0.000486408887           
       1.633076             0.00937174225             0.00050266813           
       1.635716             0.00943256142            0.000496450133           
       1.638357             0.00881702618            0.000481243751           
       1.640997              0.0105377645            0.000542049094           
       1.643637             0.00904726863            0.000488749433           
       1.646278             0.00933440304            0.000512042947           
       1.648918              0.0100236289            0.000532057684           
       1.651559             0.00914565894            0.000512166872           
       1.654199             0.00893651935            0.000492398836           
       1.656839             0.00928130201            0.000501982805           
       1.659480             0.00863053418             0.00050224202           
       1.662120             0.00972685595            0.000502175354           
       1.664761             0.00923907034            0.000508382898           
       1.667401             0.00946184569            0.000491728453           
       1.670041             0.00922280341            0.000492879683           
       1.672682             0.00843611085            0.000469452738           
       1.675322             0.00800153315            0.000454261155           
       1.677962             0.00792372176            0.000447060356           
       1.680603             0.00935548432            0.000487269321           
       1.683243             0.00817817016            0.000475312057           
       1.685884             0.00947547789            0.000515402648           
       1.688524             0.00814642445             0.00046865411           
       1.691164             0.00822575077            0.000471037246           
       1.693805             0.00822036057            0.000476055723           
       1.696445             0.00955024837            0.000516097352           
       1.699085             0.00944240096            0.000495979502           
       1.701726             0.00867727567            0.000458022943           
       1.704366             0.00943207912            0.000503063133           
       1.707007                0.00987065            0.000503154345           
       1.709647             0.00884326565            0.000481627997           
       1.712287             0.00933899146            0.000499251326           
       1.714928             0.00791666083            0.000463369833           
       1.717568             0.00801690025             0.00043925095           
       1.720209             0.00863497613            0.000477491135           
       1.722849             0.00860525481             0.00047421807           
       1.725489             0.00845520331             0.00047046008           
       1.728130             0.00841985953            0.000498921174           
       1.730770             0.00900963761            0.000490155522           
       1.733410             0.00792142022            0.000452377351           
       1.736051             0.00853231633             0.00047276489           
       1.738691              0.0086520599            0.000466420181           
       1.741332             0.00959551576            0.000505555301           
       1.743972             0.00821327634            0.000483007873           
       1.746612             0.00863567333             0.00047558773           
       1.749253             0.00819700261            0.000472501403           
       1.751893             0.00778367337            0.000457054838           
       1.754533             0.00888699617            0.000487919007           
       1.757174             0.00809697103            0.000461365829           
       1.759814             0.00942434046            0.000490203209           
       1.762455             0.00850739005             0.00047429776           
       1.765095             0.00806591536            0.000441794093           
       1.767735             0.00836620547            0.000463823562           
       1.770376             0.00886864636            0.000478807148           
       1.773016             0.00912098098            0.000482318503           
       1.775657             0.00812090932            0.000448560659           
       1.778297              0.0084431407            0.000453434976           
       1.780937             0.00772105858             0.00045767745           
       1.783578             0.00841438275            0.000465838042           
       1.786218              0.0082193713            0.000480486406           
       1.788858             0.00884305898            0.000473343427           
       1.791499             0.00898371836            0.000471734923           
       1.794139              0.0090414361            0.000469408328           
       1.796780             0.00883647553            0.000461820136           
       1.799420             0.00824938211            0.000443743838           
       1.802060             0.00856016296            0.000455676337           
       1.804701             0.00852721485            0.000436445375           
       1.807341             0.00937784853             0.00048093981           
       1.809981             0.00897018363            0.000471938421           
       1.812622             0.00859985704            0.000453774762           
       1.815262             0.00788424317            0.000443714401           
       1.817903             0.00882841606            0.000462574704           
       1.820543             0.00896885514             0.00047350448           
       1.823183             0.00888687959            0.000471076475           
       1.825824             0.00928886631            0.000460113471           
       1.828464             0.00902970566            0.000472949165           
       1.831105             0.00807217804            0.000434807077           
       1.833745             0.00788907093            0.000439027501           
       1.836385             0.00869970482            0.000474189118           
       1.839026             0.00782788861            0.000448381142           
       1.841666             0.00786562982            0.000447866994           
       1.844306             0.00840188279            0.000450252373           
       1.846947             0.00824038782            0.000449812841           
       1.849587             0.00895183907            0.000517700498           
       1.852228             0.00844055556            0.000454564412           
       1.854868             0.00948687628            0.000509073201           
       1.857508             0.00781467923            0.000457502692           
       1.860149             0.00833249087            0.000481000121           
       1.862789             0.00863252049            0.000472561081           
       1.865429             0.00741383121            0.000457138013           
       1.868070             0.00870103299            0.000488634462           
       1.870710             0.00888808197            0.000482472996           
       1.873351             0.00839108203             0.00047458491           
       1.875991             0.00772971959            0.000462932181           
       1.878631             0.00795901739            0.000460751595           
       1.881272             0.00857305648            0.000474990886           
       1.883912             0.00877864167            0.000500219326           
       1.886553             0.00870252964            0.000492477957           
       1.889193             0.00788476983            0.000467967673           
       1.891833             0.00742506877            0.000471622365           
       1.894474             0.00817959541            0.000490694544           
       1.897114             0.00793497563            0.000467680745           
       1.899754             0.00827008607            0.000479451893           
       1.902395             0.00843396357            0.000474712649           
       1.905035             0.00861927484            0.000508294016           
       1.907676             0.00848445429            0.000475307104           
       1.910316             0.00842789316            0.000486298229           
       1.912956             0.00854193546            0.000478806592           
       1.915597             0.00824638144            0.000473079515           
       1.918237             0.00931929123            0.000519387972           
       1.920878             0.00737477956             0.00046014369           
       1.923518             0.00746815135            0.000463243927           
       1.926158             0.00845041871            0.000486373376           
       1.928799             0.00882351087            0.000491241436           
       1.931439             0.00817528884            0.000485255098           
       1.934079              0.0078152613            0.000494602286           
       1.936720             0.00802846663            0.000464472185           
       1.939360             0.00829282825            0.000503619342           
       1.942001             0.00722982426            0.000430994456           
       1.944641             0.00795700419            0.000461056416           
       1.947281             0.00781192185            0.000452622928           
       1.949922              0.0078524803            0.000468731526           
       1.952562             0.00794168228            0.000486162235           
       1.955202             0.00762570953            0.000475811991           
       1.957843             0.00779614675            0.000468623583           
       1.960483             0.00746885864             0.00047955093           
       1.963124             0.00796760475            0.000485142263           
       1.965764             0.00797812813            0.000457804773           
       1.968404             0.00807925834            0.000456344342           
       1.971045             0.00790921375            0.000460344764           
       1.973685             0.00695734047            0.000452879602           
       1.976326             0.00828216697            0.000487329723           
       1.978966             0.00773148572            0.000474981905           
       1.981606             0.00809612569             0.00049619061           
       1.984247             0.00834208628            0.000500359968           
       1.986887             0.00778342759            0.000477525876           
       1.989527             0.00818899997            0.000484534214           
       1.992168             0.00782310827            0.000491385419           
       1.994808             0.00804720215            0.000496237307           
       1.997449              0.0075637543            0.000471220207           
       2.000089             0.00757050099            0.000469561253           
       2.002729             0.00827180004            0.000491122974           
       2.005370             0.00678058737            0.000439871372           
       2.008010             0.00689031883            0.000462768518           
       2.010650             0.00870922179             0.00052415825           
       2.013291             0.00781139042            0.000476273972           
       2.015931             0.00758092301            0.000465878678           
       2.018572             0.00716040817             0.00048428372           
       2.021212             0.00630273164            0.000446191807           
       2.023852             0.00718065405            0.000450752546           
       2.026493             0.00768142093            0.000487034114           
       2.029133             0.00781904866            0.000481489325           
       2.031774             0.00760365763            0.000498303834           
       2.034414               0.007830785            0.000465306374           
       2.037054             0.00778361872             0.00047566136           
       2.039695             0.00773366675            0.000470551691           
       2.042335             0.00706929066            0.000467530374           
       2.044975             0.00727364966             0.00046848868           
       2.047616             0.00801456996            0.000490549534           
       2.050256             0.00690340853            0.000459584306           
       2.052897             0.00757302718            0.000490232076           
       2.055537              0.0074624721            0.000470319625           
       2.058177              0.0076192767            0.000465383422           
       2.060818             0.00815600373            0.000504404423           
       2.063458             0.00733968653            0.000498641078           
       2.066098             0.00717066919            0.000464938041           
       2.068739             0.00783109663             0.00049342968           
       2.071379             0.00683450858            0.000472986758           
       2.074020             0.00729384431            0.000478003504           
       2.076660             0.00702525699            0.000472912339           
       2.079300             0.00718071906            0.000489831059           
       2.081941             0.00737028651             0.00045437761           
       2.084581             0.00729426195            0.000477120052           
       2.087222             0.00760771621            0.000469919359           
       2.089862             0.00752546688             0.00050903968           
       2.092502             0.00689240313             0.00047223058           
       2.095143             0.00769640102            0.000515306453           
       2.097783             0.00788893785            0.000505105237           
       2.100423             0.00709573949             0.00046159877           
       2.103064             0.00782511438            0.000502985556           
       2.105704             0.00700514888            0.000473546175           
       2.108345             0.00789154042            0.000482877611           
       2.110985             0.00768654927            0.000509005602           
       2.113625             0.00721343651            0.000497394949           
       2.116266             0.00684335153            0.000491340997           
       2.118906              0.0075304337            0.000480339583           
       2.121546             0.00726975093            0.000462941322           
       2.124187             0.00824403993            0.000517484998           
       2.126827             0.00864092929            0.000535708018           
       2.129468              0.0088901061            0.000544765144           
       2.132108             0.00724876212            0.000478593325           
       2.134748             0.00779602211            0.000494405164           
       2.137389             0.00833206491            0.000533225014           
       2.140029             0.00672980231            0.000429027397           
       2.142670             0.00702832973            0.000468570025           
       2.145310             0.00757712911            0.000473538724           
       2.147950             0.00821691795            0.000507560721           
       2.150591             0.00701047202            0.000464083176           
       2.153231             0.00683512375            0.000471689432           
       2.155871             0.00841149689            0.000505506359           
       2.158512             0.00803569354            0.000515542653           
       2.161152             0.00732767713            0.000476879353           
       2.163793             0.00792001107            0.000493547194           
       2.166433             0.00674106377            0.000467579975           
       2.169073             0.00809774579            0.000501066801           
       2.171714             0.00644734719             0.00044375712           
       2.174354             0.00796498536            0.000515377194           
       2.176995             0.00800702336            0.000514561147           
       2.179635             0.00768797563            0.000532801439           
       2.182275             0.00705416489            0.000481866997           
       2.184916             0.00657996639            0.000449505434           
       2.187556             0.00764177402            0.000479562676           
       2.190196             0.00706442803            0.000481834035           
       2.192837             0.00771502452            0.000500793009           
       2.195477             0.00762307305            0.000474592903           
       2.198118             0.00670970711            0.000456663141           
       2.200758             0.00827446358            0.000520278368           
       2.203398             0.00643458054            0.000461737823           
       2.206039             0.00670169601            0.000445973922           
       2.208679             0.00900048361            0.000528860884           
       2.211319             0.00685249301            0.000464119452           
       2.213960             0.00734059889            0.000486800932           
       2.216600              0.0074984391            0.000508970044           
       2.219241             0.00651096253             0.00045327786           
       2.221881             0.00710332523            0.000474421953           
       2.224521             0.00786651281            0.000505375856           
       2.227162             0.00771015978            0.000490310541           
       2.229802             0.00779794305            0.000508529629           
       2.232443             0.00687939648               0.000470107           
       2.235083             0.00794302249            0.000520043464           
       2.237723             0.00793665064            0.000498856996           
       2.240364             0.00734657529            0.000491778349           
       2.243004             0.00719490506            0.000482790595           
       2.245644              0.0073839685            0.000493988245           
       2.248285             0.00688937402            0.000467598434           
       2.250925             0.00732970493            0.000485240003           
       2.253566             0.00693012129             0.00050442032           
       2.256206             0.00743269581            0.000511945341           
       2.258846             0.00635484234            0.000450307963           
       2.261487             0.00619891972            0.000466805614           
       2.264127             0.00761360327            0.000499635479           
       2.266767             0.00771525114            0.000516359917           
       2.269408             0.00786217639             0.00052338792           
       2.272048             0.00657125393            0.000475637735           
       2.274689             0.00753485911            0.000516029797           
       2.277329             0.00692118504            0.000465669177           
       2.279969             0.00860872705               0.000552814           
       2.282610             0.00714749152            0.000489707009           
       2.285250             0.00750378348            0.000480256491           
       2.287891             0.00683044594            0.000491262457           
       2.290531             0.00638855949            0.000481492705           
       2.293171             0.00730294305            0.000501460202           
       2.295812             0.00745525959            0.000504626049           
       2.298452             0.00783650161            0.000541029228           
       2.301092             0.00716424021            0.000480637703           
       2.303733             0.00749643654            0.000511492645           
       2.306373             0.00746626373            0.000518501257           
       2.309014              0.0070165796            0.000492838977           
       2.311654             0.00712866469             0.00051839239           
       2.314294             0.00657208936            0.000458573616           
       2.316935             0.00732978687            0.000486288014           
       2.319575             0.00740876832            0.000512255059           
       2.322215             0.00691871984            0.000515898418           
       2.324856             0.00699206057            0.000476822413           
       2.327496             0.00750576151             0.00052530676           
       2.330137             0.00743454357            0.000500288767           
       2.332777             0.00686025624            0.000495527017           
       2.335417             0.00654233842            0.000469464054           
       2.338058              0.0068958173            0.000496377452           
       2.340698             0.00692901779            0.000493660826           
       2.343339             0.00723951638             0.00051570462           
       2.345979             0.00690263607            0.000476410563           
       2.348619             0.00706387203            0.000499559315           
       2.351260             0.00701229975             0.00049483246           
       2.353900             0.00725963265            0.000501888597           
       2.356540             0.00684560218            0.000486674852           
       2.359181             0.00719766907            0.000492036523           
       2.361821             0.00785516449             0.00049652851           
       2.364462             0.00763554772            0.000511995776           
       2.367102             0.00764953103            0.000526639126           
       2.369742             0.00778829194             0.00055932912           
       2.372383             0.00741906862            0.000494320117           
       2.375023              0.0075120743            0.000522884511           
       2.377663             0.00738268471            0.000495630007           
       2.380304             0.00681700806            0.000484204663           
       2.382944             0.00806408766            0.000501603128           
       2.385585             0.00707096478            0.000500944752           
       2.388225             0.00707102093            0.000498592814           
       2.390865             0.00678196476            0.000483279612           
       2.393506              0.0076911721            0.000504946334           
       2.396146             0.00724539532            0.000529912499           
       2.398787              0.0069725703            0.000479072766           
       2.401427             0.00707543062            0.000465813988           
       2.404067             0.00635299137            0.000451238305           
       2.406708             0.00691674709            0.000465187888           
       2.409348             0.00798661509            0.000530212064           
       2.411988             0.00753120738            0.000504462121           
       2.414629             0.00776038229             0.00052802814           
       2.417269             0.00735705579            0.000520126127           
       2.419910             0.00653532897            0.000491356792           
       2.422550             0.00723392136            0.000494587695           
       2.425190             0.00759765177             0.00053429332           
       2.427831             0.00698825669            0.000509537636           
       2.430471             0.00722910541            0.000493727334           
       2.433112             0.00731834368            0.000483731036           
       2.435752             0.00730279916             0.00051139448           
       2.438392             0.00683185958            0.000477419433           
       2.441033             0.00700909006            0.000512489475           
       2.443673             0.00732036352            0.000524148326           
       2.446313             0.00679136258             0.00050529975           
       2.448954             0.00748398955            0.000505054126           
       2.451594             0.00633962509            0.000499811198           
       2.454235             0.00794377247            0.000524938742           
       2.456875             0.00716514445            0.000521660767           
       2.459515             0.00722097273            0.000537246041           
       2.462156             0.00655903839            0.000483427687           
       2.464796             0.00773564554            0.000518227122           
       2.467436             0.00772127569            0.000535409723           
       2.470077             0.00746360337            0.000498931793           
       2.472717             0.00680005337             0.00047829988           
       2.475358             0.00724088609            0.000498706397           
       2.477998             0.00836489554            0.000526981464           
       2.480638             0.00697125134            0.000489631893           
       2.483279             0.00773963954            0.000539209124           
       2.485919             0.00731462659            0.000505181814           
       2.488560              0.0071048168             0.00049649272           
       2.491200             0.00692200356            0.000504635886           
       2.493840             0.00700894218            0.000537313658           
       2.496481              0.0065280507            0.000510070898           
       2.499121             0.00737926933             0.00052748048           
       2.501761             0.00711467341            0.000524799722           
       2.504402              0.0062319908            0.000483991449           
       2.507042             0.00725385891             0.00051829813           
       2.509683             0.00778673755            0.000528791023           
       2.512323             0.00724492254            0.000535692076           
       2.514963             0.00597735768            0.000480567143           
       2.517604             0.00715225741              0.0005454733           
       2.520244             0.00716272691             0.00051175636           
       2.522884             0.00732278032            0.000524842367           
       2.525525             0.00862729954            0.000576142462           
       2.528165              0.0100208246            0.000611253293           
       2.530806             0.00736565086            0.000533187164           
       2.533446              0.0113831171            0.000648686168           
       2.536086              0.0085583074              0.0005574339           
       2.538727              0.0137606416            0.000678101883           
       2.541367             0.00877748937            0.000546912486           
       2.544008             0.00725600856             0.00051354589           
       2.546648             0.00677297196             0.00050466845           
       2.549288             0.00703332323            0.000524755463           
       2.551929             0.00756750375            0.000535641863           
       2.554569             0.00718049155            0.000502677293           
       2.557209             0.00745554987            0.000516918743           
       2.559850             0.00717459676            0.000508713854           
       2.562490             0.00681459806            0.000512422255           
       2.565131             0.00787154864            0.000571020634           
       2.567771               0.007849606            0.000549781737           
       2.570411             0.00697339997            0.000512582828           
       2.573052             0.00710378768            0.000523868075           
       2.575692             0.00729396969            0.000527619769           
       2.578332             0.00723807509            0.000527767741           
       2.580973             0.00726151509            0.000523591958           
       2.583613              0.0066161818            0.000487884474           
       2.586254             0.00684923022            0.000495712852           
       2.588894             0.00614510249              0.0004875963           
       2.591534             0.00687915188            0.000534050549           
       2.594175             0.00714618321            0.000534045554           
       2.596815             0.00669179567            0.000519835285           
       2.599456             0.00715209676            0.000509629704           
       2.602096             0.00755167948            0.000527657875           
       2.604736             0.00752902145            0.000539358827           
       2.607377             0.00604096604            0.000470395471           
       2.610017             0.00670835012            0.000487024167           
       2.612657             0.00708708941            0.000532446128           
       2.615298             0.00682307262            0.000510060266           
       2.617938             0.00719635561            0.000560360923           
       2.620579             0.00662812733            0.000516266099           
       2.623219              0.0075874269            0.000551576722           
       2.625859             0.00674394008            0.000505600032           
       2.628500             0.00740556019            0.000526348271           
       2.631140             0.00728348846            0.000530035147           
       2.633780             0.00716561693            0.000525271743           
       2.636421              0.0073109972            0.000543621316           
       2.639061              0.0074435186            0.000516374288           
       2.641702             0.00730805843            0.000523499229           
       2.644342             0.00725877104            0.000523954018           
       2.646982              0.0078986518            0.000538389384           
       2.649623              0.0070979465            0.000534848777           
       2.652263             0.00741697689            0.000541250071           
       2.654904             0.00657198978            0.000509999368           
       2.657544             0.00648843217            0.000477302998           
       2.660184             0.00668217344            0.000512611487           
       2.662825             0.00748826867            0.000555239857           
       2.665465             0.00681438342            0.000512275574           
       2.668105             0.00803966957            0.000586497104           
       2.670746             0.00861459087             0.00056083593           
       2.673386             0.00855727449            0.000576060388           
       2.676027             0.00782309707            0.000541954698           
       2.678667              0.0100752202            0.000600121887           
       2.681307              0.0109487286            0.000614683757           
       2.683948              0.0150972985            0.000741620543           
       2.686588              0.0122127762            0.000655959126           
       2.689229               0.010488613            0.000594009909           
       2.691869             0.00979699803            0.000606757703           
       2.694509             0.00877476706            0.000574546469           
       2.697150             0.00742928087            0.000520088167           
       2.699790             0.00682573061            0.000522621272           
       2.702430             0.00760500103            0.000527309298           
       2.705071              0.0072138047            0.000530675635           
       2.707711             0.00703136638            0.000508505783           
       2.710352             0.00697636775            0.000535194525           
       2.712992             0.00750447868            0.000565345609           
       2.715632             0.00666833138            0.000494444403           
       2.718273             0.00673182919            0.000514859029           
       2.720913              0.0068106012            0.000516389074           
       2.723553             0.00730960617            0.000538561719           
       2.726194             0.00701914179            0.000551675573           
       2.728834                0.00759517            0.000574135243           
       2.731475              0.0074894507            0.000526175814           
       2.734115               0.007566791            0.000545299823           
       2.736755               0.007518049            0.000548014468           
       2.739396             0.00697353124            0.000524737704           
       2.742036             0.00739897571             0.00056567538           
       2.744677             0.00641845363            0.000511201147           
       2.747317             0.00734031205            0.000542782635           
       2.749957             0.00682166976            0.000526927893           
       2.752598             0.00743280014            0.000555993715           
       2.755238             0.00843611429            0.000603024495           
       2.757878             0.00766914816            0.000569932537           
       2.760519              0.0079597911            0.000574475101           
       2.763159             0.00786380204            0.000565294579           
       2.765800             0.00744998657            0.000524350965           
       2.768440             0.00775372693            0.000538874024           
       2.771080             0.00802910025            0.000552936798           
       2.773721             0.00740687233            0.000544779271           
       2.776361              0.0077092776            0.000563456711           
       2.779001             0.00744955168            0.000573602953           
       2.781642             0.00668666988            0.000539434678           
       2.784282             0.00714414268            0.000566751154           
       2.786923             0.00695870975            0.000564272453           
       2.789563             0.00660386605            0.000529423078           
       2.792203             0.00703362879            0.000521947324           
       2.794844              0.0058032969            0.000519611112           
       2.797484             0.00744270758            0.000555349327           
       2.800125             0.00623129502            0.000534317442           
       2.802765             0.00605286629            0.000517552473           
       2.805405             0.00720137525            0.000566433597           
       2.808046             0.00677263898            0.000558970137           
       2.810686             0.00623270665            0.000492729471           
       2.813326             0.00680185387            0.000534667784           
       2.815967             0.00763535495              0.0005825872           
       2.818607             0.00687085886            0.000527381622           
       2.821248              0.0066265291             0.00050716732           
       2.823888             0.00714603379            0.000546699526           
       2.826528             0.00661514147            0.000509404997           
       2.829169             0.00688140294            0.000544205491           
       2.831809             0.00632131389            0.000528683356           
       2.834449             0.00645017269            0.000537419733           
       2.837090             0.00654903771            0.000523025063           
       2.839730             0.00640703826            0.000514797945           
       2.842371             0.00724830611            0.000548343565           
       2.845011             0.00631325335            0.000515833009           
       2.847651              0.0078294709            0.000575150869           
       2.850292             0.00671043352            0.000537690431           
       2.852932             0.00701429123            0.000561709778           
       2.855573             0.00732370931            0.000556762524           
       2.858213             0.00682057768            0.000564227805           
       2.860853             0.00755084656            0.000552245194           
       2.863494             0.00717582381              0.0005573931           
       2.866134             0.00639782501            0.000547034336           
       2.868774             0.00635959183            0.000536013807           
       2.871415             0.00605862283            0.000531325841           
       2.874055              0.0072790291            0.000556688318           
       2.876696             0.00700647994            0.000560939876           
       2.879336             0.00677196359            0.000531513242           
       2.881976             0.00718838569            0.000564823389           
       2.884617             0.00929431833            0.000632819979           
       2.887257             0.00634990617             0.00052576411           
       2.889897             0.00680213988            0.000532964881           
       2.892538             0.00762873097            0.000618323554           
       2.895178             0.00756806373            0.000556388516           
       2.897819             0.00722600399            0.000554594712           
       2.900459             0.00654873855            0.000517694792           
       2.903099             0.00766230244            0.000554250649           
       2.905740             0.00725629568            0.000553321211           
       2.908380             0.00659010835            0.000533301591           
       2.911021             0.00659307972            0.000542094383           
       2.913661             0.00680290308             0.00055048787           
       2.916301             0.00705608068            0.000561172454           
       2.918942             0.00628987304            0.000506794222           
       2.921582             0.00833109275            0.000610257301           
       2.924222             0.00641530485            0.000518809857           
       2.926863             0.00770539512            0.000592249125           
       2.929503             0.00679935018            0.000562931705           
       2.932144             0.00721619348            0.000556697992           
       2.934784             0.00706310203            0.000541730261           
       2.937424             0.00691768066            0.000541628731           
       2.940065             0.00726468183            0.000529462371           
       2.942705             0.00704890676            0.000520885756           
       2.945346             0.00807114356            0.000591518181           
       2.947986             0.00801746044            0.000601134669           
       2.950626             0.00704237863            0.000560222962           
       2.953267             0.00759608241            0.000572429109           
       2.955907             0.00602963118            0.000529057437           
       2.958547             0.00778167318            0.000567400272           
       2.961188             0.00662113929            0.000546034346           
       2.963828             0.00696562301            0.000547840984           
       2.966469             0.00709620246            0.000542444124           
       2.969109             0.00652645529            0.000527920134           
       2.971749             0.00699350445            0.000543074243           
       2.974390             0.00823950514            0.000579262994           
       2.977030             0.00733063081            0.000558592035           
       2.979670             0.00800345322            0.000567725443           
       2.982311             0.00908718427            0.000626992784           
       2.984951             0.00744571821             0.00053978631           
       2.987592             0.00638719031            0.000509959972           
       2.990232             0.00759070489            0.000578164012           
       2.992872             0.00792587245            0.000556491311           
       2.995513              0.0074420294            0.000527552316           
       2.998153              0.0104301946            0.000635041533           
       3.000794              0.0121238462            0.000663165342           
       3.003434              0.0118112588            0.000655548672           
       3.006074              0.0386762548             0.00116963123           
       3.008715               0.113647249             0.00193541734           
       3.011355               0.207879679             0.00252419975           
       3.013995               0.114742419             0.00188044097           
       3.016636              0.0743504463             0.00148226986           
       3.019276               0.136153992             0.00197171983           
       3.021917               0.494389706             0.00361273341           
       3.024557                1.49891257             0.00618470991           
       3.027197                1.15822245             0.00530039629           
       3.029838               0.546093467             0.00369115976           
       3.032478               0.260385703             0.00255140426           
       3.035118              0.0695057945             0.00133588478           
       3.037759              0.0875294584             0.00149718311           
       3.040399               0.118804491             0.00179926024           
       3.043040               0.483468845               0.003674115           
       3.045680               0.394918267             0.00312425351           
       3.048320              0.0990695399               0.001598858           
       3.050961               0.108144041             0.00169991361           
       3.053601              0.0866029029             0.00146511846           
       3.056242              0.0636775902              0.0013357337           
       3.058882              0.0514470746             0.00128791273           
       3.061522              0.0386217817             0.00109482329           
       3.064163              0.0504956136             0.00123609306           
       3.066803               0.111372435             0.00193264796           
       3.069443               0.111792097              0.0020258509           
       3.072084              0.0481275465             0.00129431123           
       3.074724              0.0389305009             0.00130002359           
       3.077365              0.0804538924             0.00193460966           
       3.080005              0.0147497763            0.000833041269           
       3.082645              0.0119202937             0.00078672508           
       3.085286              0.0136543614            0.000848649192           
       3.087926              0.0101391028            0.000725658232           
       3.090566              0.0115339139            0.000758335265           
       3.093207              0.0107385018            0.000761430066           
       3.095847             0.00931981644            0.000679903103           
       3.098488             0.00933957981            0.000754695099           
       3.101128              0.0103291668             0.00079877515           
       3.103768              0.0100501469            0.000773089277           
       3.106409             0.00849071879             0.00075625295           
       3.109049             0.00861176006            0.000730893159           
       3.111690             0.00694567207            0.000645126475           
       3.114330             0.00797088039            0.000705801941           
       3.116970             0.00761201989            0.000695026017           
       3.119611              0.0101228663            0.000853142565           
       3.122251              0.0187669372             0.00121510045           
       3.124891               0.035961041             0.00169768931           
       3.127532              0.0263371804             0.00142132967           
       3.130172              0.0161142377             0.00113098101           
       3.132813              0.0108758334            0.000914707438           
       3.135453             0.00654356003            0.000703664757           
       3.138093             0.00576041337            0.000715366628           
       3.140734             0.00582697391            0.000663782817           
       3.143374              0.0061765295            0.000722728304           
       3.146014             0.00685044557            0.000819397518           
       3.148655             0.00838904881             0.00084291591           
       3.151295             0.00555621667            0.000731029055           
       3.153936             0.00618629765            0.000745116236           
       3.156576             0.00497701854            0.000659242831           
       3.159216             0.00695773176            0.000783360135           
       3.161857             0.00644738589             0.00075101458           
       3.164497             0.00646311075            0.000790061626           
       3.167138             0.00876346572            0.000950563277           
       3.169778             0.00667704591            0.000816043784           
       3.172418             0.00575437712            0.000749860266           
       3.175059             0.00668631668             0.00071659559           
       3.177699             0.00653453551            0.000750169101           
       3.180339             0.00592233786            0.000765172135           
       3.182980             0.00516901608            0.000739084944           
       3.185620             0.00789699399            0.000930349333           
       3.188261             0.00670166868             0.00087234531           
       3.190901             0.00768349991             0.00085906752           
       3.193541             0.00560653017            0.000771077241           
       3.196182             0.00610786473            0.000838731612           
       3.198822             0.00633453422             0.00085443925           
       3.201463             0.00721999643            0.000896488763           
       3.204103             0.00616649091            0.000823464794           
       3.206743             0.00539591689            0.000770225423           
       3.209384             0.00602132602            0.000879066532           
       3.212024             0.00701605293            0.000884675782           
       3.214664             0.00403395975            0.000762813505           
       3.217305             0.00545748561            0.000843398008           
       3.219945             0.00691878295            0.000977406949           
       3.222586               0.006386942            0.000894467292           
       3.225226             0.00708702378             0.00104524056           
       3.227866             0.00578594227            0.000863202676           
       3.230507             0.00731097632             0.00100583902           
       3.233147             0.00547188461            0.000877206902           
       3.235787             0.00586845833            0.000929673416           
       3.238428             0.00496533362            0.000922815739           
       3.241068             0.00538057138            0.000898234363           
       3.243709             0.00496416571            0.000891385815           
       3.246349              0.0067890293            0.000950271094           
       3.248989             0.00685770333             0.00112771933           
       3.251630             0.00480569409            0.000909083395           
       3.254270             0.00619454554            0.000922435825           
       3.256911             0.00652251916             0.00103278053           
       3.259551             0.00493009914            0.000966669909           
       3.262191             0.00553357149             0.00104609294           
       3.264832              0.0060181713             0.00113986601           
       3.267472             0.00472372887            0.000947363463           
       3.270112             0.00668325574             0.00124531882           
       3.272753             0.00504806669            0.000990658197           
       3.275393             0.00747852374             0.00123031894           
       3.278034             0.00524296944             0.00103072515           
       3.280674             0.00500674513             0.00109299271           
       3.283314             0.00667847283             0.00112898382           
       3.285955             0.00672435818             0.00116885824           
       3.288595             0.00861372952              0.0014717928           
       3.291235             0.00611198158             0.00127447576           
       3.293876             0.00547418406             0.00122347928           
       3.296516             0.00705867657             0.00133376692           
       3.299157             0.00443042065             0.00104339617           
       3.301797             0.00639874103              0.0014303413           
       3.304437             0.00383358626            0.000959188389           
       3.307078             0.00521945614             0.00123288539           
       3.309718             0.00276933601            0.000926943379           
       3.312359             0.00529324119             0.00128182688           
       3.314999             0.00571169402              0.0013110004           
       3.317639             0.00607895905             0.00129349318           
       3.320280             0.00467565906             0.00120611445           
       3.322920             0.00676297497             0.00147497534           
       3.325560             0.00639144993             0.00143486326           
       3.328201             0.00652597872             0.00130579646           
       3.330841             0.00465970606             0.00134290351           
       3.333482             0.00760479567             0.00162161078           
       3.336122             0.00416088928             0.00120003944           
       3.338762             0.00458979563             0.00145592609           
       3.341403               0.005879779             0.00157460647           
       3.344043             0.00427221921             0.00128862584           
       3.346683             0.00485052084             0.00140179764           
       3.349324             0.00513271316             0.00162128012           
       3.351964             0.00570251309              0.0018071024           
       3.354605             0.00753403629             0.00237551448           
       3.357245              0.0072820677             0.00210682733           
       3.359885             0.00707306276             0.00166184653           
       3.362526             0.00426821543             0.00161439037           
       3.365166             0.00435407802             0.00153792206           
       3.367807             0.00800750676             0.00266916784           
       3.370447             0.00550647847             0.00183606403           
       3.373087             0.00549522816             0.00196142168           
       3.375728             0.00707679693             0.00251209294           
       3.378368             0.00571787854             0.00335123357           
       3.381008             0.00546057354             0.00244165614           
       3.383649             0.00135454312             0.00097554262           
       3.386289             0.00295720027             0.00170596745           
       3.388930             0.00490744336             0.00347617262           
       3.391570             0.00615833158             0.00275465814           
       3.394210               0.005973685             0.00343342292           
       3.396851             0.00237156227             0.00241989881           
       3.399491           -2.63979665e-05                         0           
       3.402131            -2.6420039e-05                         0           
       3.404772              0.0096544319             0.00977420987           
       3.407412                       nan                       nan           
       3.410053           -2.64978947e-05                         0           
       3.412693                       nan                       nan           
       3.415333              0.0089954056             0.00945534585           
